# k  (h/Mpc)    Pcb(k)  (Mpc/h)^3    Pcb_linear(k) (Mpc/h)^3   ShotnoiseSubtracted = true
      0.0200456         16339.2           16618 
      0.0350414         13135.6         12814.2 
      0.0492313         9547.04         9753.32 
      0.0637834         7814.37         8232.82 
      0.0800726         6156.71         6544.89 
       0.096163         4979.82         4870.12 
       0.111083         4161.68         4005.05 
       0.126058          3453.1         3556.41 
       0.142273         2985.76         2973.86 
       0.158546         2479.27         2385.96 
        0.17375         2228.03         2066.18 
       0.188953         2093.08         1871.33 
       0.204907         1794.64         1632.83 
       0.220756         1620.25         1391.85 
        0.23588         1454.99         1236.12 
         0.2514         1314.95         1128.03 
       0.267535         1272.97         1010.53 
       0.283568         1127.55         892.915 
       0.299022         1080.42         806.583 
       0.314451         1115.46         741.392 
       0.330372         975.248         676.823 
       0.346141          899.39          614.16 
       0.361624          863.75         562.519 
       0.377134         822.597         520.438 
       0.392932         792.839         481.066 
       0.408854         755.566         443.267 
       0.424564         736.884          410.24 
       0.440253         678.204          381.91 
       0.455999         649.301         356.148 
       0.471626         660.416         332.195 
        0.48727         624.712         310.387 
       0.502856          586.61         291.006 
       0.518488          579.82         273.316 
       0.534347         545.954          256.68 
       0.550082         524.051         241.467 
       0.565732         519.316         227.683 
       0.581496          506.69         214.935 
       0.597222          492.16         203.147 
       0.612804         482.008          192.31 
       0.628434         461.206         182.256 
       0.644267         445.163          172.84 
       0.660051         438.903         164.122 
       0.675724          431.68         156.058 
       0.691403         420.094         148.532 
       0.707174         404.543         141.463 
       0.722871         397.125         134.884 
        0.73838         392.571         128.797 
       0.754018         378.688         123.041 
       0.769845         374.441         117.576 
        0.78569         366.825          112.44 
       0.801365         355.492         107.664 
       0.817031         349.968          103.17 
       0.832809         345.111         98.9071 
       0.848511         336.446         94.9062 
       0.864097         328.536         91.1562 
       0.879701         325.007         87.6071 
       0.895507         314.666         84.2067 
       0.911279         307.803         80.9955 
        0.92691         304.777         77.9799 
       0.942635          302.51         75.1025 
       0.958396         292.223         72.3654 
       0.974128          288.18         69.7709 
       0.989692         277.161         67.3304 
        1.00528          276.66          65.004 
        1.02113          271.76         62.7519 
        1.03692         265.516         60.6157 
        1.05264         261.165         58.5896 
        1.06832         259.417           56.66 
        1.08405         252.771         54.8128 
        1.09979         250.085         53.0476 
        1.11537         243.428         51.3783 
        1.13105         239.757         49.7713 
        1.14679         236.751         48.2275 
        1.16256         233.977         46.7466 
        1.17828         230.175         45.3332 
        1.19395         223.781         43.9835 
         1.2097         223.409         42.6823 
        1.22537         220.059         41.4404 
          1.241         214.854         40.2521 
        1.25666         211.985         39.1077 
        1.27241         207.724         38.0028 
        1.28819         205.049          36.939 
        1.30392         201.507         35.9194 
        1.31957         196.826          34.943 
        1.33529         194.114         33.9996 
        1.35108         192.181         33.0876 
        1.36674         188.348         32.2158 
         1.3824         186.065         31.3764 
        1.39811         183.206         30.5643 
        1.41389         179.154         29.7781 
        1.42964         177.063         29.0211 
        1.44531         174.495         28.2942 
        1.46101         171.369         27.5909 
        1.47667         169.146         26.9137 
        1.49229         166.603         26.2612 
        1.50793         163.946         25.6298 
        1.52367         162.029         25.0152 
        1.53953         158.071         24.4167 
        1.55526         157.529         23.8428 
        1.57092          155.39         23.2897 
        1.58662         151.341          22.753 
        1.60235         149.858         22.2323 
        1.61809         146.885         21.7278 
        1.63369         145.079         21.2434 
        1.64941         143.811         20.7705 
        1.66519         141.075         20.3103 
        1.68085         138.742         19.8675 
        1.69652         136.844         19.4378 
        1.71228         135.236         19.0184 
        1.72806         133.239         18.6111 
        1.74368         131.481           18.22 
        1.75933         130.027         17.8393 
        1.77505         127.547         17.4679 
        1.79081         125.426         17.1064 
         1.8065         123.537         16.7567 
        1.82218         121.613         16.4172 
        1.83797         121.016         16.0848 
        1.85367         118.814         15.7634 
        1.86928         117.345         15.4529 
        1.88497         115.826         15.1491 
        1.90073         114.557         14.8523 
        1.91647         112.486         14.5638 
        1.93218         111.216         14.2837 
        1.94787         109.364         14.0113 
        1.96363         108.472          13.745 
        1.97935         106.904         13.4863 
        1.99499         105.863         13.2356 
        2.01064         103.529         12.9911 
         2.0264         102.554         12.7511 
        2.04216         100.689         12.5174 
        2.05781         99.7028         12.2911 
        2.07353          98.192         12.0696 
        2.08928         96.8849         11.8531 
        2.10499          95.629         11.6425 
        2.12065         95.0457         11.4377 
        2.13633         93.8473         11.2376 
        2.15211         92.2549         11.0411 
        2.16785         90.8107         10.8498 
        2.18349         89.4479         10.6643 
        2.19916          88.622         10.4828 
        2.21489         87.5183         10.3049 
        2.23063          86.158          10.131 
         2.2463         85.2715         9.96199 
        2.26194         83.9533         9.79723 
        2.27765         82.9274         9.63538 
        2.29341         82.1204         9.47678 
        2.30914         81.0116         9.32209 
        2.32486         79.5948         9.17096 
        2.34061         78.8475         9.02294 
        2.35635         77.6855         8.87833 
        2.37203         76.5694         8.73742 
        2.38768         75.7982         8.59986 
        2.40339         75.1208         8.46478 
        2.41914         73.7852          8.3323 
        2.43483         73.0009         8.20314 
         2.4505         72.1492         8.07695 
        2.46622         71.3342         7.95299 
        2.48195         70.3517         7.83163 
        2.49759         69.3963         7.71346 
        2.51328         68.6743         7.59744 
        2.52906         67.3231         7.48308 
        2.54479         66.6206         7.37151 
        2.56049         65.8741         7.26244 
        2.57618         64.9598         7.15568 
        2.59189         64.4554         7.05092 
        2.60758         63.4916         6.94842 
        2.62325         62.8085          6.8481 
        2.63898         62.0221         6.74942 
        2.65468         61.3284          6.6529 
        2.67044         60.5578         6.55786 
        2.68618         59.8915          6.4649 
        2.70184         58.8527         6.37412 
        2.71755         58.2537         6.28487 
        2.73329         57.5736          6.1972 
        2.74897          57.036         6.11149 
        2.76462         56.4756          6.0276 
        2.78034         55.7068         5.94494 
        2.79607         54.9955         5.86376 
        2.81179         54.3278         5.78418 
        2.82749         53.8723         5.70618 
        2.84321         53.3062         5.62954 
        2.85893          52.641         5.55433 
        2.87462         51.9605         5.48064 
        2.89033         51.3005         5.40821 
        2.90605         50.9213         5.33704 
        2.92176         50.1665         5.26719 
        2.93747         49.4757         5.19863 
        2.95318         49.1055         5.13128 
        2.96891         48.4835          5.0651 
        2.98456          47.893         5.00038 
        3.00023         47.3351          4.9367 
        3.01596         46.9277         4.87394 
        3.03164         46.4763         4.81245 
        3.04738           45.82         4.75185 
         3.0631         45.1725         4.69232 
        3.07883         44.8113          4.6338 
        3.09456         44.1948          4.5763 
        3.11026         43.6837         4.51987 
        3.12596         43.4116          4.4644 
        3.14163         42.7374         4.40998 
        3.15734         42.2855         4.35636 
        3.17308         41.8651          4.3035 
        3.18879         41.4154         4.25166 
        3.20447         40.9495         4.20076 
         3.2202         40.4716         4.15053 
         3.2359         40.1453         4.10122 
        3.25157         39.6277         4.05283 
        3.26729         39.2555         4.00507 
        3.28304         38.8876           3.958 
        3.29877         38.3155         3.91174 
        3.31446          38.095         3.86633 
        3.33014         37.6397         3.82169 
        3.34585         37.2075         3.77768 
        3.36158         36.7908          3.7343 
        3.37727         36.4095         3.69174 
        3.39294         36.0189         3.64988 
        3.40867         35.6999         3.60853 
        3.42439          35.222         3.56784 
        3.44008         34.9488         3.52786 
        3.45578         34.4773         3.48847 
        3.47153         34.1894         3.44959 
        3.48724         33.6801         3.41137 
        3.50292         33.3862         3.37383 
        3.51859         33.2062         3.33687 
        3.53431         32.7314         3.30035 
        3.55007         32.4351         3.26429 
        3.56577         32.1923         3.22891 
        3.58146         31.8172         3.19407 
        3.59719         31.4424         3.15967 
        3.61292         31.1123         3.12579 
        3.62859         30.8616         3.09254 
        3.64429         30.6658          3.0597 
        3.66003         30.2619         3.02725 
        3.67578         29.9938         2.99528 
        3.69146         29.7031         2.96389 
        3.70712         29.3589         2.93301 
        3.72284         29.1043         2.90246 
        3.73853         28.8013         2.87239 
        3.75422         28.5338         2.84275 
        3.76993         28.3038          2.8135 
        3.78564         27.9868         2.78467 
        3.80137         27.7347          2.7562 
        3.81707          27.415         2.72819 
        3.83279         27.1519         2.70055 
        3.84853         26.8757         2.67325 
        3.86424         26.6504         2.64637 
        3.87992         26.3405         2.61991 
        3.89561         26.2448         2.59382 
        3.91134         25.9079         2.56802 
        3.92704         25.6446         2.54261 
        3.94273         25.4242         2.51756 
        3.95845         25.1695         2.49281 
        3.97418         24.8736         2.46839 
        3.98988         24.5824         2.44433 
        4.00554         24.3444         2.42066 
        4.02125         24.2251         2.39723 
        4.03698         24.0111         2.37408 
        4.05268         23.8088         2.35129 
        4.06839         23.4909         2.32878 
         4.0841         23.3581         2.30657 
        4.09983         23.0346         2.28462 
        4.11555         22.8851         2.26297 
        4.13124         22.7308         2.24166 
        4.14693         22.4838          2.2206 
        4.16266         22.2636         2.19977 
        4.17839         22.0918         2.17922 
        4.19408         21.8317         2.15898 
        4.20977         21.6674         2.13899 
        4.22551         21.5323          2.1192 
        4.24123         21.3038         2.09969 
        4.25691         21.0723         2.08047 
        4.27259          20.919         2.06149 
        4.28831         20.7298         2.04271 
        4.30404          20.536         2.02415 
        4.31974         20.3511         2.00586 
        4.33543         20.1958          1.9878 
        4.35116         20.0007         1.96993 
        4.36688          19.844         1.95228 
        4.38255         19.6656         1.93492 
        4.39825          19.514         1.91772 
        4.41398         19.3377         1.90071 
         4.4297         19.1622         1.88392 
        4.44541         18.9155         1.86733 
        4.46111         18.8044         1.85096 
        4.47683         18.6135         1.83478 
        4.49251         18.4493         1.81882 
        4.50819         18.3344         1.80305 
         4.5239         18.1095         1.78745 
        4.53962         17.9941         1.77202 
        4.55535         17.8036         1.75676 
        4.57106         17.7006         1.74171 
        4.58678         17.5133         1.72682 
         4.6025         17.4097         1.71211 
        4.61821         17.2057         1.69757 
        4.63391         17.1034         1.68322 
         4.6496         16.9752         1.66905 
        4.66532         16.7933         1.65501 
        4.68103         16.6624         1.64114 
        4.69673          16.542         1.62745 
        4.71241         16.4289         1.61392 
        4.72811         16.2508         1.60053 
        4.74384         16.1369         1.58728 
        4.75955         15.9655         1.57419 
        4.77525         15.8647         1.56126 
        4.79096         15.7049         1.54846 
        4.80669         15.5857         1.53579 
         4.8224         15.4422         1.52329 
        4.83809         15.3753         1.51093 
        4.85379         15.2143         1.49871 
         4.8695         15.0435         1.48661 
        4.88521          14.951         1.47465 
        4.90093         14.8681         1.46282 
        4.91663         14.7078         1.45113 
        4.93234         14.5658         1.43956 
        4.94807         14.5033         1.42811 
        4.96377         14.3526          1.4168 
        4.97943         14.2449         1.40564 
        4.99514         14.1357         1.39457 
        5.01086         14.0189         1.38361 
        5.02654         13.9187          1.3728 
        5.04227         13.7831         1.36207 
          5.058          13.714         1.35145 
        5.07371          13.555         1.34097 
        5.08942         13.4584          1.3306 
        5.10513         13.3714         1.32033 
        5.12084         13.2454         1.31017 
        5.13656         13.1575         1.30012 
        5.15225         13.0432         1.29019 
        5.16796         12.9521         1.28035 
        5.18369          12.864          1.2706 
         5.1994         12.7625         1.26098 
        5.21509         12.6534         1.25146 
        5.23079          12.564         1.24203 
        5.24649         12.4755          1.2327 
        5.26217         12.3643         1.22347 
        5.27788         12.2717         1.21433 
        5.29359         12.1724         1.20528 
        5.30933         12.0843         1.19631 
        5.32504         11.9805         1.18745 
        5.34073         11.8905         1.17868 
        5.35646         11.8105         1.16999 
        5.37218         11.7065         1.16138 
        5.38789         11.6063         1.15288 
        5.40357         11.5504         1.14446 
        5.41929         11.4809         1.13612 
        5.43502         11.3579         1.12786 
         5.4507         11.2869         1.11969 
        5.46639         11.1917         1.11161 
        5.48212         11.0888         1.10359 
        5.49786         11.0338         1.09564 
        5.51353         10.9354         1.08781 
        5.52921         10.8693         1.08005 
        5.54495         10.8062         1.07234 
        5.56066         10.7142         1.06471 
        5.57637         10.6408         1.05716 
        5.59207         10.5509         1.04969 
        5.60778         10.4626         1.04229 
        5.62346         10.3918         1.03497 
        5.63916         10.3344         1.02771 
        5.65487          10.253         1.02052 
         5.6706         10.1732         1.01339 
        5.68633         10.0991         1.00633 
        5.70203         10.0257        0.999348 
        5.71773         9.95314        0.992434 
        5.73344         9.89255        0.985582 
        5.74916         9.83301        0.978788 
        5.76486         9.72435        0.972068 
        5.78054         9.67589        0.965422 
        5.79626         9.60333        0.958819 
          5.812         9.51791        0.952272 
         5.8277          9.4527        0.945805 
        5.84339         9.39322        0.939398 
        5.85911         9.31577        0.933039 
        5.87484         9.27385         0.92674 
        5.89053         9.18479        0.920511 
        5.90623            9.13        0.914337 
        5.92195          9.0521        0.908209 
        5.93767         9.01304        0.902141 
        5.95336         8.92785        0.896139 
        5.96905         8.86698        0.890193 
        5.98476         8.81589        0.884293 
        6.00048          8.7609        0.878445 
        6.01617         8.69015        0.872658 
        6.03185         8.62487         0.86693 
        6.04756          8.5624         0.86124 
        6.06331         8.52974        0.855589 
        6.07903         8.45693            0.85 
        6.09473         8.38438        0.844467 
        6.11044          8.3319        0.838979 
        6.12616         8.28378         0.83354 
        6.14186         8.20942        0.828155 
        6.15755         8.17496        0.822817 
        6.17326         8.11092        0.817523 
        6.18898         8.04823        0.812273 
        6.20467         7.98694        0.807079 
        6.22036         7.94835        0.801931 
         6.2361         7.89455        0.796814 
         6.2518         7.83582         0.79175 
        6.26748         7.79844        0.786741 
        6.28319         7.73656        0.781762 
        6.29893         7.67407        0.776822 
        6.31463          7.6374        0.771933 
        6.33033         7.58135        0.767087 
        6.34604          7.5258         0.76228 
        6.36177         7.47746         0.75751 
        6.37747         7.43027        0.752789 
