# k  (h/Mpc)    Pcb(k)  (Mpc/h)^3    Pcb_linear(k) (Mpc/h)^3   ShotnoiseSubtracted = true
      0.0200456         1101.38         1117.76 
      0.0350414         855.771         861.912 
      0.0492313         657.187          656.03 
      0.0637834         558.026         553.758 
      0.0800726         443.562         440.224 
       0.096163         326.228         327.575 
       0.111083         266.495         269.389 
       0.126058         239.897         239.212 
       0.142273         202.186         200.028 
       0.158546         163.051         160.485 
        0.17375          138.52         138.976 
       0.188953         127.273          125.87 
       0.204907         114.663         109.828 
       0.220756         96.3648         93.6187 
        0.23588         85.4041          83.144 
         0.2514         77.0378         75.8739 
       0.267535         69.8443         67.9708 
       0.283568         62.3159         60.0594 
       0.299022         56.7809         54.2526 
       0.314451         51.1402         49.8677 
       0.330372         47.3175         45.5247 
       0.346141         43.0089         41.3098 
       0.361624         39.8111         37.8363 
       0.377134         37.3441         35.0058 
       0.392932         33.2563         32.3576 
       0.408854         31.8525         29.8151 
       0.424564         29.6472         27.5937 
       0.440253          27.426         25.6881 
       0.455999         25.9014         23.9553 
       0.471626         24.3464         22.3442 
        0.48727         22.8589         20.8774 
       0.502856         21.3613         19.5737 
       0.518488         20.4337         18.3839 
       0.534347         19.5097         17.2649 
       0.550082         17.8765         16.2416 
       0.565732         16.5712         15.3145 
       0.581496         16.2439          14.457 
       0.597222         15.5935         13.6641 
       0.612804         14.5374         12.9352 
       0.628434         14.0237          12.259 
       0.644267         13.4624         11.6256 
       0.660051         12.7167         11.0392 
       0.675724          12.097         10.4968 
       0.691403         11.6908         9.99059 
       0.707174         11.1376          9.5151 
       0.722871         10.6835         9.07261 
        0.73838         10.2926         8.66316 
       0.754018         9.94507         8.27601 
       0.769845          9.4611         7.90843 
        0.78569         9.16701         7.56297 
       0.801365         8.78271         7.24169 
       0.817031         8.51128         6.93946 
       0.832809         8.24365         6.65271 
       0.848511         7.77977          6.3836 
       0.864097         7.53258         6.13137 
       0.879701         7.29376         5.89265 
       0.895507         6.99627         5.66393 
       0.911279         6.89516         5.44794 
        0.92691         6.64213          5.2451 
       0.942635         6.36035         5.05156 
       0.958396         6.15268         4.86746 
       0.974128         5.99401         4.69295 
       0.989692         5.89574         4.52879 
        1.00528           5.643         4.37231 
        1.02113         5.43883         4.22083 
        1.03692         5.35145         4.07715 
        1.05264         5.16879         3.94086 
        1.06832          5.0536         3.81108 
        1.08405         4.83223         3.68683 
        1.09979         4.73555          3.5681 
        1.11537          4.6308         3.45582 
        1.13105         4.51148         3.34773 
        1.14679         4.39561         3.24389 
        1.16256         4.26657         3.14428 
        1.17828         4.18041         3.04921 
        1.19395         4.07024         2.95843 
         1.2097         3.90816         2.87091 
        1.22537         3.82987         2.78738 
          1.241         3.75849         2.70745 
        1.25666         3.72828         2.63047 
        1.27241         3.57226         2.55615 
        1.28819         3.49347          2.4846 
        1.30392         3.43599         2.41602 
        1.31957          3.3603         2.35035 
        1.33529          3.2697         2.28689 
        1.35108         3.20107         2.22555 
        1.36674         3.13079         2.16691 
         1.3824         3.03615         2.11045 
        1.39811          2.9825         2.05583 
        1.41389         2.93551         2.00294 
        1.42964         2.87396         1.95202 
        1.44531          2.8183         1.90313 
        1.46101         2.76451         1.85582 
        1.47667         2.67532         1.81028 
        1.49229         2.65768         1.76639 
        1.50793         2.58791         1.72392 
        1.52367         2.56116         1.68258 
        1.53953          2.4802         1.64232 
        1.55526         2.43418         1.60372 
        1.57092         2.39872         1.56652 
        1.58662         2.35563         1.53042 
        1.60235          2.3067          1.4954 
        1.61809         2.26247         1.46146 
        1.63369         2.23675         1.42888 
        1.64941         2.18411         1.39707 
        1.66519         2.15475         1.36612 
        1.68085         2.09442         1.33633 
        1.69652         2.06594         1.30743 
        1.71228         2.03955         1.27922 
        1.72806         1.98908         1.25183 
        1.74368         1.96628         1.22552 
        1.75933         1.92458         1.19991 
        1.77505         1.89682         1.17493 
        1.79081         1.86679         1.15061 
         1.8065         1.83125         1.12709 
        1.82218         1.81187         1.10425 
        1.83797          1.7872          1.0819 
        1.85367         1.76565         1.06028 
        1.86928         1.73505          1.0394 
        1.88497         1.69345         1.01896 
        1.90073         1.66453        0.999001 
        1.91647         1.65214        0.979597 
        1.93218         1.62766        0.960752 
        1.94787         1.59429        0.942433 
        1.96363         1.57174        0.924522 
        1.97935         1.54453        0.907116 
        1.99499         1.51726        0.890259 
        2.01064         1.50008        0.873808 
         2.0264         1.49128        0.857671 
        2.04216         1.46191        0.841952 
        2.05781         1.43956        0.826728 
        2.07353         1.42346        0.811828 
        2.08928          1.3973        0.797265 
        2.10499          1.3798          0.7831 
        2.12065         1.36962        0.769323 
        2.13633         1.34426        0.755867 
        2.15211         1.32073        0.742648 
        2.16785         1.30376        0.729784 
        2.18349         1.29134        0.717307 
        2.19916         1.26963        0.705096 
        2.21489          1.2507        0.693131 
        2.23063         1.23468        0.681436 
         2.2463         1.22868        0.670066 
        2.26194         1.19846        0.658984 
        2.27765         1.18666        0.648097 
        2.29341         1.17797        0.637429 
        2.30914         1.16695        0.627025 
        2.32486         1.14824        0.616859 
        2.34061         1.13156        0.606903 
        2.35635         1.11386        0.597177 
        2.37203         1.10483        0.587698 
        2.38768         1.09271        0.578446 
        2.40339          1.0816         0.56936 
        2.41914         1.06811        0.560449 
        2.43483         1.05293        0.551762 
         2.4505         1.03869        0.543274 
        2.46622         1.02719        0.534936 
        2.48195         1.02259        0.526773 
        2.49759          1.0063        0.518825 
        2.51328        0.989649        0.511021 
        2.52906        0.981036        0.503329 
        2.54479        0.971212        0.495824 
        2.56049        0.957331        0.488488 
        2.57618        0.950001        0.481307 
        2.59189        0.939016         0.47426 
        2.60758        0.928776        0.467367 
        2.62325        0.917313        0.460619 
        2.63898        0.911707        0.453981 
        2.65468        0.899114        0.447489 
        2.67044        0.887272        0.441096 
        2.68618        0.878302        0.434844 
        2.70184        0.867548        0.428738 
        2.71755        0.859593        0.422734 
        2.73329        0.851403        0.416837 
        2.74897        0.842869        0.411072 
        2.76462        0.832983         0.40543 
        2.78034         0.82607         0.39987 
        2.79607        0.816946        0.394409 
        2.81179        0.806193        0.389057 
        2.82749         0.80226        0.383811 
        2.84321        0.794744        0.378656 
        2.85893        0.783556        0.373597 
        2.87462        0.777217         0.36864 
        2.89033        0.767203        0.363768 
        2.90605        0.761855        0.358981 
        2.92176        0.753045        0.354283 
        2.93747        0.747012        0.349671 
        2.95318        0.739891        0.345141 
        2.96891        0.732821         0.34069 
        2.98456         0.72797        0.336337 
        3.00023        0.719996        0.332054 
        3.01596        0.712799        0.327832 
        3.03164        0.705985        0.323696 
        3.04738        0.695641         0.31962 
         3.0631        0.694271        0.315616 
        3.07883        0.685886         0.31168 
        3.09456        0.677951        0.307812 
        3.11026        0.673222        0.304016 
        3.12596        0.666364        0.300285 
        3.14163        0.660926        0.296625 
        3.15734        0.658827        0.293018 
        3.17308        0.649125        0.289463 
        3.18879        0.643858        0.285976 
        3.20447        0.637349        0.282552 
         3.2202        0.634222        0.279174 
         3.2359        0.628296        0.275857 
        3.25157        0.621588        0.272602 
        3.26729         0.61983         0.26939 
        3.28304        0.611395        0.266224 
        3.29877         0.60572        0.263113 
        3.31446         0.60231        0.260058 
        3.33014        0.597362        0.257055 
        3.34585        0.593133        0.254095 
        3.36158        0.587217        0.251177 
        3.37727        0.583895        0.248315 
        3.39294        0.579911        0.245499 
        3.40867        0.574301        0.242718 
        3.42439         0.56884        0.239981 
        3.44008        0.566547        0.237292 
        3.45578        0.562895        0.234642 
        3.47153        0.556283        0.232027 
        3.48724        0.554618        0.229457 
        3.50292        0.550508        0.226931 
        3.51859        0.545076        0.224445 
        3.53431          0.5414        0.221989 
        3.55007        0.539577        0.219563 
        3.56577        0.532602        0.217184 
        3.58146        0.528917         0.21484 
        3.59719        0.526741        0.212527 
        3.61292        0.522969        0.210248 
        3.62859        0.516495        0.208011 
        3.64429        0.515589        0.205802 
        3.66003         0.51021        0.203619 
        3.67578        0.506727        0.201469 
        3.69146        0.503338        0.199358 
        3.70712        0.500212        0.197281 
        3.72284        0.496171        0.195226 
        3.73853        0.493832        0.193204 
        3.75422        0.488782         0.19121 
        3.76993        0.487494        0.189242 
        3.78564        0.483716        0.187303 
        3.80137        0.479547        0.185388 
        3.81707        0.478559        0.183504 
        3.83279        0.473168        0.181645 
        3.84853        0.469767        0.179808 
        3.86424        0.466687        0.178001 
        3.87992        0.464773        0.176221 
        3.89561        0.461216        0.174466 
        3.91134        0.459066        0.172731 
        3.92704        0.454214        0.171021 
        3.94273        0.452584        0.169337 
        3.95845          0.4499        0.167672 
        3.97418        0.445756         0.16603 
        3.98988        0.443157        0.164411 
        4.00554        0.439592        0.162819 
        4.02125        0.436236        0.161243 
        4.03698        0.432849        0.159686 
        4.05268        0.429623        0.158153 
        4.06839        0.426054        0.156639 
         4.0841         0.42176        0.155145 
        4.09983        0.418475        0.153669 
        4.11555        0.414255        0.152212 
        4.13124        0.411016        0.150779 
        4.14693        0.408199        0.149363 
        4.16266        0.404888        0.147962 
        4.17839         0.40173        0.146579 
        4.19408        0.398687        0.145218 
        4.20977        0.397229        0.143873 
        4.22551        0.393035        0.142542 
        4.24123        0.390767         0.14123 
        4.25691        0.388384        0.139937 
        4.27259         0.38524        0.138661 
        4.28831        0.382992        0.137397 
        4.30404        0.379298        0.136149 
        4.31974        0.378059        0.134919 
        4.33543        0.375466        0.133704 
        4.35116        0.372934        0.132502 
        4.36688        0.370993        0.131315 
        4.38255        0.368766        0.130147 
        4.39825        0.366762         0.12899 
        4.41398        0.364231        0.127846 
         4.4297        0.362513        0.126717 
        4.44541        0.360967        0.125601 
        4.46111        0.359087          0.1245 
        4.47683        0.357662        0.123411 
        4.49251        0.355017        0.122338 
        4.50819        0.352548        0.121277 
         4.5239          0.3527        0.120228 
        4.53962        0.350612         0.11919 
        4.55535        0.349294        0.118164 
        4.57106        0.347747        0.117151 
        4.58678        0.346445         0.11615 
         4.6025        0.345043         0.11516 
        4.61821        0.343302        0.114183 
        4.63391        0.342865        0.113217 
         4.6496        0.340719        0.112264 
        4.66532        0.339534         0.11132 
        4.68103        0.339406        0.110387 
        4.69673        0.337844        0.109466 
        4.71241        0.337553        0.108556 
        4.72811        0.335929        0.107655 
        4.74384        0.336258        0.106764 
        4.75955        0.334735        0.105883 
        4.77525        0.333795        0.105014 
        4.79096          0.3332        0.104153 
        4.80669        0.332483        0.103301 
         4.8224        0.331264         0.10246 
        4.83809        0.331461        0.101629 
        4.85379        0.331211        0.100806 
         4.8695        0.330406       0.0999927 
        4.88521        0.329705       0.0991883 
        4.90093        0.330386       0.0983927 
        4.91663        0.330249       0.0976065 
        4.93234        0.328493        0.096828 
        4.94807        0.328941       0.0960576 
        4.96377        0.329284       0.0952971 
        4.97943        0.329047       0.0945464 
        4.99514        0.328625       0.0938018 
        5.01086        0.328898       0.0930648 
        5.02654        0.329019       0.0923375 
        5.04227        0.328371        0.091616 
          5.058        0.328791       0.0909018 
        5.07371        0.329176       0.0901966 
        5.08942        0.330372       0.0894989 
        5.10513        0.329277       0.0888085 
        5.12084         0.33015        0.088125 
        5.13656        0.330797       0.0874489 
        5.15225         0.33039       0.0867811 
        5.16796        0.332243       0.0861192 
        5.18369        0.331828       0.0854636 
         5.1994        0.332311        0.084816 
        5.21509        0.332873       0.0841758 
        5.23079        0.333586       0.0835414 
        5.24649        0.334208       0.0829141 
        5.26217        0.334357       0.0822936 
        5.27788        0.335283       0.0816787 
        5.29359        0.335974         0.08107 
        5.30933        0.337465       0.0804666 
        5.32504        0.337202       0.0798703 
        5.34073        0.338821       0.0792808 
        5.35646         0.33967       0.0786961 
        5.37218        0.340198       0.0781171 
        5.38789        0.341542        0.077545 
        5.40357        0.343371       0.0769792 
        5.41929        0.342471       0.0764179 
        5.43502        0.343508       0.0758621 
         5.4507        0.345753       0.0753131 
        5.46639        0.346239       0.0747696 
        5.48212        0.347948       0.0742301 
        5.49786        0.348716       0.0736954 
        5.51353         0.35141       0.0731686 
        5.52921        0.351252       0.0726464 
        5.54495         0.35214       0.0721278 
        5.56066        0.354539       0.0716148 
        5.57637        0.355381       0.0711069 
        5.59207        0.356653       0.0706044 
        5.60778        0.358313       0.0701066 
        5.62346        0.359298       0.0696142 
        5.63916        0.360115       0.0691262 
        5.65487        0.362337       0.0686426 
         5.6706        0.363238       0.0681631 
        5.68633        0.366659        0.067688 
        5.70203         0.36683       0.0672184 
        5.71773        0.369172       0.0667533 
        5.73344        0.369923       0.0662924 
        5.74916        0.371498       0.0658355 
        5.76486        0.373384       0.0653835 
        5.78054        0.374819       0.0649364 
        5.79626        0.375635       0.0644923 
          5.812        0.378397        0.064052 
         5.8277        0.378807        0.063617 
        5.84339        0.381261        0.063186 
        5.85911        0.381832       0.0627583 
        5.87484        0.383641       0.0623346 
        5.89053        0.386996       0.0619156 
        5.90623        0.387816       0.0615004 
        5.92195        0.389525       0.0610882 
        5.93767        0.391329         0.06068 
        5.95336        0.391578       0.0602763 
        5.96905        0.395739       0.0598764 
        5.98476        0.395678       0.0594795 
        6.00048         0.39888       0.0590862 
        6.01617        0.398519       0.0586969 
        6.03185        0.400718       0.0583116 
        6.04756        0.403085       0.0579289 
        6.06331         0.40431       0.0575488 
        6.07903        0.406193       0.0571729 
        6.09473        0.408208       0.0568008 
        6.11044        0.410963       0.0564316 
        6.12616        0.411327       0.0560657 
        6.14186        0.414598       0.0557035 
        6.15755        0.414853       0.0553445 
        6.17326        0.417436       0.0549885 
        6.18898        0.420254       0.0546353 
        6.20467        0.421578        0.054286 
        6.22036        0.420392       0.0539397 
         6.2361        0.422244       0.0535955 
         6.2518        0.425444       0.0532549 
        6.26748        0.426571        0.052918 
        6.28319        0.428554       0.0525831 
        6.29893        0.430348       0.0522508 
        6.31463        0.432858       0.0519219 
        6.33033        0.434017        0.051596 
        6.34604         0.43567       0.0512727 
        6.36177        0.435883       0.0509518 
        6.37747        0.439304       0.0506343 
