# k  (h/Mpc)    Pcb(k)  (Mpc/h)^3    Pcb_linear(k) (Mpc/h)^3   ShotnoiseSubtracted = true
      0.0200456         26978.7         27524.9 
      0.0350414         21813.7         21224.6 
      0.0492313           15573         16154.7 
      0.0637834         12702.1         13636.3 
      0.0800726         9968.26         10840.5 
       0.096163         8224.67         8066.53 
       0.111083         6856.33          6633.7 
       0.126058         5670.57         5890.59 
       0.142273         4975.33          4925.7 
       0.158546         4118.38         3951.95 
        0.17375         3770.61         3422.28 
       0.188953         3628.08         3099.54 
       0.204907         3128.24          2704.5 
       0.220756         2850.93         2305.36 
        0.23588         2562.99         2047.42 
         0.2514         2347.31         1868.39 
       0.267535         2247.83         1673.78 
       0.283568         2035.65         1478.96 
       0.299022         1943.54         1335.97 
       0.314451         2019.84         1227.99 
       0.330372         1845.65         1121.04 
       0.346141          1704.5         1017.25 
       0.361624         1626.02         931.718 
       0.377134         1575.91         862.018 
       0.392932         1490.83         796.805 
       0.408854         1439.93         734.197 
       0.424564         1411.92         679.494 
       0.440253         1337.58         632.569 
       0.455999         1276.92         589.899 
       0.471626         1275.34         550.225 
        0.48727         1220.89         514.105 
       0.502856          1195.9         482.002 
       0.518488         1140.49         452.702 
       0.534347         1104.09         425.147 
       0.550082         1066.05         399.949 
       0.565732          1038.4         377.118 
       0.581496         1010.77         356.004 
       0.597222          1003.6         336.479 
       0.612804          971.52          318.53 
       0.628434         935.479         301.877 
       0.644267         913.261         286.281 
       0.660051         896.412         271.841 
       0.675724         885.278         258.484 
       0.691403         844.432         246.018 
       0.707174         826.927         234.309 
       0.722871         819.702         223.413 
        0.73838         791.277          213.33 
       0.754018          784.93         203.797 
       0.769845         763.881         194.745 
        0.78569         743.581         186.238 
       0.801365          725.36         178.327 
       0.817031         712.917         170.884 
       0.832809          694.78         163.823 
       0.848511         675.831         157.196 
       0.864097         669.018         150.985 
       0.879701         668.154         145.106 
       0.895507         645.722         139.474 
       0.911279         638.841         134.155 
        0.92691         623.336         129.161 
       0.942635         609.734         124.395 
       0.958396         603.285         119.861 
       0.974128         586.629         115.564 
       0.989692         574.926         111.521 
        1.00528         563.702         107.668 
        1.02113         551.242         103.938 
        1.03692         540.365           100.4 
        1.05264         534.522         97.0438 
        1.06832         523.767         93.8477 
        1.08405          514.63         90.7883 
        1.09979         503.144         87.8645 
        1.11537          491.16         85.0995 
        1.13105         484.074         82.4378 
        1.14679         474.659         79.8807 
        1.16256         468.934         77.4279 
        1.17828         460.498         75.0869 
        1.19395         450.846         72.8513 
         1.2097         439.629         70.6961 
        1.22537          434.72         68.6391 
          1.241         424.322         66.6708 
        1.25666         416.755         64.7754 
        1.27241          414.33         62.9453 
        1.28819         403.771         61.1833 
        1.30392         398.481         59.4944 
        1.31957         389.156         57.8772 
        1.33529          385.57         56.3147 
        1.35108         383.809         54.8041 
        1.36674         374.049           53.36 
         1.3824         364.327         51.9697 
        1.39811         361.939         50.6247 
        1.41389         356.582         49.3224 
        1.42964         348.127         48.0685 
        1.44531         344.126         46.8646 
        1.46101         333.638         45.6996 
        1.47667         332.667          44.578 
        1.49229         328.071         43.4973 
        1.50793         319.461         42.4514 
        1.52367         314.927         41.4334 
        1.53953         309.611         40.4422 
        1.55526         302.728         39.4915 
        1.57092         298.593         38.5755 
        1.58662         295.146         37.6866 
        1.60235         289.681         36.8241 
        1.61809         284.309         35.9884 
        1.63369         281.072         35.1862 
        1.64941         275.874         34.4028 
        1.66519          272.73         33.6407 
        1.68085         265.716         32.9071 
        1.69652         262.491         32.1954 
        1.71228         258.097         31.5008 
        1.72806         255.155         30.8262 
        1.74368         252.229         30.1783 
        1.75933          248.46         29.5479 
        1.77505         244.069         28.9326 
        1.79081         240.279         28.3338 
         1.8065         237.607         27.7546 
        1.82218         231.894         27.1923 
        1.83797         229.367         26.6417 
        1.85367         225.096         26.1095 
        1.86928         221.651         25.5951 
        1.88497         218.551         25.0919 
        1.90073         216.428         24.6004 
        1.91647         212.519         24.1226 
        1.93218         209.353         23.6585 
        1.94787         205.596         23.2074 
        1.96363         204.119         22.7664 
        1.97935         198.541         22.3377 
        1.99499          197.28         21.9226 
        2.01064          192.52         21.5175 
         2.0264         190.365         21.1201 
        2.04216         188.003         20.7331 
        2.05781         184.465         20.3582 
        2.07353         183.275         19.9913 
        2.08928           179.8         19.6326 
        2.10499         178.344         19.2838 
        2.12065         175.417         18.9446 
        2.13633         172.596         18.6132 
        2.15211         169.598         18.2877 
        2.16785         167.961         17.9709 
        2.18349         164.821         17.6637 
        2.19916         164.026          17.363 
        2.21489         160.899         17.0683 
        2.23063         159.177         16.7804 
         2.2463         156.396         16.5004 
        2.26194         154.183         16.2275 
        2.27765         152.877         15.9594 
        2.29341         150.374         15.6967 
        2.30914         148.376         15.4405 
        2.32486         146.941         15.1901 
        2.34061         144.193          14.945 
        2.35635         142.204         14.7055 
        2.37203         141.103         14.4721 
        2.38768         138.746         14.2442 
        2.40339         136.414         14.0205 
        2.41914          135.37         13.8011 
        2.43483         133.676         13.5871 
         2.4505         131.818         13.3781 
        2.46622         129.929         13.1728 
        2.48195         128.218         12.9718 
        2.49759         126.761         12.7761 
        2.51328         124.442         12.5839 
        2.52906         123.205         12.3945 
        2.54479          121.62         12.2097 
        2.56049         120.195          12.029 
        2.57618         118.549         11.8522 
        2.59189          117.61         11.6787 
        2.60758         116.557         11.5089 
        2.62325         114.567         11.3427 
        2.63898         112.827         11.1793 
        2.65468         111.881         11.0194 
        2.67044         110.781          10.862 
        2.68618         108.703          10.708 
        2.70184         107.839         10.5577 
        2.71755          106.24         10.4098 
        2.73329         105.148         10.2646 
        2.74897          103.36         10.1227 
        2.76462         102.379         9.98371 
        2.78034         101.291          9.8468 
        2.79607         100.045         9.71233 
        2.81179         98.7395         9.58053 
        2.82749         97.6147         9.45134 
        2.84321         96.4453         9.32439 
        2.85893         95.4998         9.19982 
        2.87462         94.0821         9.07775 
        2.89033         93.2061          8.9578 
        2.90605         91.7869         8.83991 
        2.92176          90.721         8.72421 
        2.93747         89.8541         8.61066 
        2.95318         89.1042          8.4991 
        2.96891         87.8883         8.38948 
        2.98456         86.8443         8.28229 
        3.00023         85.8901         8.17682 
        3.01596         84.9057         8.07287 
        3.03164         83.9903         7.97102 
        3.04738         83.0106         7.87065 
         3.0631         82.1924         7.77204 
        3.07883           81.29         7.67512 
        3.09456         80.2627         7.57988 
        3.11026          79.251          7.4864 
        3.12596         78.2247         7.39452 
        3.14163         77.0777          7.3044 
        3.15734         76.5805         7.21558 
        3.17308         75.6526         7.12802 
        3.18879         74.8787         7.04216 
        3.20447         74.0447         6.95785 
         3.2202         73.3128         6.87466 
         3.2359         72.6094         6.79298 
        3.25157         71.7803         6.71283 
        3.26729         70.8725         6.63373 
        3.28304         70.3943         6.55576 
        3.29877         69.3756         6.47915 
        3.31446         68.7171         6.40393 
        3.33014         68.0968         6.32998 
        3.34585         67.2649         6.25709 
        3.36158         66.4987         6.18524 
        3.37727         65.8175         6.11474 
        3.39294         65.1541         6.04542 
        3.40867         64.4329         5.97692 
        3.42439         63.6207         5.90953 
        3.44008         62.8262         5.84331 
        3.45578         62.4714         5.77806 
        3.47153         61.6396         5.71366 
        3.48724         61.0472         5.65037 
        3.50292         60.5246         5.58818 
        3.51859         59.8811         5.52696 
        3.53431         59.2925         5.46647 
        3.55007         58.6232         5.40674 
        3.56577         57.9654         5.34815 
        3.58146          57.482         5.29044 
        3.59719         56.9486         5.23346 
        3.61292         56.3824         5.17735 
        3.62859         55.6333         5.12227 
        3.64429         55.3159         5.06788 
        3.66003         54.7013         5.01413 
        3.67578         54.0155         4.96117 
        3.69146         53.6718         4.90918 
        3.70712         52.9718         4.85804 
        3.72284         52.5333         4.80743 
        3.73853         51.9698         4.75764 
        3.75422         51.5808         4.70854 
        3.76993         50.9664         4.66009 
        3.78564         50.4804         4.61234 
        3.80137         50.0404         4.56518 
        3.81707          49.596         4.51879 
        3.83279         48.9715           4.473 
        3.84853         48.6806         4.42778 
        3.86424         48.1008         4.38328 
        3.87992         47.5524         4.33945 
        3.89561         47.3166         4.29622 
        3.91134         46.8123          4.2535 
        3.92704          46.373          4.2114 
        3.94273         45.7489         4.16992 
        3.95845         45.3598         4.12893 
        3.97418         44.9749         4.08848 
        3.98988         44.6405         4.04862 
        4.00554         44.0644         4.00941 
        4.02125         43.7185         3.97061 
        4.03698         43.2976         3.93226 
        4.05268         42.9851         3.89451 
        4.06839         42.5626         3.85723 
         4.0841         42.1468         3.82044 
        4.09983         41.7111         3.78409 
        4.11555         41.3914         3.74823 
        4.13124         40.9759         3.71293 
        4.14693          40.499         3.67806 
        4.16266         40.2251         3.64355 
        4.17839         39.8568         3.60951 
        4.19408         39.4587         3.57599 
        4.20977         39.1397         3.54288 
        4.22551         38.7425          3.5101 
        4.24123         38.4319         3.47778 
        4.25691         38.0467         3.44596 
        4.27259         37.7769         3.41452 
        4.28831         37.3907         3.38341 
        4.30404         37.2067         3.35266 
        4.31974         36.7798         3.32237 
        4.33543          36.387         3.29246 
        4.35116         36.0875         3.26286 
        4.36688          35.718         3.23363 
        4.38255         35.4734         3.20486 
        4.39825         35.0588         3.17639 
        4.41398         34.7359         3.14821 
         4.4297         34.5546          3.1204 
        4.44541         34.1661         3.09293 
        4.46111         33.8263         3.06581 
        4.47683         33.5864           3.039 
        4.49251         33.3213         3.01257 
        4.50819         33.0677         2.98646 
         4.5239         32.7588         2.96062 
        4.53962         32.4392         2.93505 
        4.55535         32.1523         2.90978 
        4.57106         31.9812         2.88484 
        4.58678         31.6497         2.86019 
         4.6025         31.3494         2.83582 
        4.61821         31.0603         2.81174 
        4.63391         30.7957         2.78798 
         4.6496         30.6032          2.7645 
        4.66532          30.277         2.74125 
        4.68103         30.0326         2.71828 
        4.69673         29.8143          2.6956 
        4.71241         29.5602          2.6732 
        4.72811         29.2839         2.65101 
        4.74384         29.0417         2.62906 
        4.75955         28.8382         2.60738 
        4.77525         28.5104         2.58596 
        4.79096         28.3501         2.56476 
        4.80669         28.0812         2.54378 
         4.8224         27.9036         2.52307 
        4.83809         27.6584         2.50261 
        4.85379         27.4591         2.48236 
         4.8695         27.2114         2.46232 
        4.88521         26.9146         2.44251 
        4.90093         26.6988         2.42292 
        4.91663          26.515         2.40356 
        4.93234         26.2649         2.38439 
        4.94807         26.0927         2.36542 
        4.96377         25.8693         2.34669 
        4.97943         25.6528          2.3282 
        4.99514          25.434         2.30987 
        5.01086         25.2612         2.29172 
        5.02654         25.0392         2.27381 
        5.04227         24.7759         2.25604 
          5.058         24.6206         2.23846 
        5.07371         24.4327         2.22109 
        5.08942         24.2221         2.20391 
        5.10513         24.0322         2.18691 
        5.12084         23.8823         2.17008 
        5.13656         23.6774         2.15343 
        5.15225         23.5223         2.13698 
        5.16796         23.2859         2.12068 
        5.18369         23.1209         2.10454 
         5.1994         22.9725         2.08859 
        5.21509         22.7511         2.07283 
        5.23079         22.5324         2.05721 
        5.24649         22.3926         2.04176 
        5.26217         22.2216         2.02648 
        5.27788         22.0206         2.01134 
        5.29359         21.8701         1.99635 
        5.30933         21.6899         1.98149 
        5.32504          21.514         1.96681 
        5.34073         21.3594         1.95229 
        5.35646         21.2114         1.93789 
        5.37218         21.0578         1.92363 
        5.38789         20.8687         1.90954 
        5.40357         20.6896         1.89561 
        5.41929         20.5745         1.88179 
        5.43502         20.3982          1.8681 
         5.4507         20.2572         1.85459 
        5.46639          20.089          1.8412 
        5.48212         19.9391         1.82792 
        5.49786         19.7786         1.81475 
        5.51353          19.612         1.80178 
        5.52921         19.4955         1.78892 
        5.54495         19.3682         1.77615 
        5.56066         19.2307         1.76351 
        5.57637         19.0367         1.75101 
        5.59207         18.9032         1.73863 
        5.60778         18.7494         1.72637 
        5.62346         18.6543         1.71425 
        5.63916         18.4609         1.70223 
        5.65487         18.3316         1.69032 
         5.6706         18.2558         1.67852 
        5.68633         18.0983         1.66682 
        5.70203         17.9557         1.65525 
        5.71773         17.8095          1.6438 
        5.73344         17.6687         1.63245 
        5.74916         17.5538          1.6212 
        5.76486         17.4059         1.61007 
        5.78054         17.3158         1.59906 
        5.79626         17.1767         1.58812 
          5.812         17.0336         1.57728 
         5.8277          16.928         1.56657 
        5.84339         16.7735         1.55596 
        5.85911         16.6647         1.54542 
        5.87484         16.6001         1.53499 
        5.89053           16.43         1.52467 
        5.90623         16.2995         1.51445 
        5.92195         16.1675          1.5043 
        5.93767         16.0527         1.49425 
        5.95336         15.9451          1.4843 
        5.96905         15.8314         1.47446 
        5.98476         15.7139         1.46468 
        6.00048         15.6071           1.455 
        6.01617         15.5049         1.44541 
        6.03185         15.3801         1.43592 
        6.04756         15.2872          1.4265 
        6.06331          15.169         1.41714 
        6.07903         15.0718         1.40788 
        6.09473         14.9468         1.39872 
        6.11044         14.8598         1.38963 
        6.12616          14.754         1.38062 
        6.14186         14.6408          1.3717 
        6.15755         14.5569         1.36286 
        6.17326         14.4543         1.35409 
        6.18898         14.3442         1.34539 
        6.20467         14.2523         1.33679 
        6.22036         14.1234         1.32826 
         6.2361         14.0579         1.31979 
         6.2518         13.9335          1.3114 
        6.26748         13.8383          1.3031 
        6.28319          13.758         1.29486 
        6.29893          13.678         1.28667 
        6.31463           13.59         1.27858 
        6.33033         13.4844         1.27055 
        6.34604         13.3997         1.26259 
        6.36177         13.2891         1.25469 
        6.37747         13.2036         1.24687 
