# k  (h/Mpc)    Pcb(k)  (Mpc/h)^3    Pcb_linear(k) (Mpc/h)^3   ShotnoiseSubtracted = true
      0.0200456            6359          6474.4 
      0.0350414         4878.07         4992.44 
      0.0492313         3776.53         3799.91 
      0.0637834         3252.29         3207.52 
      0.0800726         2581.97          2549.9 
       0.096163         1860.73         1897.41 
       0.111083          1514.5         1560.38 
       0.126058         1393.09         1385.58 
       0.142273          1187.1         1158.62 
       0.158546         983.601         929.576 
        0.17375          813.25         804.988 
       0.188953         774.149         729.073 
       0.204907         719.406         636.153 
       0.220756         608.129         542.266 
        0.23588         538.558         481.594 
         0.2514         476.764         439.483 
       0.267535         452.969         393.706 
       0.283568         411.071         347.881 
       0.299022          381.19         314.246 
       0.314451         351.971         288.848 
       0.330372         326.178         263.692 
       0.346141         294.859         239.278 
       0.361624          281.18         219.159 
       0.377134         264.927         202.764 
       0.392932         244.244         187.424 
       0.408854         234.674         172.698 
       0.424564          225.34          159.83 
       0.440253         212.679         148.793 
       0.455999         200.823         138.756 
       0.471626         185.471         129.424 
        0.48727         181.112         120.928 
       0.502856         173.586         113.376 
       0.518488         169.384         106.485 
       0.534347         161.493         100.003 
       0.550082         150.138          94.076 
       0.565732         145.439         88.7057 
       0.581496         139.306         83.7392 
       0.597222         135.129         79.1464 
       0.612804         128.801         74.9244 
       0.628434         126.189         71.0074 
       0.644267         121.963         67.3389 
       0.660051         119.179         63.9423 
       0.675724         115.495         60.8005 
       0.691403         112.053         57.8684 
       0.707174         107.937         55.1142 
       0.722871         105.904         52.5512 
        0.73838         103.802         50.1795 
       0.754018         98.9651          47.937 
       0.769845         97.0838         45.8079 
        0.78569         94.7188         43.8069 
       0.801365         91.8502         41.9459 
       0.817031         88.9206         40.1953 
       0.832809         87.8616         38.5344 
       0.848511         84.4304         36.9757 
       0.864097         82.1369         35.5147 
       0.879701         81.4319         34.1319 
       0.895507         79.6657         32.8071 
       0.911279         78.3983          31.556 
        0.92691         76.1111         30.3811 
       0.942635         74.0116         29.2601 
       0.958396         73.6231         28.1937 
       0.974128          71.753         27.1829 
       0.989692         70.1132         26.2321 
        1.00528         68.8491         25.3257 
        1.02113         67.1584         24.4483 
        1.03692         65.6458          23.616 
        1.05264         65.0286         22.8266 
        1.06832         63.5871         22.0748 
        1.08405         62.7526         21.3552 
        1.09979         61.8151         20.6675 
        1.11537         59.5784         20.0171 
        1.13105         59.8764          19.391 
        1.14679         58.7367         18.7895 
        1.16256         57.5664         18.2126 
        1.17828         56.1537         17.6619 
        1.19395         55.6462         17.1361 
         1.2097         54.5323         16.6291 
        1.22537         54.2126         16.1453 
          1.241         52.9122         15.6823 
        1.25666         51.8096         15.2364 
        1.27241          51.504          14.806 
        1.28819          50.156         14.3915 
        1.30392         49.4311         13.9943 
        1.31957         49.1146         13.6139 
        1.33529         48.5198         13.2463 
        1.35108          47.863          12.891 
        1.36674         47.0159         12.5513 
         1.3824         45.9229         12.2243 
        1.39811         45.7537         11.9079 
        1.41389         44.9766         11.6016 
        1.42964         44.2707         11.3067 
        1.44531          43.827         11.0235 
        1.46101         42.7228         10.7495 
        1.47667         42.6744         10.4856 
        1.49229         42.2874         10.2314 
        1.50793         41.3621         9.98542 
        1.52367          40.952         9.74596 
        1.53953         40.5727         9.51281 
        1.55526         39.8523         9.28919 
        1.57092         39.4709         9.07373 
        1.58662         38.9142         8.86464 
        1.60235         38.4824         8.66177 
        1.61809         37.8361         8.46519 
        1.63369         37.3157         8.27649 
        1.64941         36.7397         8.09223 
        1.66519          36.425         7.91295 
        1.68085          36.056         7.74041 
        1.69652          35.612         7.57299 
        1.71228         35.3281         7.40961 
        1.72806         34.7229         7.25094 
        1.74368         34.2881         7.09854 
        1.75933         33.8708         6.95024 
        1.77505         33.6185         6.80551 
        1.79081         33.0546         6.66467 
         1.8065         32.7229         6.52844 
        1.82218          32.394         6.39616 
        1.83797          31.974         6.26665 
        1.85367         31.5431         6.14147 
        1.86928         31.2339         6.02048 
        1.88497         30.7351         5.90211 
        1.90073          30.697          5.7865 
        1.91647         30.1743          5.6741 
        1.93218         29.8763         5.56495 
        1.94787         29.5923         5.45884 
        1.96363         29.3537          5.3551 
        1.97935         28.9728         5.25427 
        1.99499          28.585         5.15663 
        2.01064          28.328         5.06134 
         2.0264         27.8754         4.96787 
        2.04216         27.5646         4.87682 
        2.05781         27.3822         4.78864 
        2.07353         27.0519         4.70234 
        2.08928         26.9755         4.61799 
        2.10499         26.6028         4.53594 
        2.12065         26.1506         4.45614 
        2.13633         25.9899          4.3782 
        2.15211         25.5187         4.30163 
        2.16785         25.3926         4.22712 
        2.18349         25.2284         4.15484 
        2.19916         24.8868         4.08412 
        2.21489         24.5636         4.01481 
        2.23063         24.4033         3.94707 
         2.2463         24.2202         3.88121 
        2.26194         23.9541         3.81702 
        2.27765         23.6371         3.75396 
        2.29341          23.327         3.69217 
        2.30914         23.2405         3.63191 
        2.32486         22.9729         3.57302 
        2.34061         22.6896         3.51536 
        2.35635         22.3869         3.45902 
        2.37203         22.2587         3.40412 
        2.38768         22.0528         3.35052 
        2.40339         21.8792          3.2979 
        2.41914         21.6084         3.24628 
        2.43483         21.3445         3.19596 
         2.4505         21.1362          3.1468 
        2.46622         20.9131          3.0985 
        2.48195         20.7023         3.05122 
        2.49759         20.4949         3.00518 
        2.51328         20.2972         2.95998 
        2.52906          20.143         2.91542 
        2.54479         19.8978         2.87195 
        2.56049         19.6585         2.82946 
        2.57618         19.5329         2.78787 
        2.59189         19.3674         2.74705 
        2.60758         19.2085         2.70712 
        2.62325         19.0087         2.66803 
        2.63898         18.8474         2.62959 
        2.65468         18.7057         2.59198 
        2.67044         18.4472         2.55495 
        2.68618         18.3138         2.51874 
        2.70184         18.1352         2.48337 
        2.71755         17.9137          2.4486 
        2.73329         17.7804         2.41444 
        2.74897         17.5374         2.38105 
        2.76462          17.602         2.34837 
        2.78034         17.3219         2.31616 
        2.79607         17.1317         2.28453 
        2.81179         17.0184         2.25353 
        2.82749         16.8842         2.22314 
        2.84321         16.6865         2.19328 
        2.85893          16.536         2.16398 
        2.87462         16.3632         2.13527 
        2.89033         16.1994         2.10705 
        2.90605         16.0884         2.07932 
        2.92176         15.8894         2.05211 
        2.93747         15.7733          2.0254 
        2.95318         15.6323         1.99916 
        2.96891         15.4416         1.97337 
        2.98456         15.3398         1.94816 
        3.00023         15.2386         1.92335 
        3.01596         15.0798          1.8989 
        3.03164         14.9504         1.87494 
        3.04738         14.7754         1.85133 
         3.0631         14.6722         1.82814 
        3.07883         14.5118         1.80534 
        3.09456         14.3991         1.78294 
        3.11026         14.2473         1.76095 
        3.12596         14.1144         1.73934 
        3.14163         14.0489         1.71814 
        3.15734         13.8627         1.69725 
        3.17308         13.7593         1.67665 
        3.18879         13.6507         1.65646 
        3.20447         13.5111         1.63662 
         3.2202         13.3977         1.61706 
         3.2359         13.2945         1.59784 
        3.25157         13.2046         1.57899 
        3.26729         13.0149         1.56039 
        3.28304         12.9408         1.54204 
        3.29877         12.8145         1.52402 
        3.31446         12.7037         1.50633 
        3.33014         12.5558         1.48894 
        3.34585         12.4852         1.47179 
        3.36158         12.3837         1.45489 
        3.37727         12.2711         1.43831 
        3.39294         12.1771           1.422 
        3.40867         12.0173         1.40589 
        3.42439         11.9528         1.39004 
        3.44008         11.8593         1.37446 
        3.45578         11.7736         1.35911 
        3.47153         11.6647         1.34397 
        3.48724         11.5671         1.32908 
        3.50292          11.419         1.31445 
        3.51859         11.3684         1.30005 
        3.53431         11.2697         1.28582 
        3.55007         11.1845         1.27177 
        3.56577         11.0843         1.25799 
        3.58146         11.0043         1.24442 
        3.59719         10.8709         1.23101 
        3.61292         10.8064         1.21781 
        3.62859         10.6779         1.20486 
        3.64429         10.6127         1.19207 
        3.66003         10.5182         1.17942 
        3.67578         10.4225         1.16697 
        3.69146          10.349         1.15474 
        3.70712          10.258         1.14271 
        3.72284         10.1735          1.1308 
        3.73853         10.1021         1.11909 
        3.75422         10.0236         1.10754 
        3.76993         9.91604         1.09614 
        3.78564         9.81605         1.08491 
        3.80137         9.76954         1.07382 
        3.81707         9.66676         1.06291 
        3.83279         9.59805         1.05214 
        3.84853          9.5154          1.0415 
        3.86424          9.4325         1.03103 
        3.87992         9.34996         1.02072 
        3.89561         9.29603         1.01056 
        3.91134         9.23371         1.00051 
        3.92704         9.13969        0.990605 
        3.94273         9.08032        0.980848 
        3.95845         8.99881        0.971205 
        3.97418         8.90679         0.96169 
        3.98988         8.85025        0.952316 
        4.00554         8.76344        0.943093 
        4.02125         8.71047        0.933966 
        4.03698         8.63272        0.924946 
        4.05268         8.58127        0.916066 
        4.06839         8.47934        0.907296 
         4.0841         8.43203        0.898644 
        4.09983         8.37087        0.890093 
        4.11555         8.30146        0.881658 
        4.13124         8.22199        0.873355 
        4.14693         8.14664        0.865152 
        4.16266         8.10328        0.857036 
        4.17839         8.03858        0.849029 
        4.19408         7.97022        0.841143 
        4.20977         7.90349        0.833354 
        4.22551         7.84639        0.825646 
        4.24123         7.78237        0.818043 
        4.25691         7.71917        0.810557 
        4.27259         7.66101        0.803162 
        4.28831         7.60352        0.795845 
        4.30404         7.53678        0.788613 
        4.31974          7.4652        0.781487 
        4.33543         7.39482        0.774453 
        4.35116         7.36431        0.767488 
        4.36688         7.31328        0.760613 
        4.38255         7.24009        0.753847 
        4.39825         7.16776         0.74715 
        4.41398         7.14391         0.74052 
         4.4297         7.07552        0.733979 
        4.44541          7.0179        0.727518 
        4.46111         6.97731        0.721139 
        4.47683         6.90029        0.714833 
        4.49251         6.87903        0.708615 
        4.50819         6.81634        0.702474 
         4.5239         6.76006        0.696396 
        4.53962         6.70827        0.690383 
        4.55535         6.65881        0.684438 
        4.57106         6.59785        0.678572 
        4.58678         6.54876        0.672774 
         4.6025         6.50496        0.667042 
        4.61821         6.44342        0.661378 
        4.63391         6.40158        0.655787 
         4.6496         6.34894        0.650264 
        4.66532         6.31618        0.644796 
        4.68103         6.24481        0.639393 
        4.69673         6.21573        0.634058 
        4.71241         6.17074        0.628789 
        4.72811         6.09979        0.623571 
        4.74384         6.06994        0.618406 
        4.75955         6.01232        0.613307 
        4.77525         5.99366        0.608269 
        4.79096         5.93506        0.603282 
        4.80669         5.89511        0.598348 
         4.8224         5.86296        0.593476 
        4.83809         5.80066        0.588662 
        4.85379         5.75237          0.5839 
         4.8695          5.7164        0.579186 
        4.88521          5.6706        0.574527 
        4.90093          5.6284        0.569918 
        4.91663         5.59464        0.565364 
        4.93234         5.55422        0.560856 
        4.94807         5.51307        0.556393 
        4.96377          5.4778        0.551988 
        4.97943         5.43222        0.547639 
        4.99514         5.39237        0.543327 
        5.01086         5.34651        0.539058 
        5.02654         5.31851        0.534845 
        5.04227         5.26729        0.530666 
          5.058          5.2383        0.526529 
        5.07371         5.19959        0.522445 
        5.08942          5.1647        0.518403 
        5.10513          5.1344        0.514404 
        5.12084         5.10798        0.510445 
        5.13656         5.06625        0.506529 
        5.15225         5.03187        0.502661 
        5.16796         4.99169        0.498827 
        5.18369         4.95159        0.495029 
         5.1994         4.92382        0.491279 
        5.21509         4.89175         0.48757 
        5.23079          4.8568        0.483896 
        5.24649         4.81705        0.480262 
        5.26217         4.78612        0.476668 
        5.27788         4.74708        0.473106 
        5.29359         4.72024         0.46958 
        5.30933          4.6911        0.466085 
        5.32504         4.66375        0.462632 
        5.34073         4.61799        0.459217 
        5.35646         4.58282         0.45583 
        5.37218         4.55601        0.452477 
        5.38789         4.52775        0.449163 
        5.40357         4.48332        0.445886 
        5.41929         4.46834        0.442634 
        5.43502         4.44237        0.439415 
         5.4507         4.40065        0.436235 
        5.46639         4.36791        0.433087 
        5.48212         4.33944        0.429962 
        5.49786         4.31202        0.426865 
        5.51353         4.28505        0.423813 
        5.52921          4.2546        0.420788 
        5.54495          4.2262        0.417785 
        5.56066         4.19743        0.414813 
        5.57637         4.17316        0.411871 
        5.59207         4.14382        0.408961 
        5.60778          4.1179        0.406077 
        5.62346         4.08554        0.403226 
        5.63916         4.06085        0.400399 
        5.65487         4.02788        0.397598 
         5.6706         3.99944         0.39482 
        5.68633         3.98346        0.392068 
        5.70203         3.95544        0.389348 
        5.71773         3.93599        0.386654 
        5.73344         3.90986        0.383985 
        5.74916         3.87523        0.381338 
        5.76486           3.851         0.37872 
        5.78054         3.82752         0.37613 
        5.79626         3.80327        0.373558 
          5.812         3.78029        0.371007 
         5.8277         3.76095        0.368488 
        5.84339         3.73228        0.365992 
        5.85911         3.71322        0.363514 
        5.87484         3.68705         0.36106 
        5.89053         3.67014        0.358633 
        5.90623         3.63516        0.356228 
        5.92195         3.61693         0.35384 
        5.93767          3.5981        0.351476 
        5.95336         3.57173        0.349138 
        5.96905         3.54209        0.346821 
        5.98476         3.52398        0.344523 
        6.00048         3.49998        0.342244 
        6.01617         3.48637        0.339989 
        6.03185         3.45722        0.337758 
        6.04756         3.44885        0.335541 
        6.06331         3.41809        0.333339 
        6.07903         3.39851        0.331162 
        6.09473         3.37795        0.329006 
        6.11044         3.35399        0.326868 
        6.12616         3.33437        0.324749 
        6.14186         3.31084        0.322651 
        6.15755         3.29568        0.320571 
        6.17326         3.27813        0.318509 
        6.18898         3.25447        0.316463 
        6.20467          3.2327         0.31444 
        6.22036         3.21667        0.312434 
         6.2361         3.19553         0.31044 
         6.2518         3.18043        0.308467 
        6.26748         3.15913        0.306516 
        6.28319         3.14102        0.304576 
        6.29893         3.11638        0.302651 
        6.31463         3.10537        0.300747 
        6.33033         3.08113        0.298859 
        6.34604         3.05926        0.296986 
        6.36177         3.04191        0.295127 
        6.37747         3.02897        0.293288 
