# k  (h/Mpc)    Pcb(k)  (Mpc/h)^3    Pcb_linear(k) (Mpc/h)^3   ShotnoiseSubtracted = true
      0.0200456         12344.2           12540 
      0.0350414         9896.12         9669.67 
      0.0492313         7248.31         7359.91 
      0.0637834          5946.7         6212.53 
      0.0800726         4693.63         4938.81 
       0.096163         3760.91         3675.02 
       0.111083         3142.37         3022.24 
       0.126058         2619.25         2683.68 
       0.142273          2247.2         2244.09 
       0.158546         1866.86         1800.46 
        0.17375         1666.62         1559.15 
       0.188953         1549.98         1412.11 
       0.204907         1322.32         1232.14 
       0.220756         1190.95         1050.29 
        0.23588         1068.48          932.78 
         0.2514         961.946         851.218 
       0.267535         932.015         762.555 
       0.283568         819.118         673.798 
       0.299022         784.428         608.652 
       0.314451         799.156         559.458 
       0.330372         690.557         510.735 
       0.346141          640.13         463.449 
       0.361624         613.648          424.48 
       0.377134         578.197         392.725 
       0.392932         560.708         363.015 
       0.408854         533.582         334.492 
       0.424564         517.071          309.57 
       0.440253         470.532         288.191 
       0.455999          451.44         268.751 
       0.471626          455.68         250.676 
        0.48727         432.297          234.22 
       0.502856         398.954         219.594 
       0.518488          399.52         206.246 
       0.534347         371.797         193.692 
       0.550082         360.572         182.212 
       0.565732         358.272         171.811 
       0.581496         343.833         162.191 
       0.597222         334.025         153.296 
       0.612804         326.119         145.118 
       0.628434         312.551         137.532 
       0.644267         299.874         130.426 
       0.660051         295.054         123.847 
       0.675724         292.319         117.762 
       0.691403         283.233         112.083 
       0.707174         273.241         106.749 
       0.722871         269.108         101.784 
        0.73838         266.613         97.1907 
       0.754018         253.654         92.8474 
       0.769845         252.349         88.7235 
        0.78569         246.753         84.8479 
       0.801365         240.582         81.2435 
       0.817031         234.128         77.8528 
       0.832809         231.117         74.6358 
       0.848511         225.044         71.6167 
       0.864097         219.788          68.787 
       0.879701         218.358         66.1088 
       0.895507         212.543         63.5429 
       0.911279         206.294         61.1197 
        0.92691          204.16          58.844 
       0.942635         202.009         56.6727 
       0.958396         197.052         54.6073 
       0.974128         192.686         52.6495 
       0.989692          187.25         50.8079 
        1.00528         185.754         49.0524 
        1.02113         182.186         47.3529 
        1.03692         178.888         45.7409 
        1.05264         176.284          44.212 
        1.06832         174.096         42.7559 
        1.08405         169.875         41.3621 
        1.09979         169.043           40.03 
        1.11537         164.896         38.7703 
        1.13105         162.728         37.5577 
        1.14679         160.078         36.3927 
        1.16256         157.837         35.2752 
        1.17828         155.473         34.2087 
        1.19395         151.218         33.1902 
         1.2097          150.79         32.2083 
        1.22537         148.335         31.2712 
          1.241         146.113         30.3744 
        1.25666          142.56         29.5109 
        1.27241         139.427         28.6771 
        1.28819         138.229         27.8744 
        1.30392         135.431          27.105 
        1.31957         133.379         26.3682 
        1.33529         131.924         25.6563 
        1.35108         129.823         24.9681 
        1.36674         127.606         24.3102 
         1.3824         127.039         23.6768 
        1.39811         123.278          23.064 
        1.41389         122.531         22.4707 
        1.42964          119.92         21.8995 
        1.44531         118.569          21.351 
        1.46101         116.552         20.8202 
        1.47667         115.803         20.3092 
        1.49229         114.169         19.8169 
        1.50793         111.997         19.3404 
        1.52367         110.714         18.8766 
        1.53953         108.703          18.425 
        1.55526         107.586         17.9919 
        1.57092          106.42         17.5746 
        1.58662         104.656         17.1696 
        1.60235         102.779         16.7767 
        1.61809         102.046         16.3959 
        1.63369         100.099         16.0304 
        1.64941         99.8903         15.6735 
        1.66519         97.5054         15.3263 
        1.68085         96.4229         14.9921 
        1.69652         94.6706         14.6678 
        1.71228         93.9429         14.3514 
        1.72806         92.4312         14.0441 
        1.74368         90.9555         13.7489 
        1.75933          90.114         13.4617 
        1.77505         89.0042         13.1813 
        1.79081         87.5737         12.9085 
         1.8065         86.6874         12.6447 
        1.82218         85.2202         12.3885 
        1.83797          84.667         12.1376 
        1.85367         83.0402         11.8952 
        1.86928         82.2618         11.6608 
        1.88497         81.3437         11.4316 
        1.90073         80.3234         11.2076 
        1.91647         78.7265           10.99 
        1.93218         77.9174         10.7785 
        1.94787         77.0896          10.573 
        1.96363         75.9604         10.3721 
        1.97935         75.3729         10.1768 
        1.99499         74.2442         9.98768 
        2.01064         73.1884         9.80312 
         2.0264         71.8511         9.62209 
        2.04216         71.3198         9.44574 
        2.05781         70.4381         9.27494 
        2.07353         69.3759         9.10778 
        2.08928         68.5915          8.9444 
        2.10499          67.621         8.78548 
        2.12065         67.1864         8.63092 
        2.13633         66.3935         8.47997 
        2.15211          65.256         8.33167 
        2.16785         64.2332         8.18734 
        2.18349         63.5334         8.04736 
        2.19916         62.7678         7.91037 
        2.21489         61.9353         7.77614 
        2.23063         61.1069         7.64494 
         2.2463         60.5418         7.51737 
        2.26194         59.7929         7.39305 
        2.27765         58.9387         7.27091 
        2.29341         58.1749         7.15123 
        2.30914         57.4359          7.0345 
        2.32486         56.5389         6.92045 
        2.34061         56.2375         6.80876 
        2.35635         55.2979         6.69964 
        2.37203         54.9155          6.5933 
        2.38768          54.089          6.4895 
        2.40339         53.3491         6.38757 
        2.41914         52.8289          6.2876 
        2.43483           52.22         6.19014 
         2.4505         51.6143         6.09491 
        2.46622         50.9711         6.00137 
        2.48195         50.3739         5.90979 
        2.49759         49.7114         5.82062 
        2.51328         49.2832         5.73307 
        2.52906         48.6049         5.64677 
        2.54479         48.0699         5.56258 
        2.56049         47.3125         5.48028 
        2.57618         46.8071         5.39972 
        2.59189         46.4585         5.32066 
        2.60758         45.7172         5.24332 
        2.62325         45.2929         5.16761 
        2.63898         44.7432         5.09315 
        2.65468         44.3927         5.02031 
        2.67044         43.7136         4.94859 
        2.68618         43.4092         4.87845 
        2.70184         42.6859         4.80995 
        2.71755         42.3689          4.7426 
        2.73329         41.7629         4.67644 
        2.74897         41.3871         4.61176 
        2.76462         40.9308         4.54846 
        2.78034         40.3477         4.48609 
        2.79607         39.9337         4.42482 
        2.81179          39.521         4.36478 
        2.82749         39.1132         4.30592 
        2.84321         38.6685         4.24808 
        2.85893         38.1919         4.19133 
        2.87462         37.6387         4.13572 
        2.89033         37.3908         4.08107 
        2.90605         36.8421         4.02736 
        2.92176         36.5362         3.97465 
        2.93747         36.2206         3.92291 
        2.95318         35.8834         3.87209 
        2.96891          35.453         3.82215 
        2.98456         35.0484         3.77331 
        3.00023         34.6273         3.72526 
        3.01596         34.2827          3.6779 
        3.03164         33.8736          3.6315 
        3.04738         33.5677         3.58577 
         3.0631         33.3332         3.54085 
        3.07883         32.8846         3.49669 
        3.09456         32.4033          3.4533 
        3.11026         32.0826         3.41072 
        3.12596         31.7556         3.36886 
        3.14163         31.4046          3.3278 
        3.15734         31.1317         3.28733 
        3.17308         30.8303         3.24744 
        3.18879         30.4594         3.20833 
        3.20447         30.1804         3.16991 
         3.2202          29.839         3.13201 
         3.2359         29.4787          3.0948 
        3.25157         29.3249         3.05829 
        3.26729         28.9421         3.02225 
        3.28304         28.6114         2.98673 
        3.29877         28.2456         2.95182 
        3.31446          27.986         2.91756 
        3.33014         27.6916         2.88387 
        3.34585           27.45         2.85066 
        3.36158         27.1572         2.81792 
        3.37727         26.9305         2.78581 
        3.39294         26.6456         2.75422 
        3.40867         26.3223         2.72302 
        3.42439         26.1278         2.69231 
        3.44008          25.848         2.66214 
        3.45578         25.6387         2.63242 
        3.47153         25.3526         2.60308 
        3.48724         25.0457         2.57424 
        3.50292         24.8277         2.54591 
        3.51859         24.5268         2.51802 
        3.53431          24.227         2.49046 
        3.55007         24.0462         2.46325 
        3.56577         23.7991         2.43655 
        3.58146         23.5792         2.41026 
        3.59719          23.433         2.38431 
        3.61292         23.1254         2.35874 
        3.62859         22.9473         2.33364 
        3.64429         22.6246         2.30887 
        3.66003         22.4832         2.28438 
        3.67578         22.2816         2.26025 
        3.69146         22.1136         2.23657 
        3.70712         21.8186         2.21327 
        3.72284         21.6361         2.19021 
        3.73853         21.4105         2.16753 
        3.75422         21.1285         2.14515 
        3.76993         20.9854         2.12308 
        3.78564         20.7948         2.10133 
        3.80137         20.5964         2.07984 
        3.81707         20.4428         2.05871 
        3.83279         20.2206         2.03785 
        3.84853         20.0288         2.01725 
        3.86424         19.8144         1.99697 
        3.87992         19.5927           1.977 
        3.89561         19.5117         1.95731 
        3.91134         19.2547         1.93784 
        3.92704         19.0804         1.91867 
        3.94273         18.9385         1.89977 
        3.95845          18.735         1.88109 
        3.97418         18.5098         1.86266 
        3.98988          18.427         1.84451 
        4.00554         18.2849         1.82664 
        4.02125         18.0619         1.80896 
        4.03698           17.89         1.79149 
        4.05268         17.7535         1.77429 
        4.06839         17.5689         1.75731 
         4.0841         17.4018         1.74055 
        4.09983          17.191         1.72399 
        4.11555         17.0772         1.70765 
        4.13124         16.9426         1.69157 
        4.14693         16.7849         1.67568 
        4.16266         16.7136         1.65996 
        4.17839         16.5038         1.64445 
        4.19408         16.2808         1.62918 
        4.20977         16.1812         1.61409 
        4.22551         16.0216         1.59916 
        4.24123         15.9044         1.58444 
        4.25691         15.7271         1.56994 
        4.27259         15.6229         1.55561 
        4.28831         15.4697         1.54144 
        4.30404         15.3397         1.52743 
        4.31974         15.2595         1.51363 
        4.33543          15.072         1.50001 
        4.35116         14.9311         1.48652 
        4.36688         14.8056          1.4732 
        4.38255         14.6728          1.4601 
        4.39825         14.5361         1.44713 
        4.41398         14.4321         1.43429 
         4.4297         14.3044         1.42162 
        4.44541         14.1438          1.4091 
        4.46111         14.0674         1.39675 
        4.47683         13.9015         1.38453 
        4.49251         13.7919         1.37249 
        4.50819         13.6886         1.36059 
         4.5239         13.5831         1.34882 
        4.53962         13.4435         1.33718 
        4.55535         13.3283         1.32566 
        4.57106         13.2418          1.3143 
        4.58678         13.1062         1.30307 
         4.6025         12.9949         1.29197 
        4.61821         12.9165           1.281 
        4.63391         12.7941         1.27017 
         4.6496         12.6391         1.25947 
        4.66532         12.5559         1.24888 
        4.68103         12.4727         1.23842 
        4.69673         12.3731         1.22808 
        4.71241         12.2542         1.21788 
        4.72811          12.156         1.20777 
        4.74384         12.0563         1.19777 
        4.75955          11.935         1.18789 
        4.77525         11.8495         1.17813 
        4.79096          11.765         1.16847 
        4.80669         11.6612         1.15892 
         4.8224          11.544         1.14948 
        4.83809         11.4839         1.14016 
        4.85379         11.3722         1.13093 
         4.8695         11.2858          1.1218 
        4.88521         11.1886         1.11278 
        4.90093         11.0886         1.10385 
        4.91663         11.0446         1.09503 
        4.93234         10.9589          1.0863 
        4.94807         10.8412         1.07766 
        4.96377         10.7691         1.06912 
        4.97943         10.7132          1.0607 
        4.99514         10.5792         1.05235 
        5.01086         10.4824         1.04408 
        5.02654         10.3976         1.03592 
        5.04227         10.3351         1.02783 
          5.058         10.2649         1.01981 
        5.07371         10.1767          1.0119 
        5.08942         10.0893         1.00408 
        5.10513         10.0206         0.99633 
        5.12084         9.94005        0.988662 
        5.13656         9.88976        0.981077 
        5.15225         9.77511        0.973585 
        5.16796         9.69595        0.966159 
        5.18369         9.62187        0.958804 
         5.1994          9.5528        0.951539 
        5.21509         9.48875        0.944356 
        5.23079         9.41505        0.937239 
        5.24649         9.33181        0.930201 
        5.26217         9.24841        0.923241 
        5.27788         9.20082        0.916342 
        5.29359         9.13318        0.909512 
        5.30933         9.06419        0.902743 
        5.32504         8.99806        0.896054 
        5.34073         8.91289         0.88944 
        5.35646         8.84854         0.88288 
        5.37218          8.7927        0.876385 
        5.38789         8.74084        0.869966 
        5.40357         8.66203        0.863619 
        5.41929         8.60249        0.857321 
        5.43502         8.54889        0.851086 
         5.4507         8.46909        0.844927 
        5.46639         8.39564        0.838829 
        5.48212         8.34386        0.832777 
        5.49786         8.27994        0.826778 
        5.51353         8.22979        0.820868 
        5.52921         8.16017        0.815009 
        5.54495          8.0879        0.809191 
        5.56066         8.03664        0.803436 
        5.57637           7.969        0.797738 
        5.59207         7.92337        0.792101 
        5.60778          7.8674        0.786516 
        5.62346         7.80113        0.780992 
        5.63916         7.75738        0.775517 
        5.65487         7.69183        0.770092 
         5.6706         7.63657        0.764712 
        5.68633         7.57236        0.759382 
        5.70203         7.51895        0.754113 
        5.71773         7.47976        0.748896 
        5.73344         7.43152        0.743725 
        5.74916         7.38288        0.738599 
        5.76486         7.31327        0.733528 
        5.78054         7.26346        0.728513 
        5.79626         7.20304         0.72353 
          5.812         7.16718         0.71859 
         5.8277         7.11599         0.71371 
        5.84339         7.05827        0.708875 
        5.85911          7.0119        0.704076 
        5.87484         6.95987        0.699323 
        5.89053         6.90569        0.694623 
        5.90623         6.87023        0.689964 
        5.92195         6.82249         0.68534 
        5.93767         6.78206        0.680761 
        5.95336         6.72277        0.676231 
        5.96905         6.67543        0.671745 
        5.98476         6.63531        0.667293 
        6.00048         6.59575         0.66288 
        6.01617         6.54154        0.658512 
        6.03185         6.51087         0.65419 
        6.04756         6.45879        0.649896 
        6.06331         6.41709        0.645632 
        6.07903         6.37318        0.641415 
        6.09473         6.33187         0.63724 
        6.11044         6.28564        0.633098 
        6.12616         6.24384        0.628994 
        6.14186         6.20754         0.62493 
        6.15755         6.15177        0.620903 
        6.17326         6.12467        0.616908 
        6.18898         6.08197        0.612946 
        6.20467         6.03498        0.609026 
        6.22036         5.99825        0.605142 
         6.2361         5.96507         0.60128 
         6.2518         5.91442        0.597459 
        6.26748         5.88036        0.593679 
        6.28319         5.84178        0.589922 
        6.29893         5.79571        0.586194 
        6.31463         5.76428        0.582505 
        6.33033         5.71854        0.578848 
        6.34604         5.68629        0.575221 
        6.36177         5.65971        0.571621 
        6.37747         5.61854        0.568059 
