# k  (h/Mpc)    Pcb(k)  (Mpc/h)^3    Pcb_linear(k) (Mpc/h)^3   ShotnoiseSubtracted = true
      0.0200456         21484.3         22041.9 
      0.0350414         16141.5         16996.6 
      0.0492313         12563.8         12936.7 
      0.0637834         11020.4         10919.9 
      0.0800726         8703.71         8681.08 
       0.096163         6150.84         6459.68 
       0.111083         5053.62         5312.27 
       0.126058         4667.88         4717.19 
       0.142273         4006.97          3944.5 
       0.158546         3564.05         3164.72 
        0.17375            2892         2740.56 
       0.188953         2832.38         2482.11 
       0.204907         2656.43         2165.77 
       0.220756         2319.61         1846.13 
        0.23588         2080.94         1639.57 
         0.2514         1821.84         1496.21 
       0.267535         1830.32         1340.36 
       0.283568         1661.63         1184.35 
       0.299022         1575.12         1069.84 
       0.314451         1502.75         983.375 
       0.330372          1379.1         897.732 
       0.346141         1335.83         814.617 
       0.361624         1282.83          746.12 
       0.377134         1195.03         690.304 
       0.392932          1150.7         638.081 
       0.408854         1129.36         587.945 
       0.424564         1044.15         544.139 
       0.440253         1022.93         506.561 
       0.455999         997.264         472.391 
       0.471626          957.53          440.62 
        0.48727         920.929         411.695 
       0.502856         890.902         385.987 
       0.518488          883.88         362.524 
       0.534347         829.876         340.458 
       0.550082         811.792         320.279 
       0.565732         804.658         301.996 
       0.581496         764.469         285.088 
       0.597222         746.641         269.452 
       0.612804         733.546         255.078 
       0.628434         713.384         241.743 
       0.644267         692.886         229.254 
       0.660051         673.667          217.69 
       0.675724         667.115         206.994 
       0.691403         644.514         197.011 
       0.707174         624.315         187.635 
       0.722871         613.643         178.909 
        0.73838         600.613         170.835 
       0.754018         589.881           163.2 
       0.769845         577.519         155.952 
        0.78569         566.529         149.139 
       0.801365         550.994         142.804 
       0.817031         537.488         136.844 
       0.832809         531.399         131.189 
       0.848511         519.019         125.883 
       0.864097         502.386         120.909 
       0.879701         494.938         116.201 
       0.895507         493.363         111.691 
       0.911279         478.692         107.432 
        0.92691         471.822         103.432 
       0.942635         457.974         99.6152 
       0.958396         445.376         95.9848 
       0.974128         439.313         92.5435 
       0.989692           435.3         89.3064 
        1.00528         421.831         86.2207 
        1.02113         419.894         83.2335 
        1.03692         407.287         80.4001 
        1.05264         402.821         77.7126 
        1.06832         391.954         75.1532 
        1.08405         387.636         72.7032 
        1.09979         380.795         70.3619 
        1.11537         372.032         68.1476 
        1.13105         366.537         66.0162 
        1.14679         357.249         63.9685 
        1.16256         347.166         62.0042 
        1.17828         347.905         60.1296 
        1.19395         338.905         58.3393 
         1.2097         331.844         56.6134 
        1.22537         324.687         54.9662 
          1.241         320.471           53.39 
        1.25666         315.315         51.8721 
        1.27241         309.789         50.4066 
        1.28819         303.853         48.9956 
        1.30392         297.585         47.6431 
        1.31957         294.429         46.3481 
        1.33529         289.833         45.0968 
        1.35108         283.452         43.8871 
        1.36674         277.422         42.7307 
         1.3824         275.055         41.6174 
        1.39811          269.74         40.5403 
        1.41389         266.585         39.4974 
        1.42964         262.993         38.4933 
        1.44531         258.476         37.5292 
        1.46101         252.571         36.5963 
        1.47667         249.809         35.6981 
        1.49229         246.018         34.8326 
        1.50793         239.716         33.9951 
        1.52367         237.898         33.1799 
        1.53953         233.486         32.3861 
        1.55526         228.824         31.6248 
        1.57092         227.174         30.8913 
        1.58662         223.927         30.1794 
        1.60235         219.195         29.4888 
        1.61809         216.014         28.8195 
        1.63369         213.509         28.1771 
        1.64941         209.371         27.5498 
        1.66519         206.436         26.9394 
        1.68085         204.313          26.352 
        1.69652         200.058         25.7821 
        1.71228         195.366         25.2258 
        1.72806         192.963         24.6857 
        1.74368         190.101         24.1668 
        1.75933         186.829         23.6619 
        1.77505         185.368         23.1692 
        1.79081         182.563         22.6897 
         1.8065         178.907         22.2259 
        1.82218         176.699         21.7756 
        1.83797         175.542         21.3347 
        1.85367         171.752         20.9085 
        1.86928         168.626         20.4966 
        1.88497          166.27         20.0936 
        1.90073         164.189            19.7 
        1.91647         162.229         19.3173 
        1.93218         159.445         18.9457 
        1.94787          155.95         18.5845 
        1.96363         153.884         18.2313 
        1.97935         152.848          17.888 
        1.99499         150.213         17.5556 
        2.01064         148.169         17.2312 
         2.0264         146.805          16.913 
        2.04216         144.424          16.603 
        2.05781         141.838         16.3028 
        2.07353         139.872          16.009 
        2.08928         137.875         15.7218 
        2.10499         136.186         15.4425 
        2.12065         133.993         15.1708 
        2.13633         132.407         14.9055 
        2.15211         130.032         14.6448 
        2.16785         128.803         14.3911 
        2.18349         127.016         14.1451 
        2.19916         125.345         13.9043 
        2.21489         124.003         13.6683 
        2.23063         121.989         13.4377 
         2.2463         119.498         13.2135 
        2.26194         118.163          12.995 
        2.27765         116.927         12.7803 
        2.29341         115.735         12.5699 
        2.30914         113.936         12.3647 
        2.32486         112.337         12.1643 
        2.34061         110.647         11.9679 
        2.35635         109.196         11.7761 
        2.37203         108.175         11.5892 
        2.38768         106.551         11.4068 
        2.40339          105.01         11.2276 
        2.41914          103.62         11.0519 
        2.43483         102.512         10.8806 
         2.4505         101.257         10.7132 
        2.46622         99.7566         10.5488 
        2.48195         98.2032         10.3878 
        2.49759         96.8631         10.2311 
        2.51328         96.1169         10.0772 
        2.52906         94.7144         9.92549 
        2.54479          93.489          9.7775 
        2.56049         92.3652         9.63283 
        2.57618         91.0457         9.49123 
        2.59189         90.4798         9.35227 
        2.60758         89.0772         9.21632 
        2.62325         87.6541         9.08326 
        2.63898         86.4949         8.95237 
        2.65468         85.5216         8.82434 
        2.67044         84.5585         8.69828 
        2.68618         83.5112         8.57498 
        2.70184         82.8962         8.45458 
        2.71755         81.4657         8.33619 
        2.73329         80.3217          8.2199 
        2.74897         79.7238         8.10622 
        2.76462         78.5246         7.99495 
        2.78034         77.7954         7.88532 
        2.79607         76.7552         7.77763 
        2.81179         75.9944         7.67209 
        2.82749         74.9705         7.56863 
        2.84321         74.0742         7.46697 
        2.85893         73.1071         7.36722 
        2.87462         72.1975         7.26946 
        2.89033         71.5032          7.1734 
        2.90605         70.6763           7.079 
        2.92176         69.6871         6.98635 
        2.93747         69.0505         6.89541 
        2.95318         68.2001         6.80608 
        2.96891         67.6054          6.7183 
        2.98456         66.6102         6.63246 
        3.00023         65.8033           6.548 
        3.01596         64.8963         6.46475 
        3.03164         64.4142          6.3832 
        3.04738         63.4559         6.30281 
         3.0631         62.7514         6.22385 
        3.07883         62.1976         6.14624 
        3.09456         61.7675         6.06997 
        3.11026         60.8088         5.99511 
        3.12596         60.1617         5.92153 
        3.14163         59.5174         5.84936 
        3.15734         58.7951         5.77823 
        3.17308         58.1621         5.70812 
        3.18879         57.5393         5.63936 
        3.20447         57.0292         5.57184 
         3.2202          56.253         5.50522 
         3.2359         55.4578         5.43982 
        3.25157         54.9378         5.37563 
        3.26729         54.4602         5.31229 
        3.28304         54.0092         5.24985 
        3.29877         53.2318          5.1885 
        3.31446         52.6081         5.12827 
        3.33014          52.044         5.06905 
        3.34585         51.4609         5.01068 
        3.36158         50.9298         4.95314 
        3.37727         50.6056         4.89669 
        3.39294         49.8691         4.84117 
        3.40867         49.4783         4.78632 
        3.42439         48.8529         4.73235 
        3.44008         48.4313         4.67932 
        3.45578         47.6871         4.62707 
        3.47153         47.3358          4.5755 
        3.48724         46.9705         4.52481 
        3.50292         46.4999         4.47501 
        3.51859          45.993         4.42599 
        3.53431         45.5788         4.37755 
        3.55007         45.0836         4.32972 
        3.56577         44.6831         4.28279 
        3.58146         44.0719         4.23659 
        3.59719         43.7089         4.19096 
        3.61292         43.1851         4.14602 
        3.62859         42.7357         4.10191 
        3.64429         42.3972         4.05836 
        3.66003         42.0729         4.01531 
        3.67578         41.6719         3.97291 
        3.69146         41.1336         3.93127 
        3.70712         40.6569         3.89032 
        3.72284         40.3495         3.84979 
        3.73853         39.9659         3.80992 
        3.75422         39.5074         3.77059 
        3.76993         39.0397          3.7318 
        3.78564         38.7128         3.69356 
        3.80137         38.3652          3.6558 
        3.81707         38.0064         3.61865 
        3.83279         37.5895         3.58198 
        3.84853         37.4007         3.54577 
        3.86424         36.9876         3.51013 
        3.87992         36.5313         3.47503 
        3.89561         36.2671         3.44041 
        3.91134         35.8818          3.4062 
        3.92704         35.5908         3.37249 
        3.94273         35.0856         3.33927 
        3.95845         34.8208         3.30644 
        3.97418         34.5842         3.27405 
        3.98988         34.2025         3.24214 
        4.00554         33.8576         3.21074 
        4.02125         33.5125         3.17966 
        4.03698         33.1959         3.14896 
        4.05268         32.8353         3.11872 
        4.06839         32.6027         3.08887 
         4.0841         32.3144         3.05941 
        4.09983         32.1029          3.0303 
        4.11555            31.7         3.00158 
        4.13124          31.408         2.97331 
        4.14693         31.1857         2.94539 
        4.16266         30.8693         2.91776 
        4.17839         30.6114          2.8905 
        4.19408         30.2676         2.86365 
        4.20977         30.0162         2.83713 
        4.22551         29.6945         2.81089 
        4.24123         29.4472         2.78501 
        4.25691         29.2022         2.75952 
        4.27259         28.8934         2.73435 
        4.28831         28.6653         2.70944 
        4.30404           28.47         2.68481 
        4.31974         28.1775         2.66055 
        4.33543         27.8437          2.6366 
        4.35116         27.6886          2.6129 
        4.36688         27.5079         2.58949 
        4.38255         27.1919         2.56645 
        4.39825          26.942         2.54365 
        4.41398         26.7139         2.52108 
         4.4297         26.4429         2.49881 
        4.44541         26.3011         2.47682 
        4.46111          25.994          2.4551 
        4.47683         25.7286         2.43363 
        4.49251         25.5502         2.41246 
        4.50819         25.2858         2.39155 
         4.5239         25.1348         2.37086 
        4.53962          24.875         2.35039 
        4.55535         24.6528         2.33015 
        4.57106         24.4488         2.31018 
        4.58678         24.2637         2.29044 
         4.6025         24.0127         2.27093 
        4.61821         23.8356         2.25165 
        4.63391         23.6127         2.23261 
         4.6496         23.3975         2.21381 
        4.66532         23.2244         2.19519 
        4.68103         23.1029          2.1768 
        4.69673         22.8013         2.15863 
        4.71241         22.6701          2.1407 
        4.72811         22.4222         2.12293 
        4.74384         22.2646         2.10535 
        4.75955         22.0557         2.08799 
        4.77525         21.9076         2.07084 
        4.79096         21.7822         2.05386 
        4.80669         21.4903         2.03706 
         4.8224         21.3801         2.02047 
        4.83809         21.1959         2.00409 
        4.85379          21.001         1.98787 
         4.8695         20.8016         1.97183 
        4.88521         20.6292         1.95596 
        4.90093         20.4895         1.94027 
        4.91663         20.3171         1.92477 
        4.93234          20.123         1.90942 
        4.94807         20.0143         1.89423 
        4.96377         19.8193         1.87923 
        4.97943         19.6795         1.86443 
        4.99514         19.5036         1.84974 
        5.01086         19.3074         1.83521 
        5.02654         19.1661         1.82087 
        5.04227         19.0542         1.80664 
          5.058         18.9116         1.79256 
        5.07371         18.7499         1.77865 
        5.08942         18.5253         1.76489 
        5.10513         18.4344         1.75128 
        5.12084         18.2953          1.7378 
        5.13656         18.1577         1.72447 
        5.15225         18.0335          1.7113 
        5.16796         17.8556         1.69824 
        5.18369         17.7248         1.68532 
         5.1994         17.5684         1.67255 
        5.21509         17.4401         1.65992 
        5.23079         17.2974         1.64741 
        5.24649         17.1601         1.63504 
        5.26217         17.0174         1.62281 
        5.27788         16.9002         1.61068 
        5.29359          16.792         1.59867 
        5.30933         16.6625         1.58678 
        5.32504         16.5112         1.57502 
        5.34073         16.3947         1.56339 
        5.35646         16.2932         1.55186 
        5.37218         16.1076         1.54045 
        5.38789         16.0162         1.52916 
        5.40357         15.8736         1.51801 
        5.41929         15.7776         1.50694 
        5.43502         15.6399         1.49598 
         5.4507         15.5317         1.48515 
        5.46639          15.424         1.47443 
        5.48212         15.3071          1.4638 
        5.49786         15.2002         1.45325 
        5.51353         15.0464         1.44286 
        5.52921         14.9375         1.43256 
        5.54495         14.8376         1.42234 
        5.56066         14.7049         1.41222 
        5.57637         14.5888         1.40221 
        5.59207         14.4908          1.3923 
        5.60778         14.3936         1.38248 
        5.62346         14.2784         1.37277 
        5.63916          14.218         1.36315 
        5.65487         14.0633         1.35361 
         5.6706         13.9938         1.34415 
        5.68633         13.8767         1.33479 
        5.70203         13.7486         1.32553 
        5.71773         13.6744         1.31635 
        5.73344         13.5678         1.30727 
        5.74916         13.4571         1.29826 
        5.76486         13.3453         1.28934 
        5.78054         13.2717         1.28053 
        5.79626         13.1771         1.27177 
          5.812         13.0884         1.26308 
         5.8277         13.0066         1.25451 
        5.84339         12.9163         1.24601 
        5.85911         12.8107         1.23757 
        5.87484         12.7054         1.22922 
        5.89053         12.6157         1.22096 
        5.90623         12.5435         1.21277 
        5.92195         12.4693         1.20464 
        5.93767         12.3467         1.19659 
        5.95336         12.2854         1.18863 
        5.96905         12.1758         1.18074 
        5.98476         12.0974         1.17292 
        6.00048         12.0164         1.16516 
        6.01617         11.9496         1.15749 
        6.03185         11.8372         1.14989 
        6.04756         11.7387         1.14234 
        6.06331         11.6675         1.13485 
        6.07903         11.5728         1.12743 
        6.09473         11.4838         1.12009 
        6.11044            11.4         1.11281 
        6.12616         11.3276          1.1056 
        6.14186         11.2455         1.09846 
        6.15755         11.1816         1.09138 
        6.17326         11.0915         1.08436 
        6.18898         11.0422         1.07739 
        6.20467         10.9679          1.0705 
        6.22036         10.8651         1.06367 
         6.2361         10.7992         1.05689 
         6.2518         10.7026         1.05017 
        6.26748         10.6426         1.04353 
        6.28319         10.5776         1.03692 
        6.29893         10.4896         1.03037 
        6.31463         10.4062         1.02388 
        6.33033         10.3661         1.01746 
        6.34604         10.2693         1.01108 
        6.36177         10.2145         1.00475 
        6.37747         10.1377        0.998493 
