# k  (h/Mpc)    Pcb(k)  (Mpc/h)^3    Pcb_linear(k) (Mpc/h)^3   ShotnoiseSubtracted = true
      0.0200456         565.045         572.537 
      0.0350414         445.147         441.486 
      0.0492313         336.888          336.03 
      0.0637834         281.435         283.644 
      0.0800726         223.506          225.49 
       0.096163         169.745          167.79 
       0.111083         140.067         137.986 
       0.126058         121.802         122.528 
       0.142273         101.847         102.458 
       0.158546         82.6302         82.2033 
        0.17375         72.0368         71.1858 
       0.188953         64.7381         64.4726 
       0.204907         55.4599         56.2556 
       0.220756         48.2566         47.9531 
        0.23588         42.8255         42.5877 
         0.2514         39.0558         38.8639 
       0.267535         35.2659         34.8158 
       0.283568          31.131         30.7635 
       0.299022         28.2358         27.7891 
       0.314451         26.3562         25.5431 
       0.330372         23.8052         23.3185 
       0.346141          21.653         21.1596 
       0.361624         19.8013         19.3804 
       0.377134         18.2372         17.9306 
       0.392932         17.3637         16.5741 
       0.408854         15.6947         15.2718 
       0.424564         14.8615         14.1339 
       0.440253         13.6638         13.1579 
       0.455999         12.5769         12.2703 
       0.471626         11.7732         11.4451 
        0.48727         11.2704         10.6937 
       0.502856         10.5768          10.026 
       0.518488         9.77059         9.41652 
       0.534347         9.14333         8.84336 
       0.550082          8.7602         8.31922 
       0.565732         8.36933         7.84432 
       0.581496         7.86158         7.40513 
       0.597222         7.41473         6.99899 
       0.612804         7.00243         6.62564 
       0.628434         6.71277         6.27925 
       0.644267         6.39657         5.95484 
       0.660051         6.07158         5.65448 
       0.675724         5.73175         5.37664 
       0.691403         5.50299         5.11735 
       0.707174         5.24291         4.87379 
       0.722871         5.11774         4.64715 
        0.73838         4.77742         4.43742 
       0.754018         4.57273         4.23911 
       0.769845         4.33557         4.05083 
        0.78569          4.2224         3.87388 
       0.801365         4.04406         3.70932 
       0.817031         3.90565         3.55451 
       0.832809          3.7049         3.40763 
       0.848511         3.59249         3.26979 
       0.864097         3.46744         3.14059 
       0.879701         3.36628         3.01832 
       0.895507         3.20673         2.90116 
       0.911279         3.10683         2.79053 
        0.92691         3.02032         2.68663 
       0.942635         2.87397          2.5875 
       0.958396         2.78305          2.4932 
       0.974128         2.70308         2.40381 
       0.989692         2.59777         2.31972 
        1.00528         2.51809         2.23957 
        1.02113         2.45619         2.16198 
        1.03692         2.38587         2.08838 
        1.05264         2.28157         2.01858 
        1.06832         2.22312          1.9521 
        1.08405         2.14644         1.88846 
        1.09979         2.09694         1.82764 
        1.11537         2.02754         1.77013 
        1.13105         1.95258         1.71476 
        1.14679         1.90802         1.66157 
        1.16256         1.84924         1.61055 
        1.17828         1.81585         1.56186 
        1.19395         1.75327         1.51536 
         1.2097         1.70268         1.47053 
        1.22537         1.64716         1.42774 
          1.241         1.61227          1.3868 
        1.25666         1.58295         1.34737 
        1.27241         1.53674         1.30931 
        1.28819         1.48411         1.27265 
        1.30392         1.45029         1.23752 
        1.31957         1.42016         1.20389 
        1.33529         1.36899         1.17138 
        1.35108         1.34101         1.13996 
        1.36674         1.30395         1.10993 
         1.3824         1.28692         1.08101 
        1.39811         1.24838         1.05303 
        1.41389         1.22008         1.02594 
        1.42964         1.18978        0.999858 
        1.44531         1.16632        0.974816 
        1.46101         1.13086        0.950584 
        1.47667         1.11248        0.927254 
        1.49229         1.07556        0.904774 
        1.50793         1.05601        0.883019 
        1.52367         1.02822        0.861844 
        1.53953         1.00658        0.841226 
        1.55526        0.992366        0.821451 
        1.57092        0.977017        0.802398 
        1.58662        0.958787        0.783908 
        1.60235        0.929543        0.765968 
        1.61809        0.910313        0.748584 
        1.63369          0.8862        0.731897 
        1.64941        0.873274        0.715603 
        1.66519         0.85888        0.699749 
        1.68085        0.835879        0.684491 
        1.69652        0.820076        0.669687 
        1.71228        0.802507        0.655238 
        1.72806        0.787539        0.641207 
        1.74368        0.774011         0.62773 
        1.75933        0.760124        0.614616 
        1.77505        0.747608        0.601817 
        1.79081        0.724744        0.589363 
         1.8065        0.719102        0.577316 
        1.82218        0.699866        0.565618 
        1.83797        0.683708        0.554166 
        1.85367        0.677115        0.543096 
        1.86928        0.663886        0.532397 
        1.88497        0.647478        0.521929 
        1.90073        0.640944        0.511705 
        1.91647        0.626692        0.501766 
        1.93218        0.616744        0.492113 
        1.94787        0.605327         0.48273 
        1.96363        0.596034        0.473556 
        1.97935        0.584053         0.46464 
        1.99499        0.574963        0.456006 
        2.01064         0.56564        0.447579 
         2.0264        0.551863        0.439314 
        2.04216        0.544442        0.431262 
        2.05781        0.537482        0.423464 
        2.07353        0.527526        0.415832 
        2.08928        0.519509        0.408373 
        2.10499        0.509123        0.401117 
        2.12065        0.501524         0.39406 
        2.13633         0.49462        0.387168 
        2.15211        0.484207        0.380397 
        2.16785        0.478292        0.373808 
        2.18349        0.471732        0.367417 
        2.19916        0.462837        0.361162 
        2.21489        0.454569        0.355033 
        2.23063        0.446924        0.349043 
         2.2463        0.441813        0.343219 
        2.26194        0.435986        0.337543 
        2.27765        0.427381        0.331966 
        2.29341        0.421761        0.326502 
        2.30914        0.413518        0.321173 
        2.32486         0.40782        0.315966 
        2.34061        0.401207        0.310866 
        2.35635        0.395669        0.305884 
        2.37203         0.39308        0.301029 
        2.38768        0.385105         0.29629 
        2.40339        0.379797        0.291636 
        2.41914        0.374493        0.287072 
        2.43483         0.36839        0.282622 
         2.4505        0.363488        0.278274 
        2.46622        0.358917        0.274003 
        2.48195        0.352045        0.269822 
        2.49759        0.351623        0.265751 
        2.51328        0.343122        0.261754 
        2.52906        0.337524        0.257813 
        2.54479        0.333857         0.25397 
        2.56049        0.328135        0.250212 
        2.57618        0.326044        0.246534 
        2.59189        0.319611        0.242924 
        2.60758         0.31758        0.239393 
        2.62325        0.312531        0.235937 
        2.63898        0.309502        0.232537 
        2.65468        0.302558        0.229211 
        2.67044        0.300008        0.225937 
        2.68618        0.296029        0.222734 
        2.70184        0.292131        0.219607 
        2.71755        0.287006        0.216532 
        2.73329        0.286572        0.213511 
        2.74897        0.280316        0.210558 
        2.76462        0.277861        0.207668 
        2.78034        0.273553         0.20482 
        2.79607        0.271184        0.202023 
        2.81179        0.265486        0.199282 
        2.82749        0.264114        0.196594 
        2.84321        0.261112        0.193954 
        2.85893        0.257033        0.191363 
        2.87462        0.253802        0.188824 
        2.89033        0.250604        0.186328 
        2.90605        0.248287        0.183876 
        2.92176        0.246274         0.18147 
        2.93747        0.242054        0.179108 
        2.95318        0.239574        0.176787 
        2.96891        0.236821        0.174507 
        2.98456         0.23486        0.172277 
        3.00023        0.231364        0.170084 
        3.01596         0.22835        0.167921 
        3.03164        0.225695        0.165803 
        3.04738        0.223986        0.163715 
         3.0631        0.221408        0.161664 
        3.07883         0.21881        0.159648 
        3.09456        0.216086        0.157667 
        3.11026        0.212955        0.155722 
        3.12596        0.210375        0.153811 
        3.14163        0.208907        0.151937 
        3.15734        0.207143        0.150089 
        3.17308        0.204193        0.148268 
        3.18879        0.202053        0.146482 
        3.20447        0.199574        0.144728 
         3.2202        0.198127        0.142998 
         3.2359        0.195656        0.141299 
        3.25157        0.193257        0.139631 
        3.26729        0.191586        0.137986 
        3.28304        0.189785        0.136364 
        3.29877        0.187295        0.134771 
        3.31446         0.18582        0.133206 
        3.33014        0.183826        0.131668 
        3.34585         0.18122        0.130152 
        3.36158        0.179712        0.128657 
        3.37727        0.178773        0.127191 
        3.39294        0.176742        0.125749 
        3.40867        0.174606        0.124324 
        3.42439        0.173086        0.122922 
        3.44008        0.171834        0.121545 
        3.45578        0.169432        0.120188 
        3.47153        0.168501        0.118848 
        3.48724        0.166473        0.117532 
        3.50292        0.165269        0.116238 
        3.51859        0.163466        0.114965 
        3.53431        0.161892        0.113706 
        3.55007        0.160241        0.112464 
        3.56577         0.15948        0.111245 
        3.58146        0.157647        0.110045 
        3.59719        0.156095         0.10886 
        3.61292        0.154826        0.107692 
        3.62859        0.153633        0.106547 
        3.64429        0.151698        0.105415 
        3.66003        0.151102        0.104297 
        3.67578        0.149455        0.103196 
        3.69146        0.148214        0.102114 
        3.70712        0.146716        0.101051 
        3.72284        0.146015       0.0999979 
        3.73853        0.144773       0.0989622 
        3.75422        0.143161       0.0979408 
        3.76993        0.141979        0.096933 
        3.78564        0.141148       0.0959398 
        3.80137        0.139994        0.094959 
        3.81707        0.138079        0.093994 
        3.83279        0.137292       0.0930416 
        3.84853        0.136235       0.0921009 
        3.86424        0.135222       0.0911752 
        3.87992        0.134079       0.0902635 
        3.89561        0.133096       0.0893644 
        3.91134        0.131937       0.0884757 
        3.92704        0.130705       0.0876001 
        3.94273        0.129605       0.0867373 
        3.95845        0.128229       0.0858845 
        3.97418        0.127589       0.0850431 
        3.98988        0.125831       0.0842142 
        4.00554        0.125294       0.0833986 
        4.02125        0.124178       0.0825914 
        4.03698        0.122359       0.0817938 
        4.05268        0.121792       0.0810085 
        4.06839        0.120152        0.080233 
         4.0841        0.118905       0.0794679 
        4.09983        0.117704       0.0787117 
        4.11555        0.116509       0.0779658 
        4.13124        0.115196       0.0772315 
        4.14693        0.114056       0.0765061 
        4.16266        0.112799       0.0757884 
        4.17839        0.111661       0.0750804 
        4.19408        0.110634        0.074383 
        4.20977        0.109489       0.0736943 
        4.22551        0.108851       0.0730126 
        4.24123        0.107523       0.0723403 
        4.25691        0.106617       0.0716783 
        4.27259        0.105725       0.0710244 
        4.28831        0.105274       0.0703773 
        4.30404        0.103781       0.0697378 
        4.31974        0.103407       0.0691076 
        4.33543        0.102423       0.0684855 
        4.35116        0.101961       0.0678697 
        4.36688        0.100872       0.0672617 
        4.38255        0.100413       0.0666634 
        4.39825       0.0999001       0.0660711 
        4.41398       0.0991993       0.0654849 
         4.4297       0.0986523       0.0649064 
        4.44541       0.0981398        0.064335 
        4.46111       0.0973912        0.063771 
        4.47683       0.0969119       0.0632133 
        4.49251       0.0966513       0.0626635 
        4.50819       0.0962096       0.0621204 
         4.5239       0.0956211       0.0615829 
        4.53962       0.0952946       0.0610512 
        4.55535       0.0952179       0.0605255 
        4.57106       0.0944908       0.0600067 
        4.58678       0.0944021        0.059494 
         4.6025       0.0941293       0.0589871 
        4.61821       0.0938555       0.0584862 
        4.63391       0.0937187       0.0579919 
         4.6496       0.0934692       0.0575034 
        4.66532        0.093294       0.0570199 
        4.68103       0.0933266       0.0565421 
        4.69673       0.0930133       0.0560703 
        4.71241       0.0934488       0.0556043 
        4.72811       0.0929811       0.0551429 
        4.74384       0.0928133       0.0546862 
        4.75955       0.0929212       0.0542353 
        4.77525       0.0930663       0.0537898 
        4.79096       0.0931727       0.0533488 
        4.80669       0.0929386       0.0529125 
         4.8224       0.0932891       0.0524816 
        4.83809       0.0934697       0.0520559 
        4.85379       0.0935494       0.0516348 
         4.8695       0.0939226        0.051218 
        4.88521         0.09399       0.0508059 
        4.90093        0.094548       0.0503984 
        4.91663       0.0946793       0.0499957 
        4.93234       0.0946631        0.049597 
        4.94807       0.0951447       0.0492023 
        4.96377       0.0955212       0.0488128 
        4.97943       0.0963451       0.0484282 
        4.99514       0.0966543       0.0480469 
        5.01086        0.096639       0.0476694 
        5.02654       0.0976552       0.0472969 
        5.04227       0.0979167       0.0469272 
          5.058       0.0984126       0.0465614 
        5.07371       0.0990842       0.0462002 
        5.08942       0.0999943       0.0458429 
        5.10513        0.100529       0.0454892 
        5.12084        0.101202       0.0451391 
        5.13656        0.101976       0.0447928 
        5.15225        0.102879       0.0444507 
        5.16796        0.103589       0.0441117 
        5.18369        0.104177       0.0437759 
         5.1994        0.105204       0.0434442 
        5.21509        0.106146       0.0431163 
        5.23079        0.106837       0.0427913 
        5.24649        0.107925         0.04247 
        5.26217        0.108783       0.0421522 
        5.27788        0.110121       0.0418372 
        5.29359        0.110977       0.0415254 
        5.30933        0.111845       0.0412163 
        5.32504        0.113158       0.0409109 
        5.34073        0.114042        0.040609 
        5.35646        0.115442       0.0403095 
        5.37218        0.116703       0.0400129 
        5.38789        0.118133       0.0397198 
        5.40357        0.119357       0.0394301 
        5.41929        0.120495       0.0391425 
        5.43502        0.122156       0.0388578 
         5.4507        0.123745       0.0385767 
        5.46639        0.124772       0.0382982 
        5.48212        0.126095       0.0380219 
        5.49786        0.128399        0.037748 
        5.51353        0.130186       0.0374782 
        5.52921        0.130822       0.0372107 
        5.54495        0.133577       0.0369451 
        5.56066        0.134755       0.0366823 
        5.57637        0.136905       0.0364222 
        5.59207        0.137951       0.0361648 
        5.60778        0.140094       0.0359098 
        5.62346        0.141581       0.0356576 
        5.63916        0.143951       0.0354076 
        5.65487        0.146162       0.0351599 
         5.6706        0.147387       0.0349143 
        5.68633        0.150184       0.0346709 
        5.70203        0.152141       0.0344304 
        5.71773        0.154539       0.0341922 
        5.73344        0.156895       0.0339561 
        5.74916        0.159641       0.0337221 
        5.76486        0.161604       0.0334905 
        5.78054        0.163603       0.0332615 
        5.79626        0.166497       0.0330341 
          5.812        0.167985       0.0328085 
         5.8277        0.171197       0.0325857 
        5.84339        0.173413        0.032365 
        5.85911        0.175843       0.0321459 
        5.87484        0.178153       0.0319288 
        5.89053        0.180843       0.0317142 
        5.90623        0.185266       0.0315015 
        5.92195        0.186817       0.0312904 
        5.93767        0.189207       0.0310813 
        5.95336        0.192045       0.0308745 
        5.96905        0.196273       0.0306697 
        5.98476        0.198271       0.0304664 
        6.00048        0.201324       0.0302649 
        6.01617        0.204622       0.0300656 
        6.03185         0.20754       0.0298682 
        6.04756        0.209376       0.0296722 
        6.06331        0.214565       0.0294775 
        6.07903        0.217509       0.0292849 
        6.09473        0.219598       0.0290943 
        6.11044        0.224837       0.0289052 
        6.12616        0.225866       0.0287178 
        6.14186        0.230271       0.0285323 
        6.15755        0.233813       0.0283484 
        6.17326          0.2377        0.028166 
        6.18898        0.240326       0.0279851 
        6.20467        0.243468       0.0278062 
        6.22036        0.246412       0.0276288 
         6.2361        0.249804       0.0274525 
         6.2518        0.255081        0.027278 
        6.26748        0.258854       0.0271055 
        6.28319        0.262422       0.0269339 
        6.29893         0.26693       0.0267637 
        6.31463        0.270469       0.0265953 
        6.33033        0.272804       0.0264283 
        6.34604         0.27822       0.0262627 
        6.36177        0.280035       0.0260984 
        6.37747         0.28594       0.0259357 
