# k  (h/Mpc)    Pcb(k)  (Mpc/h)^3    Pcb_linear(k) (Mpc/h)^3   ShotnoiseSubtracted = true
      0.0200456         25920.8         26437.3 
      0.0350414         20947.8           20386 
      0.0492313         14979.4         15516.4 
      0.0637834         12220.7         13097.5 
      0.0800726         9593.56         10412.2 
       0.096163         7901.84         7747.82 
       0.111083         6589.78         6371.59 
       0.126058         5449.42         5657.85 
       0.142273         4776.12         4731.08 
       0.158546          3954.8          3795.8 
        0.17375          3614.2         3287.06 
       0.188953         3469.51         2977.07 
       0.204907         2991.29         2597.65 
       0.220756         2722.98         2214.27 
        0.23588         2447.81         1966.52 
         0.2514         2239.47         1794.57 
       0.267535         2146.48         1607.65 
       0.283568         1940.17         1420.53 
       0.299022         1853.07         1283.18 
       0.314451            1927         1179.47 
       0.330372         1754.15         1076.75 
       0.346141         1617.38         977.061 
       0.361624         1545.03         894.905 
       0.377134          1494.3         827.958 
       0.392932         1416.58         765.322 
       0.408854         1366.08         705.188 
       0.424564         1339.76         652.646 
       0.440253         1265.49         607.576 
       0.455999          1208.7         566.591 
       0.471626         1210.63         528.485 
        0.48727         1156.68         493.792 
       0.502856         1129.65         462.957 
       0.518488         1079.96         434.816 
       0.534347         1044.63         408.349 
       0.550082         1005.94         384.147 
       0.565732         981.436         362.218 
       0.581496         956.069         341.938 
       0.597222         947.546         323.184 
       0.612804         918.964         305.944 
       0.628434         883.738         289.949 
       0.644267         861.567          274.97 
       0.660051         847.511           261.1 
       0.675724         836.117         248.271 
       0.691403         798.677         236.298 
       0.707174         781.298         225.051 
       0.722871         773.729         214.586 
        0.73838         749.131         204.901 
       0.754018         741.104         195.744 
       0.769845         722.602          187.05 
        0.78569         703.742          178.88 
       0.801365         685.097         171.281 
       0.817031         674.069         164.132 
       0.832809         657.391          157.35 
       0.848511         641.349         150.985 
       0.864097         634.698         145.019 
       0.879701         634.608         139.373 
       0.895507         611.091         133.964 
       0.911279         605.403         128.855 
        0.92691         590.495         124.057 
       0.942635         579.284          119.48 
       0.958396           570.8         115.125 
       0.974128         556.511         110.998 
       0.989692         544.371         107.115 
        1.00528         535.166         103.414 
        1.02113         522.991         99.8312 
        1.03692          513.42         96.4328 
        1.05264         507.611         93.2095 
        1.06832         496.659         90.1397 
        1.08405         489.192         87.2011 
        1.09979          477.91         84.3928 
        1.11537         467.187         81.7371 
        1.13105         460.039         79.1806 
        1.14679         450.878         76.7245 
        1.16256         446.358         74.3686 
        1.17828         437.802         72.1201 
        1.19395         429.114         69.9729 
         1.2097         419.211         67.9028 
        1.22537         414.031         65.9271 
          1.241         404.524         64.0366 
        1.25666         398.084          62.216 
        1.27241         395.126         60.4582 
        1.28819         384.781         58.7659 
        1.30392         380.327         57.1437 
        1.31957          371.94         55.5904 
        1.33529         368.322         54.0896 
        1.35108         366.727         52.6387 
        1.36674         356.675         51.2517 
         1.3824         347.436         49.9163 
        1.39811         345.565         48.6245 
        1.41389         340.148         47.3737 
        1.42964         332.723         46.1693 
        1.44531         327.856         45.0129 
        1.46101          318.07          43.894 
        1.47667         317.759         42.8167 
        1.49229         313.146         41.7787 
        1.50793         305.139         40.7741 
        1.52367         300.166         39.7963 
        1.53953         295.684         38.8443 
        1.55526         289.641         37.9312 
        1.57092         285.365         37.0514 
        1.58662         281.619         36.1976 
        1.60235         276.652         35.3692 
        1.61809         271.962         34.5665 
        1.63369          268.58         33.7959 
        1.64941         264.096         33.0435 
        1.66519         260.352         32.3115 
        1.68085         254.312         31.6069 
        1.69652         250.871         30.9233 
        1.71228         246.809         30.2562 
        1.72806         243.918         29.6083 
        1.74368         241.007          28.986 
        1.75933         237.512         28.3804 
        1.77505         232.932         27.7894 
        1.79081         229.259         27.2143 
         1.8065         227.133          26.658 
        1.82218         221.584         26.1179 
        1.83797         219.071         25.5891 
        1.85367         214.871         25.0779 
        1.86928         211.308         24.5838 
        1.88497         208.543         24.1005 
        1.90073          206.75         23.6284 
        1.91647         203.017         23.1695 
        1.93218         199.637         22.7237 
        1.94787         195.782         22.2905 
        1.96363         194.619         21.8668 
        1.97935         189.643         21.4551 
        1.99499         188.244         21.0564 
        2.01064         183.377         20.6673 
         2.0264         181.928         20.2857 
        2.04216         179.154         19.9139 
        2.05781         176.232         19.5538 
        2.07353          175.28         19.2014 
        2.08928         172.313         18.8569 
        2.10499          169.95         18.5219 
        2.12065         167.323          18.196 
        2.13633         164.669         17.8778 
        2.15211         162.215         17.5651 
        2.16785         160.325         17.2609 
        2.18349         157.561         16.9658 
        2.19916          156.63          16.677 
        2.21489         153.613         16.3939 
        2.23063         151.937         16.1174 
         2.2463         149.689         15.8484 
        2.26194         147.436         15.5863 
        2.27765         145.789         15.3288 
        2.29341         143.464         15.0765 
        2.30914         141.557         14.8304 
        2.32486         140.087           14.59 
        2.34061          137.52         14.3545 
        2.35635          135.56         14.1244 
        2.37203         134.668         13.9003 
        2.38768          132.25         13.6814 
        2.40339         130.185         13.4665 
        2.41914         129.068         13.2558 
        2.43483         127.578         13.0503 
         2.4505         125.625         12.8495 
        2.46622         123.835         12.6523 
        2.48195         122.422         12.4592 
        2.49759         120.598         12.2713 
        2.51328         118.768         12.0867 
        2.52906         117.628         11.9047 
        2.54479         116.035         11.7272 
        2.56049          114.67         11.5537 
        2.57618          113.08         11.3839 
        2.59189         112.163         11.2172 
        2.60758         111.208         11.0542 
        2.62325           109.4         10.8946 
        2.63898         107.424         10.7376 
        2.65468         106.644          10.584 
        2.67044         105.546         10.4328 
        2.68618         103.622         10.2849 
        2.70184         102.854         10.1405 
        2.71755         101.107         9.99853 
        2.73329         100.196         9.85905 
        2.74897         98.5075          9.7227 
        2.76462         97.5571         9.58924 
        2.78034         96.3292         9.45774 
        2.79607         95.3623         9.32858 
        2.81179         94.1184         9.20199 
        2.82749         92.8922          9.0779 
        2.84321          91.836         8.95597 
        2.85893         90.9662         8.83633 
        2.87462         89.5405         8.71908 
        2.89033         88.6779         8.60386 
        2.90605           87.49         8.49064 
        2.92176         86.2088         8.37951 
        2.93747         85.6911         8.27044 
        2.95318         84.7575          8.1633 
        2.96891         83.6398         8.05801 
        2.98456         82.6336         7.95505 
        3.00023         81.7936         7.85375 
        3.01596          80.695          7.7539 
        3.03164         80.0474         7.65608 
        3.04738         78.9368         7.55967 
         3.0631         78.1447         7.46496 
        3.07883         77.3703         7.37187 
        3.09456         76.2991         7.28039 
        3.11026         75.4939         7.19061 
        3.12596         74.3772         7.10236 
        3.14163         73.5595         7.01579 
        3.15734         72.9371         6.93048 
        3.17308         71.9221         6.84638 
        3.18879         71.4133         6.76392 
        3.20447         70.4327         6.68293 
         3.2202         69.6156         6.60303 
         3.2359         69.1715         6.52458 
        3.25157         68.3915          6.4476 
        3.26729         67.4933         6.37163 
        3.28304         67.0176         6.29674 
        3.29877         66.0289         6.22315 
        3.31446         65.4503         6.15091 
        3.33014          64.937         6.07988 
        3.34585         64.1002         6.00986 
        3.36158         63.3102         5.94085 
        3.37727         62.7437         5.87314 
        3.39294         62.0613         5.80656 
        3.40867          61.386         5.74077 
        3.42439         60.4964         5.67604 
        3.44008         59.8665         5.61243 
        3.45578         59.5907         5.54976 
        3.47153         58.8104         5.48791 
        3.48724         58.2797         5.42711 
        3.50292         57.7826         5.36738 
        3.51859         57.0357         5.30858 
        3.53431         56.5273         5.25048 
        3.55007         55.9829         5.19312 
        3.56577         55.2843         5.13683 
        3.58146         54.7604         5.08141 
        3.59719         54.2323         5.02668 
        3.61292         53.7564         4.97278 
        3.62859         53.0231         4.91988 
        3.64429         52.6974         4.86764 
        3.66003         52.1212         4.81601 
        3.67578         51.5217         4.76515 
        3.69146          51.058         4.71522 
        3.70712         50.4327         4.66609 
        3.72284         50.0898         4.61749 
        3.73853          49.567         4.56966 
        3.75422         49.0956          4.5225 
        3.76993         48.5387         4.47596 
        3.78564         48.2208          4.4301 
        3.80137         47.6371         4.38481 
        3.81707         47.1721         4.34025 
        3.83279         46.6869         4.29627 
        3.84853         46.3072         4.25284 
        3.86424         45.8308         4.21009 
        3.87992           45.37         4.16799 
        3.89561         45.0049         4.12647 
        3.91134         44.6537         4.08544 
        3.92704         44.1314           4.045 
        3.94273         43.5876         4.00516 
        3.95845         43.1261         3.96579 
        3.97418          42.855         3.92694 
        3.98988         42.5296         3.88866 
        4.00554         41.9632           3.851 
        4.02125         41.6391         3.81373 
        4.03698         41.3219         3.77689 
        4.05268         40.9349         3.74063 
        4.06839         40.5014         3.70482 
         4.0841         40.0885         3.66949 
        4.09983          39.651         3.63458 
        4.11555         39.3706         3.60013 
        4.13124         38.9276         3.56623 
        4.14693         38.6373         3.53273 
        4.16266         38.3439         3.49959 
        4.17839          37.935          3.4669 
        4.19408          37.596          3.4347 
        4.20977         37.2225         3.40289 
        4.22551         36.8774         3.37142 
        4.24123         36.5663         3.34037 
        4.25691         36.1681          3.3098 
        4.27259         35.9714         3.27961 
        4.28831         35.5802         3.24973 
        4.30404         35.3615          3.2202 
        4.31974         34.9607          3.1911 
        4.33543         34.6516         3.16237 
        4.35116         34.3363         3.13394 
        4.36688          33.983         3.10586 
        4.38255         33.7093         3.07824 
        4.39825          33.299         3.05089 
        4.41398         33.0457         3.02382 
         4.4297         32.8564          2.9971 
        4.44541         32.5159         2.97072 
        4.46111         32.2642         2.94468 
        4.47683         31.9526         2.91893 
        4.49251         31.7059         2.89354 
        4.50819         31.5024         2.86846 
         4.5239         31.1883         2.84364 
        4.53962         30.8302         2.81909 
        4.55535         30.6136         2.79481 
        4.57106         30.4313         2.77086 
        4.58678         30.1611         2.74718 
         4.6025         29.8469         2.72378 
        4.61821         29.5604         2.70065 
        4.63391         29.3017         2.67782 
         4.6496         29.0872         2.65527 
        4.66532         28.8618         2.63294 
        4.68103         28.5922         2.61088 
        4.69673         28.3501         2.58909 
        4.71241         28.1581         2.56757 
        4.72811         27.9081         2.54627 
        4.74384         27.6338         2.52518 
        4.75955         27.4041         2.50436 
        4.77525         27.1812         2.48379 
        4.79096         26.9648         2.46342 
        4.80669          26.755         2.44328 
         4.8224         26.5547         2.42338 
        4.83809         26.3241         2.40373 
        4.85379         26.0653         2.38428 
         4.8695         25.9292         2.36503 
        4.88521         25.6003           2.346 
        4.90093         25.4377         2.32719 
        4.91663         25.2349         2.30859 
        4.93234         24.9734         2.29018 
        4.94807         24.8643         2.27196 
        4.96377         24.6457         2.25397 
        4.97943         24.4389         2.23621 
        4.99514         24.1627          2.2186 
        5.01086         23.9817         2.20117 
        5.02654           23.81         2.18397 
        5.04227         23.6007          2.1669 
          5.058         23.4397         2.15001 
        5.07371         23.2649         2.13333 
        5.08942         23.0407         2.11683 
        5.10513         22.9135          2.1005 
        5.12084         22.7379         2.08434 
        5.13656         22.5531         2.06835 
        5.15225         22.3606         2.05255 
        5.16796         22.1613         2.03689 
        5.18369         21.9617         2.02139 
         5.1994         21.8304         2.00607 
        5.21509         21.6447         1.99093 
        5.23079         21.4407         1.97592 
        5.24649         21.2709         1.96109 
        5.26217         21.1171         1.94641 
        5.27788         20.9436         1.93187 
        5.29359         20.7797         1.91747 
        5.30933         20.6198          1.9032 
        5.32504         20.5228          1.8891 
        5.34073         20.3274         1.87515 
        5.35646         20.1988         1.86132 
        5.37218          20.018         1.84763 
        5.38789         19.8504          1.8341 
        5.40357         19.7044         1.82071 
        5.41929         19.5893         1.80744 
        5.43502         19.3996         1.79429 
         5.4507         19.2634         1.78131 
        5.46639          19.108         1.76845 
        5.48212         18.9709         1.75569 
        5.49786         18.8217         1.74305 
        5.51353         18.6852         1.73058 
        5.52921         18.5614         1.71823 
        5.54495         18.4246         1.70597 
        5.56066          18.294         1.69384 
        5.57637         18.1279         1.68182 
        5.59207         17.9789         1.66994 
        5.60778         17.8523         1.65816 
        5.62346         17.7488         1.64652 
        5.63916         17.5691         1.63498 
        5.65487         17.4461         1.62354 
         5.6706         17.3661         1.61219 
        5.68633         17.2073         1.60096 
        5.70203          17.037         1.58985 
        5.71773          16.935         1.57885 
        5.73344         16.7913         1.56795 
        5.74916         16.7358         1.55714 
        5.76486         16.5594         1.54645 
        5.78054         16.4591         1.53588 
        5.79626         16.3349         1.52537 
          5.812         16.2272         1.51496 
         5.8277         16.1063         1.50467 
        5.84339         15.9718         1.49448 
        5.85911         15.8556         1.48436 
        5.87484         15.7793         1.47434 
        5.89053         15.6513         1.46443 
        5.90623         15.5118         1.45461 
        5.92195         15.3886         1.44486 
        5.93767         15.2606         1.43521 
        5.95336         15.1608         1.42566 
        5.96905         15.0815          1.4162 
        5.98476         14.9528         1.40681 
        6.00048         14.8501         1.39751 
        6.01617         14.7194          1.3883 
        6.03185         14.6578         1.37919 
        6.04756         14.5636         1.37014 
        6.06331          14.464         1.36115 
        6.07903         14.3522         1.35226 
        6.09473         14.2158         1.34345 
        6.11044         14.1388         1.33472 
        6.12616         14.0481         1.32607 
        6.14186         13.9357          1.3175 
        6.15755         13.8708         1.30901 
        6.17326         13.7562         1.30059 
        6.18898         13.6424         1.29224 
        6.20467          13.575         1.28397 
        6.22036         13.4379         1.27578 
         6.2361         13.3837         1.26764 
         6.2518         13.2689         1.25959 
        6.26748         13.1819         1.25162 
        6.28319         13.0922          1.2437 
        6.29893         13.0191         1.23584 
        6.31463         12.9161         1.22806 
        6.33033         12.8192         1.22035 
        6.34604         12.7459          1.2127 
        6.36177         12.6471         1.20511 
        6.37747         12.5558          1.1976 
