# k  (h/Mpc)    Pcb(k)  (Mpc/h)^3    Pcb_linear(k) (Mpc/h)^3   ShotnoiseSubtracted = true
      0.0200456         13386.7         13616.4 
      0.0350414         9770.58         9490.64 
      0.0492313         6575.27         6634.16 
      0.0637834         5397.38         5593.66 
      0.0800726         4358.64         4588.11 
       0.096163         3367.81         3248.22 
       0.111083         2666.12         2508.95 
       0.126058         2247.89         2267.98 
       0.142273         1991.41         1992.43 
       0.158546         1623.97          1556.4 
        0.17375         1400.58         1272.45 
       0.188953         1306.73         1161.27 
       0.204907         1131.83          1061.2 
       0.220756         1018.17         901.142 
        0.23588         898.395         767.111 
         0.2514         803.855         694.262 
       0.267535          784.33          641.78 
       0.283568         688.197         572.016 
       0.299022         655.502         504.452 
       0.314451         664.966         457.969 
       0.330372         572.549         424.539 
       0.346141         530.661         389.473 
       0.361624         507.626         353.349 
       0.377134         476.404         323.523 
       0.392932         461.267         300.416 
       0.408854         439.789         279.074 
       0.424564         425.356         257.841 
       0.440253         385.607         238.598 
       0.455999          369.05         222.535 
       0.471626          372.05         208.468 
        0.48727          352.45          194.96 
       0.502856         324.649         182.365 
       0.518488         325.493          171.14 
       0.534347         303.032         161.005 
       0.550082         293.268         151.668 
       0.565732         292.096         142.942 
       0.581496         278.201          134.88 
       0.597222         270.395         127.567 
       0.612804         263.066         120.877 
       0.628434         253.638         114.604 
       0.644267         242.722          108.68 
       0.660051         239.172         103.229 
       0.675724         235.619         98.2089 
       0.691403         229.862         93.5218 
       0.707174         221.655         89.1158 
       0.722871         218.243         85.0128 
        0.73838         215.981         81.2138 
       0.754018         205.177         77.6198 
       0.769845         204.938         74.2059 
        0.78569           199.6         70.9961 
       0.801365          193.87         68.0098 
       0.817031         189.925         65.1998 
       0.832809          186.69         62.5331 
       0.848511         182.143         60.0301 
       0.864097         178.093         57.6839 
       0.879701         176.885         55.4629 
       0.895507         172.655         53.3347 
       0.911279         167.449         51.3245 
        0.92691         165.201         49.4364 
       0.942635         162.888         47.6343 
       0.958396         159.772         45.9198 
       0.974128          156.61         44.2941 
       0.989692         152.294         42.7645 
        1.00528         151.197         41.3059 
        1.02113         147.743         39.8936 
        1.03692         145.731         38.5535 
        1.05264          143.68          37.282 
        1.06832         141.526         36.0707 
        1.08405         138.582         34.9107 
        1.09979         137.764         33.8019 
        1.11537         134.621         32.7528 
        1.13105          132.98         31.7427 
        1.14679         130.829         30.7719 
        1.16256         128.667         29.8404 
        1.17828         127.077         28.9511 
        1.19395         124.168         28.1016 
         1.2097         123.103         27.2823 
        1.22537         121.112         26.5001 
          1.241         119.443         25.7514 
        1.25666         116.945         25.0302 
        1.27241         114.619         24.3336 
        1.28819         113.947         23.6627 
        1.30392         111.993         23.0194 
        1.31957         110.096         22.4033 
        1.33529         108.896         21.8078 
        1.35108         107.883         21.2319 
        1.36674         105.838         20.6812 
         1.3824         105.457         20.1508 
        1.39811         102.806         19.6375 
        1.41389         101.833         19.1404 
        1.42964         99.6995         18.6615 
        1.44531         99.0874         18.2016 
        1.46101         97.4775         17.7565 
        1.47667         96.8411         17.3278 
        1.49229         95.8319         16.9145 
        1.50793         93.9148         16.5145 
        1.52367         93.1065          16.125 
        1.53953         92.0047         15.7456 
        1.55526          90.472         15.3816 
        1.57092         90.0061         15.0308 
        1.58662         88.6957         14.6902 
        1.60235         87.1884         14.3597 
        1.61809         86.4348         14.0393 
        1.63369         84.9113         13.7316 
        1.64941          84.932         13.4311 
        1.66519         83.0311         13.1386 
        1.68085         82.0235          12.857 
        1.69652         80.7357         12.5837 
        1.71228         79.8444         12.3169 
        1.72806         79.3687         12.0577 
        1.74368         77.9338         11.8087 
        1.75933         77.3869         11.5663 
        1.77505         76.6088         11.3296 
        1.79081         75.2436         11.0992 
         1.8065         74.7602         10.8764 
        1.82218         73.3876         10.6599 
        1.83797         72.9559         10.4478 
        1.85367         71.6974         10.2428 
        1.86928           71.02         10.0446 
        1.88497          70.353         9.85067 
        1.90073         69.4469         9.66117 
        1.91647         68.4957         9.47688 
        1.93218         67.7639         9.29785 
        1.94787         66.8982         9.12377 
        1.96363         66.1088         8.95351 
        1.97935         65.5055           8.788 
        1.99499         64.7022         8.62766 
        2.01064         64.0579         8.47114 
         2.0264         63.1084         8.31756 
        2.04216         62.4365         8.16792 
        2.05781         61.6996         8.02295 
        2.07353         61.0097         7.88102 
        2.08928         60.2366         7.74225 
        2.10499         59.6152         7.60724 
        2.12065         59.0578          7.4759 
        2.13633         58.5706         7.34758 
        2.15211         57.6676         7.22147 
        2.16785         56.7822         7.09872 
        2.18349         56.2869         6.97962 
        2.19916         55.6285         6.86304 
        2.21489         55.0964         6.74877 
        2.23063         54.3515         6.63705 
         2.2463         53.8781         6.52839 
        2.26194         53.5782         6.42247 
        2.27765         52.6357         6.31838 
        2.29341         52.0094         6.21635 
        2.30914         51.4186         6.11682 
        2.32486         50.8243         6.01954 
        2.34061          50.429         5.92424 
        2.35635         49.6786         5.83112 
        2.37203         49.1872         5.74034 
        2.38768          48.811          5.6517 
        2.40339         48.2581         5.56464 
        2.41914         47.6753         5.47923 
        2.43483         46.9878         5.39594 
         2.4505         46.7371         5.31453 
        2.46622           46.22         5.23455 
        2.48195         45.6213         5.15622 
        2.49759         45.0862         5.07993 
        2.51328         44.7677         5.00501 
        2.52906         44.1992         4.93114 
        2.54479         43.9261         4.85905 
        2.56049         43.0326         4.78856 
        2.57618         42.8017         4.71955 
        2.59189         42.3804         4.65181 
        2.60758         41.7442         4.58552 
        2.62325         41.5633         4.52061 
        2.63898          41.066         4.45675 
        2.65468         40.6435         4.39427 
        2.67044         40.3152         4.33274 
        2.68618         39.9402         4.27254 
        2.70184         39.2728         4.21373 
        2.71755         39.0161          4.1559 
        2.73329         38.3901         4.09908 
        2.74897         38.2176         4.04352 
        2.76462         37.6576         3.98912 
        2.78034         37.3781         3.93551 
        2.79607          36.868         3.88283 
        2.81179         36.5399          3.8312 
        2.82749         36.1545         3.78057 
        2.84321         35.7335         3.73081 
        2.85893         35.3534         3.68197 
        2.87462         35.0128         3.63409 
        2.89033           34.73         3.58704 
        2.90605         34.3083         3.54078 
        2.92176         34.1356         3.49537 
        2.93747         33.7857          3.4508 
        2.95318         33.3629         3.40699 
        2.96891         33.0035         3.36394 
        2.98456         32.7715         3.32183 
        3.00023         32.3889         3.28039 
        3.01596         32.0557         3.23953 
        3.03164         31.6797         3.19949 
        3.04738          31.441         3.16002 
         3.0631         31.2257         3.12124 
        3.07883         30.7959         3.08311 
        3.09456         30.4045         3.04563 
        3.11026         30.1027         3.00884 
        3.12596         29.8552         2.97267 
        3.14163         29.5597         2.93718 
        3.15734         29.2868          2.9022 
        3.17308         28.9467         2.86771 
        3.18879         28.6967         2.83387 
        3.20447         28.4305         2.80064 
         3.2202         28.1085         2.76785 
         3.2359         27.8128         2.73564 
        3.25157         27.6572         2.70403 
        3.26729         27.3525         2.67283 
        3.28304          26.968         2.64206 
        3.29877         26.7183         2.61182 
        3.31446         26.4933         2.58213 
        3.33014         26.2823         2.55293 
        3.34585         25.9899         2.52414 
        3.36158         25.8042         2.49576 
        3.37727         25.4756         2.46791 
        3.39294         25.2542         2.44051 
        3.40867         25.0128         2.41344 
        3.42439         24.8071         2.38679 
        3.44008         24.5443          2.3606 
        3.45578         24.4323         2.33479 
        3.47153         24.0806         2.30932 
        3.48724         23.8437         2.28427 
        3.50292         23.6356         2.25966 
        3.51859         23.4147         2.23542 
        3.53431         23.1965         2.21147 
        3.55007         22.9726         2.18781 
        3.56577         22.7594          2.1646 
        3.58146         22.5871         2.14174 
        3.59719         22.3201         2.11916 
        3.61292         22.1312         2.09691 
        3.62859         21.9293         2.07507 
        3.64429          21.648         2.05351 
        3.66003         21.5527         2.03218 
        3.67578         21.3605         2.01118 
        3.69146         21.1025         1.99055 
        3.70712         20.9856         1.97025 
        3.72284         20.7432         1.95016 
        3.73853         20.6098         1.93039 
        3.75422         20.3285         1.91089 
        3.76993         20.2113         1.89164 
        3.78564         19.9953         1.87267 
        3.80137         19.8399         1.85393 
        3.81707         19.6559         1.83549 
        3.83279         19.4912         1.81729 
        3.84853         19.2665         1.79931 
        3.86424         19.0971         1.78161 
        3.87992         18.9139         1.76418 
        3.89561         18.8237         1.74698 
        3.91134         18.5458         1.72998 
        3.92704         18.4577         1.71322 
        3.94273         18.2244         1.69671 
        3.95845         18.1152         1.68039 
        3.97418          17.921         1.66428 
        3.98988         17.7831          1.6484 
        4.00554         17.6927         1.63278 
        4.02125         17.4378         1.61732 
        4.03698          17.283         1.60203 
        4.05268         17.1667         1.58698 
        4.06839         17.0454         1.57212 
         4.0841         16.8472         1.55745 
        4.09983          16.709         1.54295 
        4.11555         16.5464         1.52864 
        4.13124         16.4453         1.51456 
        4.14693         16.3262         1.50064 
        4.16266         16.1846         1.48687 
        4.17839           16.02         1.47328 
        4.19408          15.869         1.45989 
        4.20977         15.7433         1.44666 
        4.22551          15.621         1.43357 
        4.24123         15.4507         1.42065 
        4.25691         15.2795         1.40794 
        4.27259         15.2273         1.39537 
        4.28831         15.1244         1.38293 
        4.30404         14.9265         1.37064 
        4.31974         14.8439         1.35852 
        4.33543         14.7018         1.34656 
        4.35116          14.561         1.33472 
        4.36688          14.457         1.32302 
        4.38255         14.3531         1.31151 
        4.39825         14.1723         1.30011 
        4.41398          14.103         1.28882 
         4.4297         13.9676         1.27769 
        4.44541         13.8501         1.26669 
        4.46111         13.7583         1.25582 
        4.47683         13.6261         1.24508 
        4.49251         13.5319         1.23449 
        4.50819         13.4278         1.22402 
         4.5239         13.2804         1.21366 
        4.53962         13.2019         1.20341 
        4.55535         13.0895         1.19328 
        4.57106         12.9662         1.18328 
        4.58678         12.8808         1.17339 
         4.6025         12.7802         1.16361 
        4.61821         12.6516         1.15395 
        4.63391         12.5649         1.14441 
         4.6496         12.4491         1.13498 
        4.66532         12.3636         1.12565 
        4.68103         12.2318         1.11642 
        4.69673         12.1376         1.10731 
        4.71241         12.0725         1.09831 
        4.72811         11.9891          1.0894 
        4.74384         11.8832         1.08057 
        4.75955         11.7922         1.07186 
        4.77525         11.6862         1.06325 
        4.79096         11.6137         1.05473 
        4.80669         11.5369         1.04629 
         4.8224         11.4357         1.03796 
        4.83809         11.3508         1.02973 
        4.85379         11.2453         1.02158 
         4.8695         11.1481         1.01351 
        4.88521         11.0822         1.00554 
        4.90093         11.0211        0.997654 
        4.91663         10.9159        0.989859 
        4.93234         10.8127         0.98214 
        4.94807         10.7457        0.974499 
        4.96377         10.6498        0.966954 
        4.97943         10.5833        0.959506 
        4.99514         10.4681        0.952118 
        5.01086         10.4244        0.944803 
        5.02654         10.3369        0.937584 
        5.04227         10.2185         0.93042 
          5.058         10.1662        0.923328 
        5.07371         10.1028        0.916325 
        5.08942         10.0444        0.909395 
        5.10513         9.93568        0.902536 
        5.12084         9.88424        0.895744 
        5.13656         9.78851        0.889026 
        5.15225         9.71356        0.882387 
        5.16796         9.65503        0.875807 
        5.18369         9.58226        0.869289 
         5.1994         9.50052        0.862849 
        5.21509         9.43328        0.856481 
        5.23079         9.34043         0.85017 
        5.24649          9.2901        0.843929 
        5.26217         9.21611        0.837755 
        5.27788         9.17881        0.831635 
        5.29359         9.07912        0.825576 
        5.30933         9.02458        0.819568 
        5.32504         8.95828        0.813632 
        5.34073         8.90309        0.807761 
        5.35646         8.81682        0.801937 
        5.37218         8.76186        0.796169 
        5.38789         8.69712        0.790469 
        5.40357          8.6149        0.784831 
        5.41929         8.58491        0.779236 
        5.43502         8.51257        0.773696 
         5.4507         8.43689        0.768223 
        5.46639         8.39144        0.762803 
        5.48212         8.32873        0.757423 
        5.49786         8.26539        0.752089 
        5.51353          8.2173        0.746834 
        5.52921         8.16759        0.741624 
        5.54495         8.10988        0.736449 
        5.56066         8.02636        0.731329 
        5.57637         7.98648        0.726259 
        5.59207         7.92845        0.721242 
        5.60778         7.87776        0.716271 
        5.62346         7.81018        0.711355 
        5.63916         7.76605         0.70648 
        5.65487         7.70498        0.701649 
         5.6706         7.66077        0.696858 
        5.68633         7.59996         0.69211 
        5.70203         7.54527        0.687417 
        5.71773         7.49709        0.682769 
        5.73344         7.44992        0.678161 
        5.74916          7.4007        0.673592 
        5.76486         7.34718        0.669072 
        5.78054         7.29894        0.664601 
        5.79626         7.23034        0.660159 
          5.812         7.21095        0.655753 
         5.8277         7.15411          0.6514 
        5.84339         7.09782        0.647088 
        5.85911         7.02343        0.642806 
        5.87484         7.00277        0.638565 
        5.89053         6.95333         0.63437 
        5.90623         6.90642        0.630212 
        5.92195         6.85812        0.626084 
        5.93767         6.79983        0.621996 
        5.95336         6.76167        0.617951 
        5.96905         6.71779        0.613944 
        5.98476         6.67116        0.609968 
        6.00048         6.62843        0.606025 
        6.01617         6.58231        0.602123 
        6.03185         6.54768        0.598261 
        6.04756         6.49705        0.594424 
        6.06331         6.45729        0.590612 
        6.07903         6.40936        0.586842 
        6.09473          6.3728        0.583109 
        6.11044         6.34558        0.579405 
        6.12616         6.28555        0.575734 
        6.14186         6.24696          0.5721 
        6.15755         6.20832        0.568497 
        6.17326          6.1778        0.564922 
        6.18898         6.12052        0.561377 
        6.20467         6.08751        0.557869 
        6.22036         6.05072        0.554392 
         6.2361         6.00337        0.550935 
         6.2518         5.96237        0.547513 
        6.26748         5.93392        0.544129 
        6.28319         5.89647        0.540763 
        6.29893         5.85645        0.537424 
        6.31463          5.8114        0.534119 
        6.33033          5.7817        0.530843 
        6.34604          5.7451        0.527593 
        6.36177         5.71049        0.524366 
        6.37747         5.67319        0.521173 
