# k  (h/Mpc)    Pcb(k)  (Mpc/h)^3    Pcb_linear(k) (Mpc/h)^3   ShotnoiseSubtracted = true
      0.0200456         11881.2         12080.4 
      0.0350414         8659.87         8420.07 
      0.0492313         5843.61         5885.81 
      0.0637834         4800.86         4962.68 
      0.0800726            3880         4070.56 
       0.096163         2984.79         2881.81 
       0.111083         2360.44         2225.93 
       0.126058         1994.96         2012.15 
       0.142273         1764.23         1767.67 
       0.158546         1437.77         1380.83 
        0.17375         1235.06         1128.91 
       0.188953         1148.21         1030.27 
       0.204907         994.623         941.492 
       0.220756         893.609          799.49 
        0.23588         786.974         680.579 
         0.2514         703.634         615.947 
       0.267535         686.163         569.386 
       0.283568         601.055         507.491 
       0.299022         571.396         447.549 
       0.314451         575.386         406.308 
       0.330372         495.239          376.65 
       0.346141         459.513         345.539 
       0.361624          438.79          313.49 
       0.377134         409.394         287.029 
       0.392932          397.44         266.528 
       0.408854         378.499         247.594 
       0.424564         365.241         228.756 
       0.440253         330.269         211.684 
       0.455999         315.534         197.432 
       0.471626         316.201         184.952 
        0.48727         300.327         172.968 
       0.502856         275.415         161.794 
       0.518488         276.438         151.835 
       0.534347         256.916         142.843 
       0.550082         249.741         134.559 
       0.565732         248.322         126.818 
       0.581496         234.189         119.665 
       0.597222         228.111         113.177 
       0.612804         221.576         107.241 
       0.628434         214.151         101.677 
       0.644267         204.484         96.4209 
       0.660051         200.864         91.5844 
       0.675724         198.074         87.1306 
       0.691403         193.262         82.9723 
       0.707174         186.525         79.0632 
       0.722871         183.557         75.4231 
        0.73838         181.566         72.0526 
       0.754018          171.47         68.8641 
       0.769845         171.373         65.8352 
        0.78569         166.832         62.9875 
       0.801365         161.828         60.3381 
       0.817031         158.016          57.845 
       0.832809         155.368         55.4792 
       0.848511         151.623         53.2586 
       0.864097         148.714         51.1769 
       0.879701         147.161         49.2066 
       0.895507         143.205         47.3184 
       0.911279         139.272          45.535 
        0.92691         136.964         43.8598 
       0.942635         134.436          42.261 
       0.958396         132.539         40.7399 
       0.974128         129.741         39.2976 
       0.989692         126.568         37.9405 
        1.00528         125.233         36.6465 
        1.02113         121.932         35.3935 
        1.03692         121.087         34.2045 
        1.05264         119.502         33.0765 
        1.06832         116.489         32.0018 
        1.08405         114.881         30.9727 
        1.09979         114.116         29.9889 
        1.11537         111.205         29.0582 
        1.13105         109.972         28.1621 
        1.14679         108.013         27.3008 
        1.16256         106.061         26.4743 
        1.17828         104.914         25.6854 
        1.19395         102.364         24.9316 
         1.2097          101.71         24.2048 
        1.22537          99.589         23.5108 
          1.241         98.9874         22.8466 
        1.25666         96.1286         22.2067 
        1.27241         94.8921         21.5887 
        1.28819         94.3282         20.9935 
        1.30392         92.5954         20.4228 
        1.31957          91.327         19.8761 
        1.33529         90.1655         19.3478 
        1.35108         89.5803         18.8369 
        1.36674         87.8801         18.3483 
         1.3824         87.4341         17.8777 
        1.39811         85.1615         17.4223 
        1.41389         84.1972         16.9813 
        1.42964          82.729         16.5565 
        1.44531          82.316         16.1484 
        1.46101         81.2891         15.7535 
        1.47667         80.2141         15.3731 
        1.49229          79.365         15.0065 
        1.50793         78.0447         14.6516 
        1.52367         77.5401          14.306 
        1.53953         76.3843         13.9694 
        1.55526         74.9592         13.6465 
        1.57092         74.8828         13.3353 
        1.58662         73.7792         13.0331 
        1.60235         72.6328         12.7399 
        1.61809         71.5665         12.4556 
        1.63369         70.6595         12.1826 
        1.64941         70.5438          11.916 
        1.66519         68.8017         11.6565 
        1.68085         68.2429         11.4067 
        1.69652         67.0049         11.1642 
        1.71228         66.3818         10.9275 
        1.72806         66.0619         10.6976 
        1.74368         64.8713         10.4766 
        1.75933         64.4199         10.2616 
        1.77505         63.7241         10.0516 
        1.79081         62.6955         9.84722 
         1.8065         62.3824         9.64947 
        1.82218         60.7783          9.4574 
        1.83797         60.4479          9.2693 
        1.85367         59.7682         9.08742 
        1.86928           59.23         8.91158 
        1.88497          58.392         8.73949 
        1.90073         57.5765         8.57136 
        1.91647         57.2422         8.40786 
        1.93218         56.6198         8.24903 
        1.94787         55.8195         8.09458 
        1.96363         55.0248         7.94353 
        1.97935         54.5041         7.79669 
        1.99499         53.9451         7.65443 
        2.01064         53.3037         7.51557 
         2.0264         52.8663         7.37932 
        2.04216         52.0829         7.24655 
        2.05781         51.4454         7.11793 
        2.07353         50.7519         6.99201 
        2.08928          50.332          6.8689 
        2.10499         49.9376         6.74912 
        2.12065         49.3285         6.63259 
        2.13633         48.9441         6.51875 
        2.15211         48.2322         6.40687 
        2.16785         47.4615         6.29796 
        2.18349         46.9663          6.1923 
        2.19916         46.4987         6.08887 
        2.21489         46.2679         5.98749 
        2.23063         45.4896         5.88837 
         2.2463         45.1167         5.79197 
        2.26194          44.762           5.698 
        2.27765         44.0891         5.60565 
        2.29341         43.4232         5.51513 
        2.30914         43.0488         5.42682 
        2.32486         42.5354         5.34052 
        2.34061         42.1815         5.25597 
        2.35635         41.6158         5.17335 
        2.37203         41.2154         5.09281 
        2.38768         40.9817         5.01418 
        2.40339         40.5048         4.93693 
        2.41914         40.1703         4.86116 
        2.43483         39.3531         4.78726 
         2.4505         39.2998         4.71504 
        2.46622         38.8159         4.64407 
        2.48195         38.3901         4.57458 
        2.49759         37.9551          4.5069 
        2.51328         37.5961         4.44043 
        2.52906         37.2035         4.37489 
        2.54479         36.9261         4.31094 
        2.56049         36.3957          4.2484 
        2.57618         36.0911         4.18717 
        2.59189         35.6439         4.12707 
        2.60758         35.2182         4.06826 
        2.62325         35.1607         4.01067 
        2.63898         34.6409         3.95402 
        2.65468          34.211         3.89859 
        2.67044         34.0293         3.84399 
        2.68618         33.6711         3.79058 
        2.70184          33.222         3.73841 
        2.71755         32.9371          3.6871 
        2.73329         32.5041         3.63669 
        2.74897         32.1914          3.5874 
        2.76462         31.8513         3.53913 
        2.78034          31.629         3.49157 
        2.79607         31.2718         3.44484 
        2.81179         30.9898         3.39903 
        2.82749         30.7003         3.35411 
        2.84321         30.3601         3.30996 
        2.85893         30.0352         3.26663 
        2.87462         29.8359         3.22416 
        2.89033         29.4625         3.18241 
        2.90605         29.2344         3.14137 
        2.92176         29.0544         3.10109 
        2.93747         28.6718         3.06154 
        2.95318         28.4364         3.02268 
        2.96891         28.1753         2.98448 
        2.98456         27.8554         2.94712 
        3.00023         27.5138         2.91035 
        3.01596         27.2758          2.8741 
        3.03164         26.9764         2.83858 
        3.04738         26.8159         2.80356 
         3.0631         26.5782         2.76915 
        3.07883         26.2051         2.73533 
        3.09456         25.9484         2.70208 
        3.11026         25.6713         2.66944 
        3.12596         25.4164         2.63734 
        3.14163         25.1862         2.60586 
        3.15734         25.0278         2.57482 
        3.17308         24.6849         2.54422 
        3.18879         24.5514          2.5142 
        3.20447         24.2905         2.48472 
         3.2202          23.984         2.45563 
         3.2359         23.7974         2.42705 
        3.25157          23.591         2.39901 
        3.26729         23.4375         2.37132 
        3.28304         23.1238         2.34403 
        3.29877         22.8987          2.3172 
        3.31446         22.7351         2.29086 
        3.33014         22.4878         2.26495 
        3.34585         22.3188         2.23941 
        3.36158         22.0544         2.21423 
        3.37727         21.8558         2.18952 
        3.39294         21.7098         2.16521 
        3.40867         21.5048         2.14119 
        3.42439         21.2813         2.11755 
        3.44008         21.0582         2.09432 
        3.45578         20.9159         2.07142 
        3.47153         20.6682         2.04882 
        3.48724          20.576          2.0266 
        3.50292         20.3111         2.00476 
        3.51859         20.1615         1.98326 
        3.53431         19.9925         1.96201 
        3.55007         19.7651         1.94102 
        3.56577         19.6132         1.92043 
        3.58146         19.4153         1.90014 
        3.59719         19.2443         1.88011 
        3.61292         19.0966         1.86037 
        3.62859         18.8539           1.841 
        3.64429         18.6539         1.82186 
        3.66003         18.6152         1.80295 
        3.67578         18.4303         1.78431 
        3.69146         18.2028         1.76601 
        3.70712         18.0539           1.748 
        3.72284         17.9179         1.73018 
        3.73853          17.761         1.71264 
        3.75422         17.6036         1.69533 
        3.76993         17.4202         1.67826 
        3.78564         17.2929         1.66143 
        3.80137         17.1304         1.64481 
        3.81707         16.9806         1.62845 
        3.83279         16.7918          1.6123 
        3.84853         16.6437         1.59634 
        3.86424         16.4918         1.58064 
        3.87992         16.3779         1.56517 
        3.89561         16.2451         1.54992 
        3.91134         16.1022         1.53483 
        3.92704         16.0056         1.51997 
        3.94273         15.8505         1.50532 
        3.95845         15.6671         1.49083 
        3.97418         15.5071         1.47654 
        3.98988         15.4132         1.46246 
        4.00554          15.312          1.4486 
        4.02125         15.1148         1.43488 
        4.03698         14.9744         1.42132 
        4.05268         14.9062         1.40797 
        4.06839         14.7357         1.39478 
         4.0841         14.6273         1.38177 
        4.09983         14.4569          1.3689 
        4.11555         14.3869         1.35621 
        4.13124         14.2848         1.34371 
        4.14693         14.1356         1.33136 
        4.16266         14.0481         1.31914 
        4.17839         13.8875         1.30709 
        4.19408         13.7616         1.29521 
        4.20977         13.6849         1.28347 
        4.22551         13.5431         1.27186 
        4.24123         13.4117          1.2604 
        4.25691         13.3058         1.24912 
        4.27259         13.2055         1.23797 
        4.28831         13.1334         1.22694 
        4.30404         13.0401         1.21603 
        4.31974         12.8974         1.20528 
        4.33543         12.7651         1.19466 
        4.35116         12.6651         1.18416 
        4.36688         12.5443         1.17378 
        4.38255         12.4652         1.16357 
        4.39825         12.3618         1.15345 
        4.41398          12.263         1.14344 
         4.4297         12.1497         1.13356 
        4.44541         12.0624          1.1238 
        4.46111         11.9658         1.11416 
        4.47683         11.8507         1.10463 
        4.49251         11.7597         1.09523 
        4.50819         11.6527         1.08595 
         4.5239         11.5782         1.07676 
        4.53962         11.4938         1.06767 
        4.55535         11.3872         1.05867 
        4.57106         11.3198          1.0498 
        4.58678         11.2101         1.04103 
         4.6025         11.1277         1.03235 
        4.61821         11.0252         1.02378 
        4.63391         10.9526         1.01531 
         4.6496         10.8622         1.00695 
        4.66532         10.7856        0.998669 
        4.68103         10.6809        0.990486 
        4.69673         10.5797        0.982402 
        4.71241         10.5247        0.974418 
        4.72811         10.4355         0.96651 
        4.74384         10.3505        0.958681 
        4.75955         10.2769        0.950952 
        4.77525         10.1876        0.943313 
        4.79096          10.121        0.935749 
        4.80669         10.0412        0.928265 
         4.8224         9.95466        0.920873 
        4.83809         9.86947         0.91357 
        4.85379         9.80465        0.906342 
         4.8695         9.71464        0.899187 
        4.88521          9.6291        0.892114 
        4.90093         9.57772        0.885116 
        4.91663         9.48124          0.8782 
        4.93234         9.43372        0.871352 
        4.94807         9.33438        0.864573 
        4.96377         9.29093        0.857879 
        4.97943         9.20774        0.851271 
        4.99514         9.11205        0.844716 
        5.01086         9.08235        0.838226 
        5.02654         9.00668        0.831822 
        5.04227         8.92066        0.825466 
          5.058          8.8504        0.819174 
        5.07371         8.79703        0.812961 
        5.08942          8.7348        0.806812 
        5.10513         8.64723        0.800727 
        5.12084         8.62462        0.794702 
        5.13656         8.53699        0.788741 
        5.15225          8.4611        0.782851 
        5.16796         8.41193        0.777013 
        5.18369         8.33582         0.77123 
         5.1994         8.27852        0.765517 
        5.21509         8.23257        0.759867 
        5.23079         8.16097        0.754269 
        5.24649         8.09908        0.748731 
        5.26217         8.04064        0.743254 
        5.27788         7.99321        0.737824 
        5.29359         7.92271        0.732448 
        5.30933         7.86967        0.727119 
        5.32504         7.82148        0.721852 
        5.34073         7.76263        0.716643 
        5.35646          7.6923        0.711476 
        5.37218         7.63685        0.706359 
        5.38789         7.57268        0.701301 
        5.40357         7.53524          0.6963 
        5.41929         7.48521        0.691336 
        5.43502         7.43069        0.686421 
         5.4507         7.38095        0.681565 
        5.46639         7.32236        0.676757 
        5.48212         7.27628        0.671984 
        5.49786         7.23362        0.667251 
        5.51353         7.17374        0.662589 
        5.52921         7.11904        0.657966 
        5.54495         7.06144        0.653375 
        5.56066         7.01103        0.648833 
        5.57637         6.98399        0.644335 
        5.59207         6.92439        0.639884 
        5.60778         6.87171        0.635474 
        5.62346          6.8208        0.631112 
        5.63916         6.78174        0.626787 
        5.65487         6.74605        0.622501 
         5.6706         6.69104         0.61825 
        5.68633         6.64627        0.614038 
        5.70203         6.59101        0.609874 
        5.71773         6.55292         0.60575 
        5.73344         6.50749        0.601663 
        5.74916         6.44276        0.597609 
        5.76486         6.41705        0.593599 
        5.78054         6.36375        0.589632 
        5.79626         6.32126        0.585691 
          5.812         6.28411        0.581782 
         5.8277         6.23111         0.57792 
        5.84339         6.20609        0.574094 
        5.85911         6.15408        0.570296 
        5.87484         6.11972        0.566533 
        5.89053         6.07454        0.562811 
        5.90623         6.03589        0.559122 
        5.92195         5.98373         0.55546 
        5.93767         5.96139        0.551833 
        5.95336         5.90502        0.548244 
        5.96905         5.87479         0.54469 
        5.98476         5.83603        0.541161 
        6.00048         5.79652        0.537664 
        6.01617         5.74893        0.534202 
        6.03185         5.71928        0.530775 
        6.04756         5.68591        0.527371 
        6.06331         5.64444        0.523989 
        6.07903         5.60048        0.520645 
        6.09473         5.57175        0.517332 
        6.11044         5.53534        0.514047 
        6.12616           5.498         0.51079 
        6.14186         5.46086        0.507565 
        6.15755         5.43775        0.504368 
        6.17326         5.39116        0.501197 
        6.18898         5.35661        0.498052 
        6.20467         5.31803         0.49494 
        6.22036         5.29184        0.491855 
         6.2361         5.25531        0.488788 
         6.2518         5.21238        0.485752 
        6.26748         5.19064        0.482749 
        6.28319         5.16515        0.479764 
        6.29893         5.12113        0.476801 
        6.31463         5.10218        0.473869 
        6.33033         5.05317        0.470962 
        6.34604         5.02641        0.468079 
        6.36177          4.9963        0.465216 
        6.37747         4.96021        0.462384 
