# k  (h/Mpc)    Pcb(k)  (Mpc/h)^3    Pcb_linear(k) (Mpc/h)^3   ShotnoiseSubtracted = true
      0.0200456         12631.2         12845.4 
      0.0350414         9212.87         8953.23 
      0.0492313          6208.3          6258.5 
      0.0637834         5098.25         5276.92 
      0.0800726         4118.71         4328.31 
       0.096163         3175.51         3064.29 
       0.111083         2512.62         2366.88 
       0.126058         2120.94         2139.56 
       0.142273         1877.29          1879.6 
       0.158546         1530.47         1468.27 
        0.17375         1317.32         1200.39 
       0.188953         1226.87         1095.51 
       0.204907          1062.7         1001.11 
       0.220756         955.383         850.115 
        0.23588         842.224         723.674 
         0.2514         753.272         654.949 
       0.267535         734.865         605.439 
       0.283568         644.202         539.625 
       0.299022         613.076         475.888 
       0.314451         619.707         432.036 
       0.330372         533.382         400.499 
       0.346141         494.668         367.419 
       0.361624         472.815         333.341 
       0.377134         442.454         305.203 
       0.392932         428.983         283.405 
       0.408854         408.785         263.272 
       0.424564         394.934         243.241 
       0.440253         357.532         225.088 
       0.455999         341.948         209.934 
       0.471626         343.745         196.663 
        0.48727         326.023          183.92 
       0.502856         299.592         172.039 
       0.518488         300.643          161.45 
       0.534347         279.595         151.888 
       0.550082         271.188          143.08 
       0.565732         269.948         134.848 
       0.581496         255.856         127.242 
       0.597222         248.916         120.344 
       0.612804         241.997         114.032 
       0.628434         233.583         108.115 
       0.644267         223.286         102.526 
       0.660051         219.727         97.3836 
       0.675724          216.57         92.6478 
       0.691403          211.27         88.2261 
       0.707174         203.847         84.0696 
       0.722871         200.651         80.1989 
        0.73838         198.588          76.615 
       0.754018         188.081         73.2246 
       0.769845         187.936         70.0039 
        0.78569         182.991         66.9759 
       0.801365         177.637         64.1588 
       0.817031         173.739         61.5078 
       0.832809         170.804         58.9921 
       0.848511         166.677         56.6309 
       0.864097         163.197         54.4175 
       0.879701         161.824         52.3223 
       0.895507         157.762         50.3146 
       0.911279          153.16         48.4183 
        0.92691         150.896          46.637 
       0.942635         148.445          44.937 
       0.958396         145.966         43.3196 
       0.974128         142.969          41.786 
       0.989692         139.253         40.3429 
        1.00528         138.033          38.967 
        1.02113         134.603         37.6346 
        1.03692         133.226         36.3704 
        1.05264         131.438         35.1709 
        1.06832         128.787         34.0282 
        1.08405          126.56         32.9339 
        1.09979         125.771         31.8878 
        1.11537         122.723         30.8982 
        1.13105         121.359         29.9453 
        1.14679         119.234         29.0295 
        1.16256          117.19         28.1507 
        1.17828         115.821         27.3118 
        1.19395         113.119         26.5103 
         1.2097         112.209         25.7374 
        1.22537         110.102         24.9995 
          1.241         109.039         24.2932 
        1.25666         106.336         23.6128 
        1.27241         104.555         22.9557 
        1.28819         103.981         22.3228 
        1.30392         102.124          21.716 
        1.31957         100.546         21.1347 
        1.33529         99.3664         20.5729 
        1.35108         98.6073         20.0296 
        1.36674         96.7036         19.5101 
         1.3824         96.3242         19.0097 
        1.39811         93.8443         18.5255 
        1.41389         92.8911         18.0565 
        1.42964         91.0564         17.6048 
        1.44531         90.5668          17.171 
        1.46101         89.2916          16.751 
        1.47667         88.4052         16.3466 
        1.49229         87.5035         15.9567 
        1.50793         85.8587         15.5794 
        1.52367          85.244         15.2119 
        1.53953         84.1293          14.854 
        1.55526         82.5843         14.5106 
        1.57092         82.3464         14.1797 
        1.58662         81.1769         13.8584 
        1.60235         79.8305         13.5465 
        1.61809         78.9163         13.2443 
        1.63369          77.714         12.9541 
        1.64941         77.7039         12.6706 
        1.66519         75.8443         12.3946 
        1.68085         75.0861          12.129 
        1.69652         73.8202         11.8712 
        1.71228          73.013         11.6194 
        1.72806         72.6951         11.3749 
        1.74368         71.3724           11.14 
        1.75933         70.8464         10.9113 
        1.77505         70.1352         10.6881 
        1.79081         68.9206         10.4708 
         1.8065         68.5762         10.2605 
        1.82218         67.0351         10.0562 
        1.83797         66.6696         9.85624 
        1.85367         65.7002         9.66284 
        1.86928         65.0895         9.47586 
        1.88497         64.3586         9.29288 
        1.90073         63.4798          9.1141 
        1.91647         62.8343         8.94025 
        1.93218         62.1782         8.77136 
        1.94787         61.3456         8.60714 
        1.96363         60.5664         8.44652 
        1.97935         59.9741         8.29038 
        1.99499         59.3186         8.13912 
        2.01064         58.7138         7.99146 
         2.0264         58.0068         7.84658 
        2.04216         57.2925         7.70541 
        2.05781         56.5665         7.56865 
        2.07353         55.8977         7.43475 
        2.08928         55.2898         7.30385 
        2.10499         54.7893         7.17648 
        2.12065         54.2118         7.05257 
        2.13633         53.7781         6.93152 
        2.15211         52.9701         6.81256 
        2.16785         52.1754         6.69675 
        2.18349         51.6483          6.5844 
        2.19916          51.078         6.47442 
        2.21489         50.7401         6.36662 
        2.23063         49.9544         6.26123 
         2.2463         49.5223         6.15872 
        2.26194         49.2306          6.0588 
        2.27765         48.3978          5.9606 
        2.29341         47.7346         5.86435 
        2.30914         47.2576         5.77045 
        2.32486         46.7159         5.67868 
        2.34061         46.3331         5.58878 
        2.35635         45.6563         5.50093 
        2.37203          45.204         5.41529 
        2.38768         44.9174         5.33168 
        2.40339         44.3937         5.24954 
        2.41914         43.9762         5.16897 
        2.43483         43.1438         5.09039 
         2.4505         43.0288          5.0136 
        2.46622          42.554         4.93814 
        2.48195         41.9995         4.86425 
        2.49759         41.5411         4.79228 
        2.51328          41.199          4.7216 
        2.52906         40.7411         4.65191 
        2.54479          40.448         4.58391 
        2.56049         39.7149         4.51741 
        2.57618         39.4717         4.45231 
        2.59189         39.0128          4.3884 
        2.60758         38.4947         4.32586 
        2.62325         38.4126         4.26463 
        2.63898         37.8487         4.20439 
        2.65468         37.4298         4.14545 
        2.67044         37.2002          4.0874 
        2.68618         36.8157         4.03061 
        2.70184          36.255         3.97513 
        2.71755         35.9939         3.92057 
        2.73329         35.4148         3.86697 
        2.74897         35.1745         3.81455 
        2.76462         34.7225         3.76323 
        2.78034         34.4948         3.71266 
        2.79607         34.0558         3.66297 
        2.81179         33.7333         3.61425 
        2.82749         33.4529         3.56649 
        2.84321         33.0271         3.51955 
        2.85893         32.6979         3.47347 
        2.87462         32.4413         3.42831 
        2.89033         32.1046         3.38392 
        2.90605         31.8026         3.34028 
        2.92176         31.6157         3.29745 
        2.93747         31.2527         3.25539 
        2.95318         30.8926         3.21407 
        2.96891         30.6233         3.17346 
        2.98456         30.3222         3.13373 
        3.00023         29.9614         3.09463 
        3.01596         29.6933         3.05609 
        3.03164         29.3289         3.01832 
        3.04738         29.1361         2.98109 
         3.0631         28.9171          2.9445 
        3.07883         28.5112         2.90853 
        3.09456         28.1911         2.87317 
        3.11026         27.9076         2.83847 
        3.12596         27.6363         2.80434 
        3.14163         27.3671         2.77086 
        3.15734         27.1612         2.73786 
        3.17308          26.802         2.70532 
        3.18879         26.6345          2.6734 
        3.20447         26.3838         2.64206 
         3.2202         26.0277         2.61112 
         3.2359         25.7947         2.58073 
        3.25157         25.6315         2.55091 
        3.26729         25.4147         2.52148 
        3.28304          25.016         2.49245 
        3.29877         24.8145         2.46393 
        3.31446          24.615         2.43592 
        3.33014         24.3881         2.40837 
        3.34585         24.1476         2.38121 
        3.36158         23.9325         2.35444 
        3.37727         23.6463         2.32816 
        3.39294         23.4774         2.30232 
        3.40867           23.27         2.27677 
        3.42439         23.0244         2.25164 
        3.44008         22.7698         2.22693 
        3.45578         22.6686         2.20259 
        3.47153         22.3718         2.17855 
        3.48724         22.1782         2.15492 
        3.50292         21.9658          2.1317 
        3.51859         21.7914         2.10884 
        3.53431         21.5956         2.08624 
        3.55007         21.3795         2.06393 
        3.56577          21.191         2.04203 
        3.58146         20.9918         2.02046 
        3.59719         20.7558         1.99916 
        3.61292         20.6044         1.97817 
        3.62859         20.3734         1.95757 
        3.64429          20.133         1.93723 
        3.66003         20.0987         1.91711 
        3.67578         19.8914         1.89729 
        3.69146         19.6331         1.87783 
        3.70712         19.5181         1.85868 
        3.72284         19.3057         1.83973 
        3.73853          19.167         1.82108 
        3.75422         18.9709         1.80268 
        3.76993         18.8279         1.78453 
        3.78564         18.6539         1.76663 
        3.80137           18.49         1.74896 
        3.81707          18.306         1.73156 
        3.83279         18.1188         1.71439 
        3.84853         17.9503         1.69743 
        3.86424         17.7829         1.68073 
        3.87992         17.6259         1.66428 
        3.89561         17.5174         1.64806 
        3.91134         17.3106         1.63202 
        3.92704         17.2133         1.61621 
        3.94273         17.0301         1.60063 
        3.95845         16.8962         1.58524 
        3.97418          16.704         1.57004 
        3.98988         16.5814         1.55506 
        4.00554          16.494         1.54032 
        4.02125         16.2677         1.52574 
        4.03698          16.101         1.51132 
        4.05268         16.0164         1.49712 
        4.06839          15.864          1.4831 
         4.0841         15.7247         1.46926 
        4.09983         15.5639         1.45558 
        4.11555         15.4472         1.44208 
        4.13124         15.3463          1.4288 
        4.14693         15.2405         1.41567 
        4.16266         15.0988         1.40267 
        4.17839         14.9319         1.38985 
        4.19408          14.801         1.37722 
        4.20977         14.6998         1.36474 
        4.22551         14.5699         1.35239 
        4.24123         14.4133         1.34021 
        4.25691         14.2736         1.32821 
        4.27259         14.2013         1.31636 
        4.28831         14.1248         1.30463 
        4.30404         13.9578         1.29303 
        4.31974          13.842          1.2816 
        4.33543         13.7172         1.27031 
        4.35116         13.5997         1.25914 
        4.36688         13.4831          1.2481 
        4.38255         13.3908         1.23724 
        4.39825         13.2529         1.22649 
        4.41398         13.1742         1.21584 
         4.4297         13.0385         1.20534 
        4.44541         12.9354         1.19496 
        4.46111         12.8553         1.18471 
        4.47683         12.7279         1.17458 
        4.49251         12.6388         1.16459 
        4.50819         12.5242         1.15471 
         4.5239         12.4243         1.14494 
        4.53962         12.3348         1.13527 
        4.55535         12.2269         1.12571 
        4.57106         12.1172         1.11627 
        4.58678         12.0388         1.10694 
         4.6025         11.9403         1.09772 
        4.61821         11.8237          1.0886 
        4.63391          11.743          1.0796 
         4.6496         11.6429         1.07071 
        4.66532         11.5675         1.06191 
        4.68103         11.4487          1.0532 
        4.69673         11.3497         1.04461 
        4.71241         11.2906         1.03612 
        4.72811         11.2062         1.02771 
        4.74384         11.0945         1.01939 
        4.75955         11.0181         1.01117 
        4.77525          10.944         1.00304 
        4.79096         10.8648        0.995001 
        4.80669         10.7806        0.987044 
         4.8224         10.6812        0.979183 
        4.83809         10.5997        0.971417 
        4.85379         10.5117        0.963732 
         4.8695         10.4185        0.956124 
        4.88521         10.3473        0.948603 
        4.90093         10.2882        0.941162 
        4.91663         10.1736        0.933808 
        4.93234          10.113        0.926526 
        4.94807         10.0322        0.919318 
        4.96377         9.95942          0.9122 
        4.97943         9.88456        0.905174 
        4.99514         9.76193        0.898204 
        5.01086         9.74823        0.891303 
        5.02654          9.6682        0.884493 
        5.04227         9.55795        0.877735 
          5.058         9.49502        0.871045 
        5.07371         9.42914        0.864438 
        5.08942         9.37375          0.8579 
        5.10513         9.27974        0.851429 
        5.12084         9.25096        0.845023 
        5.13656         9.13802        0.838684 
        5.15225         9.06642        0.832422 
        5.16796          9.0226        0.826214 
        5.18369          8.9352        0.820065 
         5.1994         8.88109         0.81399 
        5.21509         8.81688        0.807983 
        5.23079         8.74675        0.802029 
        5.24649         8.67426        0.796142 
        5.26217          8.6038        0.790317 
        5.27788         8.58185        0.784544 
        5.29359         8.48498        0.778827 
        5.30933          8.4263         0.77316 
        5.32504          8.3764         0.76756 
        5.34073         8.31976        0.762021 
        5.35646         8.24471        0.756527 
        5.37218         8.18504        0.751086 
        5.38789         8.11263        0.745708 
        5.40357         8.05466         0.74039 
        5.41929         8.01944        0.735112 
        5.43502          7.9586        0.729885 
         5.4507         7.89998        0.724722 
        5.46639         7.84411        0.719609 
        5.48212          7.7965        0.714534 
        5.49786         7.73756        0.709502 
        5.51353         7.67484        0.704544 
        5.52921         7.63668        0.699629 
        5.54495         7.57115        0.694747 
        5.56066         7.50372        0.689917 
        5.57637         7.47069        0.685135 
        5.59207         7.41492        0.680402 
        5.60778         7.35753        0.675712 
        5.62346         7.30075        0.671074 
        5.63916         7.25836        0.666476 
        5.65487         7.22387        0.661918 
         5.6706         7.15855        0.657398 
        5.68633         7.11532         0.65292 
        5.70203         7.05099        0.648492 
        5.71773         7.01681        0.644107 
        5.73344         6.96828         0.63976 
        5.74916         6.90982         0.63545 
        5.76486         6.87654        0.631186 
        5.78054         6.81819        0.626968 
        5.79626         6.76188        0.622777 
          5.812         6.73459        0.618621 
         5.8277         6.67438        0.614515 
        5.84339         6.63192        0.610446 
        5.85911         6.57699        0.606407 
        5.87484         6.54857        0.602406 
        5.89053         6.50493        0.598449 
        5.90623         6.46758        0.594526 
        5.92195         6.41124        0.590632 
        5.93767         6.36889        0.586775 
        5.95336         6.32763         0.58296 
        5.96905         6.28287         0.57918 
        5.98476          6.2369        0.575428 
        6.00048         6.20518        0.571709 
        6.01617         6.16549        0.568028 
        6.03185         6.11701        0.564384 
        6.04756         6.07768        0.560764 
        6.06331         6.04738        0.557168 
        6.07903          5.9967        0.553612 
        6.09473         5.96613         0.55009 
        6.11044         5.92769        0.546596 
        6.12616          5.8772        0.543133 
        6.14186         5.84683        0.539704 
        6.15755         5.81878        0.536305 
        6.17326         5.77562        0.532933 
        6.18898         5.72928        0.529589 
        6.20467         5.69147         0.52628 
        6.22036         5.66095        0.522999 
         6.2361         5.62574        0.519738 
         6.2518         5.57743         0.51651 
        6.26748         5.55931        0.513317 
        6.28319         5.51714        0.510143 
        6.29893          5.4776        0.506992 
        6.31463         5.45443        0.503875 
        6.33033         5.40851        0.500784 
        6.34604         5.38012        0.497718 
        6.36177          5.3465        0.494674 
        6.37747           5.313        0.491662 
