# k  (h/Mpc)    Pcb(k)  (Mpc/h)^3    Pcb_linear(k) (Mpc/h)^3   ShotnoiseSubtracted = true
      0.0200456         4015.97         4085.16 
      0.0350414         2808.29         2847.36 
      0.0492313         1994.31         1990.36 
      0.0637834         1707.28         1678.19 
      0.0800726         1389.43         1376.51 
       0.096163         964.999         974.522 
       0.111083         744.285         752.727 
       0.126058         687.914         680.434 
       0.142273         608.269         597.762 
       0.158546         485.935         466.947 
        0.17375         387.291         381.756 
       0.188953         365.124           348.4 
       0.204907         346.233         318.378 
       0.220756         289.916         270.358 
        0.23588         249.713         230.147 
         0.2514         221.181         208.291 
       0.267535         209.131         192.545 
       0.283568          189.35         171.615 
       0.299022         171.952         151.344 
       0.314451         154.634         137.399 
       0.330372         144.531         127.369 
       0.346141         131.213         116.849 
       0.361624         123.031         106.011 
       0.377134         115.591         97.0625 
       0.392932          103.61         90.1301 
       0.408854         100.019         83.7271 
       0.424564         95.2573         77.3567 
       0.440253         88.3142         71.5836 
       0.455999          83.164         66.7644 
       0.471626         77.5113         62.5439 
        0.48727          74.663         58.4913 
       0.502856         70.6247         54.7127 
       0.518488          67.794         51.3451 
       0.534347         65.2478         48.3041 
       0.550082         59.9267          45.503 
       0.565732         56.6085         42.8851 
       0.581496         55.0698         40.4663 
       0.597222         53.3047         38.2724 
       0.612804         50.0998         36.2651 
       0.628434         48.6301         34.3833 
       0.644267         47.3144          32.606 
       0.660051         45.3065         30.9705 
       0.675724         43.1254         29.4644 
       0.691403         41.8328         28.0582 
       0.707174         40.5938         26.7363 
       0.722871         39.0827         25.5053 
        0.73838         37.8746         24.3655 
       0.754018         36.2309         23.2873 
       0.769845         35.3361          22.263 
        0.78569         34.2857            21.3 
       0.801365         33.0454         20.4041 
       0.817031         32.3312         19.5611 
       0.832809         31.7074          18.761 
       0.848511         29.8451         18.0101 
       0.864097         29.3832         17.3062 
       0.879701         28.7618         16.6398 
       0.895507         28.1245         16.0013 
       0.911279         27.2514         15.3982 
        0.92691         26.6156         14.8318 
       0.942635          25.596         14.2911 
       0.958396         25.2296         13.7767 
       0.974128         24.4766          13.289 
       0.989692         24.2265         12.8301 
        1.00528         23.6511         12.3925 
        1.02113          22.746         11.9688 
        1.03692         22.2944         11.5667 
        1.05264         21.9384         11.1852 
        1.06832         21.3983         10.8218 
        1.08405         20.8646         10.4738 
        1.09979         20.4619         10.1411 
        1.11537         20.0702         9.82642 
        1.13105          19.757         9.52337 
        1.14679         19.4714         9.23211 
        1.16256         18.7649         8.95265 
        1.17828         18.7307         8.68584 
        1.19395         18.1223         8.43096 
         1.2097         17.9676         8.18516 
        1.22537         17.5199         7.95049 
          1.241         17.2409         7.72587 
        1.25666         16.8294         7.50948 
        1.27241         16.4968         7.30049 
        1.28819         16.1939         7.09922 
        1.30392         16.0742         6.90623 
        1.31957          15.837         6.72138 
        1.33529         15.5724         6.54271 
        1.35108         15.1981         6.36993 
        1.36674         15.0587         6.20471 
         1.3824         14.6897         6.04558 
        1.39811         14.4767         5.89159 
        1.41389         14.3237         5.74244 
        1.42964         14.1156         5.59878 
        1.44531         13.9838         5.46081 
        1.46101         13.5753         5.32726 
        1.47667          13.443         5.19863 
        1.49229         13.2798         5.07465 
        1.50793         13.0784         4.95463 
        1.52367         12.8744         4.83777 
        1.53953         12.7078         4.72395 
        1.55526         12.5181         4.61475 
        1.57092         12.3333         4.50949 
        1.58662         12.2224         4.40732 
        1.60235         12.0097         4.30815 
        1.61809         11.8788         4.21202 
        1.63369         11.7067         4.11972 
        1.64941         11.5205         4.02956 
        1.66519         11.4447         3.94181 
        1.68085         11.2593         3.85733 
        1.69652          11.104         3.77533 
        1.71228          10.954         3.69528 
        1.72806         10.8861         3.61752 
        1.74368          10.692         3.54281 
        1.75933         10.5898         3.47008 
        1.77505          10.448         3.39908 
        1.79081         10.2721         3.32997 
         1.8065         10.2122          3.2631 
        1.82218         10.0412         3.19814 
        1.83797         9.96813         3.13454 
        1.85367         9.81738         3.07303 
        1.86928         9.80475         3.01357 
        1.88497         9.57817         2.95537 
        1.90073         9.53933         2.89852 
        1.91647         9.45238         2.84323 
        1.93218         9.35309         2.78952 
        1.94787         9.20634         2.73729 
        1.96363         9.13746         2.68621 
        1.97935         8.99265         2.63655 
        1.99499         8.87632         2.58845 
        2.01064         8.80767         2.54149 
         2.0264         8.73615         2.49541 
        2.04216         8.63156         2.45052 
        2.05781         8.50968         2.40702 
        2.07353         8.45788         2.36444 
        2.08928         8.37965         2.32281 
        2.10499         8.32731          2.2823 
        2.12065         8.19514          2.2429 
        2.13633         8.16369          2.2044 
        2.15211         8.03654         2.16657 
        2.16785         7.97174         2.12974 
        2.18349          7.9045         2.09401 
        2.19916         7.82066         2.05903 
        2.21489         7.72553         2.02475 
        2.23063         7.66637         1.99123 
         2.2463         7.57432         1.95863 
        2.26194         7.49003         1.92685 
        2.27765         7.46243         1.89562 
        2.29341         7.38402         1.86501 
        2.30914          7.2866         1.83515 
        2.32486          7.2108         1.80597 
        2.34061         7.17326         1.77738 
        2.35635         7.13084         1.74944 
        2.37203         7.04835          1.7222 
        2.38768          6.9563         1.69561 
        2.40339         6.92086         1.66949 
        2.41914         6.81679         1.64386 
        2.43483         6.80032         1.61887 
         2.4505          6.7297         1.59445 
        2.46622         6.66952         1.57045 
        2.48195         6.59549         1.54696 
        2.49759         6.57656         1.52407 
        2.51328         6.50038         1.50159 
        2.52906         6.47232         1.47943 
        2.54479         6.39198          1.4578 
        2.56049         6.34874         1.43665 
        2.57618         6.29468         1.41595 
        2.59189         6.21648         1.39562 
        2.60758         6.20509         1.37573 
        2.62325         6.12802         1.35626 
        2.63898         6.05655          1.3371 
        2.65468         6.00378         1.31836 
        2.67044         5.97836          1.2999 
        2.68618          5.9404         1.28184 
        2.70184         5.87472         1.26419 
        2.71755         5.82151         1.24684 
        2.73329         5.79236         1.22979 
        2.74897         5.76297         1.21312 
        2.76462         5.71031          1.1968 
        2.78034         5.63216         1.18072 
        2.79607         5.60311         1.16492 
        2.81179          5.5784         1.14943 
        2.82749         5.50245         1.13424 
        2.84321         5.50606         1.11931 
        2.85893         5.44839         1.10465 
        2.87462         5.38749         1.09029 
        2.89033         5.35578         1.07617 
        2.90605          5.3061          1.0623 
        2.92176         5.25539         1.04867 
        2.93747         5.22147          1.0353 
        2.95318         5.19933         1.02216 
        2.96891         5.15481         1.00924 
        2.98456         5.12023        0.996607 
        3.00023          5.0637        0.984173 
        3.01596         5.03558        0.971915 
        3.03164         5.01872        0.959903 
        3.04738         4.97375        0.948061 
         3.0631         4.92482        0.936426 
        3.07883         4.89528        0.924987 
        3.09456         4.86381        0.913743 
        3.11026         4.83655        0.902705 
        3.12596         4.79423        0.891853 
        3.14163         4.75026        0.881206 
        3.15734         4.71448         0.87071 
        3.17308         4.69259        0.860361 
        3.18879         4.65191        0.850211 
        3.20447         4.63842        0.840241 
         3.2202          4.5764        0.830402 
         3.2359         4.56655        0.820739 
        3.25157         4.51803        0.811255 
        3.26729         4.50148        0.801894 
        3.28304         4.46417        0.792664 
        3.29877         4.43392        0.783592 
        3.31446         4.39375        0.774684 
        3.33014         4.37885        0.765924 
        3.34585          4.3519        0.757287 
        3.36158         4.32681        0.748771 
        3.37727         4.28719        0.740415 
        3.39294         4.27461        0.732196 
        3.40867         4.22584        0.724072 
        3.42439         4.20431        0.716078 
        3.44008         4.16965        0.708222 
        3.45578         4.14468        0.700478 
        3.47153         4.11879        0.692835 
        3.48724         4.09182         0.68532 
        3.50292         4.06995        0.677936 
        3.51859          4.0395        0.670664 
        3.53431         4.00371        0.663479 
        3.55007         3.99092        0.656382 
        3.56577         3.97259        0.649417 
        3.58146         3.94464        0.642558 
        3.59719         3.91841        0.635783 
        3.61292         3.89177         0.62911 
        3.62859         3.85506        0.622558 
        3.64429         3.82951        0.616088 
        3.66003         3.82032        0.609691 
        3.67578         3.79557        0.603388 
        3.69146         3.75925        0.597199 
        3.70712         3.74311        0.591108 
        3.72284          3.7118        0.585082 
        3.73853         3.69672         0.57915 
        3.75422         3.67201        0.573299 
        3.76993         3.64106        0.567525 
        3.78564          3.6284        0.561834 
        3.80137         3.61005        0.556212 
        3.81707         3.57432         0.55068 
        3.83279         3.55633         0.54522 
        3.84853         3.52652        0.539825 
        3.86424         3.51148        0.534515 
        3.87992         3.48937        0.529284 
        3.89561         3.47268        0.524124 
        3.91134         3.44612        0.519023 
        3.92704         3.42737        0.513997 
        3.94273         3.40518        0.509043 
        3.95845         3.38697        0.504145 
        3.97418          3.3581        0.499312 
        3.98988         3.33915        0.494549 
        4.00554         3.31385        0.489863 
        4.02125         3.28711        0.485224 
        4.03698         3.27514        0.480638 
        4.05268         3.25356        0.476123 
        4.06839         3.23951        0.471663 
         4.0841         3.21196        0.467262 
        4.09983         3.18508        0.462912 
        4.11555         3.17129        0.458619 
        4.13124         3.14845        0.454393 
        4.14693         3.12534        0.450218 
        4.16266          3.1089        0.446085 
        4.17839         3.08921        0.442008 
        4.19408          3.0654        0.437991 
        4.20977         3.04735        0.434023 
        4.22551         3.02295        0.430096 
        4.24123         3.00917        0.426221 
        4.25691         2.99023        0.422405 
        4.27259         2.97726        0.418635 
        4.28831         2.95636        0.414904 
        4.30404         2.93868        0.411216 
        4.31974         2.92579         0.40758 
        4.33543         2.90417        0.403992 
        4.35116         2.88063        0.400438 
        4.36688          2.8757        0.396928 
        4.38255         2.85325        0.393475 
        4.39825         2.83523        0.390055 
        4.41398         2.82124         0.38667 
         4.4297         2.79876        0.383328 
        4.44541         2.78437        0.380028 
        4.46111         2.76969        0.376769 
        4.47683         2.74304        0.373546 
        4.49251          2.7387        0.370368 
        4.50819         2.71969        0.367228 
         4.5239         2.70395         0.36412 
        4.53962         2.69034        0.361045 
        4.55535         2.67681        0.358004 
        4.57106         2.66286        0.355003 
        4.58678         2.64335        0.352036 
         4.6025         2.62692        0.349103 
        4.61821          2.6122        0.346204 
        4.63391         2.59891        0.343342 
         4.6496         2.58296        0.340513 
        4.66532         2.56077        0.337713 
        4.68103         2.55491        0.334946 
        4.69673         2.53878        0.332212 
        4.71241         2.52052        0.329512 
        4.72811         2.51116        0.326838 
        4.74384         2.50007        0.324191 
        4.75955         2.48604        0.321577 
        4.77525         2.47545        0.318994 
        4.79096         2.45421        0.316436 
        4.80669         2.44673        0.313905 
         4.8224         2.43662        0.311405 
        4.83809         2.41831        0.308936 
        4.85379         2.40455        0.306491 
         4.8695         2.39154        0.304072 
        4.88521          2.3772         0.30168 
        4.90093         2.36176        0.299314 
        4.91663         2.34843        0.296975 
        4.93234         2.33815        0.294659 
        4.94807         2.32694        0.292367 
        4.96377         2.31035        0.290103 
        4.97943          2.3034        0.287868 
        4.99514         2.28926        0.285652 
        5.01086         2.27429        0.283457 
        5.02654         2.26468        0.281291 
        5.04227         2.26036        0.279142 
          5.058         2.24475        0.277014 
        5.07371         2.22945        0.274913 
        5.08942         2.22322        0.272834 
        5.10513         2.20883        0.270776 
        5.12084         2.20274        0.268739 
        5.13656         2.18475        0.266723 
        5.15225         2.17451        0.264731 
        5.16796          2.1604        0.262757 
        5.18369         2.14993        0.260802 
         5.1994         2.14286         0.25887 
        5.21509         2.12824        0.256959 
        5.23079         2.12154        0.255066 
        5.24649         2.10842        0.253193 
        5.26217         2.10287        0.251341 
        5.27788         2.08618        0.249505 
        5.29359         2.08393        0.247687 
        5.30933         2.07128        0.245885 
        5.32504         2.05877        0.244104 
        5.34073         2.05051        0.242342 
        5.35646         2.03604        0.240595 
        5.37218         2.02896        0.238865 
        5.38789         2.02514        0.237154 
        5.40357         2.01328        0.235463 
        5.41929         2.00258        0.233784 
        5.43502         1.99162        0.232122 
         5.4507         1.98181         0.23048 
        5.46639         1.97713        0.228854 
        5.48212         1.96342         0.22724 
        5.49786         1.95832         0.22564 
        5.51353         1.94306        0.224063 
        5.52921         1.93645          0.2225 
        5.54495         1.92836        0.220947 
        5.56066         1.91848        0.219411 
        5.57637         1.90935         0.21789 
        5.59207         1.90093        0.216385 
        5.60778         1.89207        0.214894 
        5.62346         1.88525        0.213419 
        5.63916         1.87324        0.211956 
        5.65487         1.86548        0.210507 
         5.6706         1.86129        0.209069 
        5.68633         1.84465        0.207645 
        5.70203         1.83779        0.206237 
        5.71773         1.83398        0.204842 
        5.73344         1.82121         0.20346 
        5.74916         1.81081        0.202089 
        5.76486         1.80741        0.200733 
        5.78054         1.79863        0.199392 
        5.79626         1.78943        0.198059 
          5.812         1.78514        0.196737 
         5.8277         1.77281        0.195431 
        5.84339         1.76745        0.194138 
        5.85911         1.75818        0.192853 
        5.87484         1.75403         0.19158 
        5.89053         1.74416        0.190322 
        5.90623         1.73462        0.189074 
        5.92195         1.72728        0.187836 
        5.93767         1.72078         0.18661 
        5.95336         1.71349        0.185396 
        5.96905         1.70672        0.184194 
        5.98476         1.69722        0.183001 
        6.00048         1.68961        0.181818 
        6.01617         1.68464        0.180647 
        6.03185         1.67776        0.179489 
        6.04756         1.67008        0.178337 
        6.06331         1.66206        0.177194 
        6.07903         1.65533        0.176063 
        6.09473          1.6516        0.174943 
        6.11044         1.64045        0.173832 
        6.12616         1.63283         0.17273 
        6.14186         1.62715         0.17164 
        6.15755         1.62202        0.170559 
        6.17326         1.61345        0.169486 
        6.18898          1.6075        0.168423 
        6.20467         1.60185         0.16737 
        6.22036         1.59379        0.166327 
         6.2361         1.58745         0.16529 
         6.2518         1.58081        0.164263 
        6.26748           1.574        0.163248 
        6.28319         1.56909        0.162238 
        6.29893         1.56402        0.161237 
        6.31463         1.55505        0.160245 
        6.33033         1.55005        0.159262 
        6.34604         1.54184        0.158287 
        6.36177         1.53832        0.157319 
        6.37747         1.53073        0.156361 
