# k  (h/Mpc)    Pcb(k)  (Mpc/h)^3    Pcb_linear(k) (Mpc/h)^3   ShotnoiseSubtracted = true
      0.0200456           13332         13616.4 
      0.0350414         9185.86         9490.64 
      0.0492313         6577.56         6634.16 
      0.0637834         5721.19         5593.66 
      0.0800726         4639.34         4588.11 
       0.096163         3173.91         3248.22 
       0.111083         2466.61         2508.95 
       0.126058          2303.4         2267.98 
       0.142273         2041.66         1992.43 
       0.158546         1709.18          1556.4 
        0.17375         1345.06         1272.45 
       0.188953         1307.81         1161.27 
       0.204907         1245.29          1061.2 
       0.220756         1063.65         901.142 
        0.23588         933.781         767.111 
         0.2514         812.079         694.262 
       0.267535         800.041          641.78 
       0.283568         727.977         572.016 
       0.299022         679.826         504.452 
       0.314451         640.746         457.969 
       0.330372          591.39         424.539 
       0.346141         540.469         389.473 
       0.361624         521.237         353.349 
       0.377134         483.775         323.523 
       0.392932         461.148         300.416 
       0.408854         443.872         279.074 
       0.424564         420.024         257.841 
       0.440253         408.693         238.598 
       0.455999         384.631         222.535 
       0.471626         361.566         208.468 
        0.48727         350.098          194.96 
       0.502856         339.054         182.365 
       0.518488         335.825          171.14 
       0.534347         315.208         161.005 
       0.550082         297.989         151.668 
       0.565732         294.917         142.942 
       0.581496         279.048          134.88 
       0.597222          273.13         127.567 
       0.612804         264.375         120.877 
       0.628434         254.515         114.604 
       0.644267          246.63          108.68 
       0.660051         243.189         103.229 
       0.675724         238.285         98.2089 
       0.691403         231.559         93.5218 
       0.707174          222.54         89.1158 
       0.722871         220.011         85.0128 
        0.73838         215.949         81.2138 
       0.754018         210.072         77.6198 
       0.769845         203.147         74.2059 
        0.78569          201.99         70.9961 
       0.801365          195.29         68.0098 
       0.817031         189.344         65.1998 
       0.832809         187.241         62.5331 
       0.848511         182.046         60.0301 
       0.864097         179.872         57.6839 
       0.879701         175.837         55.4629 
       0.895507         171.118         53.3347 
       0.911279         166.873         51.3245 
        0.92691         166.547         49.4364 
       0.942635         162.322         47.6343 
       0.958396         161.801         45.9198 
       0.974128         157.391         44.2941 
       0.989692         153.742         42.7645 
        1.00528         151.273         41.3059 
        1.02113         150.308         39.8936 
        1.03692         145.204         38.5535 
        1.05264          142.94          37.282 
        1.06832         140.279         36.0707 
        1.08405         138.302         34.9107 
        1.09979         137.549         33.8019 
        1.11537         133.283         32.7528 
        1.13105         132.296         31.7427 
        1.14679         131.509         30.7719 
        1.16256          129.37         29.8404 
        1.17828         126.746         28.9511 
        1.19395         124.675         28.1016 
         1.2097         123.061         27.2823 
        1.22537         121.956         26.5001 
          1.241         119.418         25.7514 
        1.25666         117.523         25.0302 
        1.27241          115.48         24.3336 
        1.28819         114.227         23.6627 
        1.30392         112.655         23.0194 
        1.31957         111.496         22.4033 
        1.33529          108.87         21.8078 
        1.35108         107.705         21.2319 
        1.36674         106.783         20.6812 
         1.3824         104.577         20.1508 
        1.39811         103.669         19.6375 
        1.41389         102.172         19.1404 
        1.42964          100.28         18.6615 
        1.44531         98.2634         18.2016 
        1.46101         97.4391         17.7565 
        1.47667         96.7097         17.3278 
        1.49229         94.9011         16.9145 
        1.50793         94.1245         16.5145 
        1.52367         92.8029          16.125 
        1.53953         91.3011         15.7456 
        1.55526         90.5371         15.3816 
        1.57092         89.7858         15.0308 
        1.58662          87.692         14.6902 
        1.60235         87.4372         14.3597 
        1.61809         85.8897         14.0393 
        1.63369          85.034         13.7316 
        1.64941         84.3309         13.4311 
        1.66519         82.2416         13.1386 
        1.68085         81.8016          12.857 
        1.69652         80.0413         12.5837 
        1.71228         79.9318         12.3169 
        1.72806         78.7308         12.0577 
        1.74368         77.8008         11.8087 
        1.75933         76.5268         11.5663 
        1.77505         76.0117         11.3296 
        1.79081         74.7005         11.0992 
         1.8065         73.9266         10.8764 
        1.82218         72.8467         10.6599 
        1.83797         72.0508         10.4478 
        1.85367         71.3354         10.2428 
        1.86928         71.0662         10.0446 
        1.88497         69.5886         9.85067 
        1.90073         68.6796         9.66117 
        1.91647         68.2416         9.47688 
        1.93218         67.1889         9.29785 
        1.94787         66.4147         9.12377 
        1.96363          65.545         8.95351 
        1.97935         65.1577           8.788 
        1.99499         64.0916         8.62766 
        2.01064         63.5858         8.47114 
         2.0264         62.3114         8.31756 
        2.04216         61.8005         8.16792 
        2.05781         61.0727         8.02295 
        2.07353         60.2047         7.88102 
        2.08928         59.5013         7.74225 
        2.10499         59.1041         7.60724 
        2.12065         58.4509          7.4759 
        2.13633         57.8608         7.34758 
        2.15211         57.4825         7.22147 
        2.16785         56.7241         7.09872 
        2.18349         56.1252         6.97962 
        2.19916          55.368         6.86304 
        2.21489         54.8829         6.74877 
        2.23063         54.3917         6.63705 
         2.2463         53.7071         6.52839 
        2.26194         52.7859         6.42247 
        2.27765         52.5321         6.31838 
        2.29341         51.9005         6.21635 
        2.30914         51.1067         6.11682 
        2.32486         50.2891         6.01954 
        2.34061         50.0641         5.92424 
        2.35635         49.3921         5.83112 
        2.37203          48.821         5.74034 
        2.38768         48.3421          5.6517 
        2.40339          47.816         5.56464 
        2.41914         47.5176         5.47923 
        2.43483         47.0404         5.39594 
         2.4505         46.5924         5.31453 
        2.46622          45.998         5.23455 
        2.48195         45.5165         5.15622 
        2.49759         44.8562         5.07993 
        2.51328         44.3727         5.00501 
        2.52906         43.9705         4.93114 
        2.54479         43.4348         4.85905 
        2.56049         42.8455         4.78856 
        2.57618         42.6289         4.71955 
        2.59189         42.0011         4.65181 
        2.60758         41.7693         4.58552 
        2.62325         41.1642         4.52061 
        2.63898         40.7983         4.45675 
        2.65468         40.2256         4.39427 
        2.67044         39.6037         4.33274 
        2.68618         39.4898         4.27254 
        2.70184         39.0737         4.21373 
        2.71755         38.8092          4.1559 
        2.73329         38.1662         4.09908 
        2.74897         37.7995         4.04352 
        2.76462         37.3104         3.98912 
        2.78034         37.1461         3.93551 
        2.79607         36.6923         3.88283 
        2.81179         36.3408          3.8312 
        2.82749         35.7977         3.78057 
        2.84321         35.5456         3.73081 
        2.85893          35.211         3.68197 
        2.87462         34.7575         3.63409 
        2.89033         34.3855         3.58704 
        2.90605         34.1992         3.54078 
        2.92176         33.7608         3.49537 
        2.93747         33.5137          3.4508 
        2.95318         33.0802         3.40699 
        2.96891         32.6268         3.36394 
        2.98456         32.4682         3.32183 
        3.00023         32.0553         3.28039 
        3.01596         31.6732         3.23953 
        3.03164         31.5073         3.19949 
        3.04738         31.2104         3.16002 
         3.0631         30.8459         3.12124 
        3.07883         30.5192         3.08311 
        3.09456         30.2717         3.04563 
        3.11026         29.9373         3.00884 
        3.12596         29.6761         2.97267 
        3.14163         29.3134         2.93718 
        3.15734         29.0498          2.9022 
        3.17308          28.691         2.86771 
        3.18879          28.508         2.83387 
        3.20447         28.2274         2.80064 
         3.2202         27.8904         2.76785 
         3.2359         27.6742         2.73564 
        3.25157         27.4474         2.70403 
        3.26729          27.212         2.67283 
        3.28304         26.8944         2.64206 
        3.29877         26.5673         2.61182 
        3.31446         26.3542         2.58213 
        3.33014         26.1393         2.55293 
        3.34585         25.9745         2.52414 
        3.36158         25.5881         2.49576 
        3.37727         25.3286         2.46791 
        3.39294         25.1509         2.44051 
        3.40867         24.8852         2.41344 
        3.42439         24.6516         2.38679 
        3.44008         24.4456          2.3606 
        3.45578         24.2242         2.33479 
        3.47153         23.9752         2.30932 
        3.48724         23.7237         2.28427 
        3.50292         23.5358         2.25966 
        3.51859         23.2937         2.23542 
        3.53431         23.1252         2.21147 
        3.55007         22.8485         2.18781 
        3.56577          22.648          2.1646 
        3.58146         22.5249         2.14174 
        3.59719         22.2045         2.11916 
        3.61292         22.0811         2.09691 
        3.62859         21.8093         2.07507 
        3.64429         21.6037         2.05351 
        3.66003          21.422         2.03218 
        3.67578         21.2354         2.01118 
        3.69146         21.0633         1.99055 
        3.70712          20.813         1.97025 
        3.72284         20.6756         1.95016 
        3.73853         20.4659         1.93039 
        3.75422         20.2657         1.91089 
        3.76993         20.0883         1.89164 
        3.78564         19.8863         1.87267 
        3.80137         19.7461         1.85393 
        3.81707         19.5865         1.83549 
        3.83279         19.3971         1.81729 
        3.84853         19.1806         1.79931 
        3.86424          19.058         1.78161 
        3.87992         18.8569         1.76418 
        3.89561         18.6678         1.74698 
        3.91134         18.5736         1.72998 
        3.92704         18.3768         1.71322 
        3.94273          18.228         1.69671 
        3.95845         18.0041         1.68039 
        3.97418           17.92         1.66428 
        3.98988         17.7048          1.6484 
        4.00554         17.5928         1.63278 
        4.02125         17.4203         1.61732 
        4.03698         17.2418         1.60203 
        4.05268          17.143         1.58698 
        4.06839         16.8915         1.57212 
         4.0841         16.8574         1.55745 
        4.09983         16.6405         1.54295 
        4.11555         16.5355         1.52864 
        4.13124         16.4098         1.51456 
        4.14693         16.2562         1.50064 
        4.16266          16.084         1.48687 
        4.17839         15.9652         1.47328 
        4.19408         15.8092         1.45989 
        4.20977         15.7073         1.44666 
        4.22551         15.5607         1.43357 
        4.24123         15.4464         1.42065 
        4.25691         15.3393         1.40794 
        4.27259         15.1827         1.39537 
        4.28831         14.9984         1.38293 
        4.30404         14.9324         1.37064 
        4.31974         14.7855         1.35852 
        4.33543         14.6699         1.34656 
        4.35116         14.5344         1.33472 
        4.36688         14.4226         1.32302 
        4.38255         14.3127         1.31151 
        4.39825         14.2136         1.30011 
        4.41398          14.056         1.28882 
         4.4297         13.9366         1.27769 
        4.44541          13.836         1.26669 
        4.46111         13.7544         1.25582 
        4.47683         13.5992         1.24508 
        4.49251         13.5002         1.23449 
        4.50819         13.3833         1.22402 
         4.5239          13.316         1.21366 
        4.53962         13.1643         1.20341 
        4.55535         13.0711         1.19328 
        4.57106          12.961         1.18328 
        4.58678         12.8291         1.17339 
         4.6025         12.7469         1.16361 
        4.61821         12.6356         1.15395 
        4.63391         12.5797         1.14441 
         4.6496         12.4181         1.13498 
        4.66532         12.3171         1.12565 
        4.68103         12.2186         1.11642 
        4.69673         12.1583         1.10731 
        4.71241         12.0378         1.09831 
        4.72811         11.9542          1.0894 
        4.74384         11.8526         1.08057 
        4.75955         11.7658         1.07186 
        4.77525         11.6727         1.06325 
        4.79096         11.5888         1.05473 
        4.80669         11.4734         1.04629 
         4.8224         11.3856         1.03796 
        4.83809         11.3284         1.02973 
        4.85379         11.1997         1.02158 
         4.8695         11.1661         1.01351 
        4.88521         11.0546         1.00554 
        4.90093         10.9844        0.997654 
        4.91663         10.8762        0.989859 
        4.93234         10.7949         0.98214 
        4.94807         10.7134        0.974499 
        4.96377         10.6227        0.966954 
        4.97943         10.5453        0.959506 
        4.99514         10.4781        0.952118 
        5.01086         10.4033        0.944803 
        5.02654         10.3026        0.937584 
        5.04227         10.2407         0.93042 
          5.058         10.1377        0.923328 
        5.07371         10.0897        0.916325 
        5.08942         9.99862        0.909395 
        5.10513         9.92356        0.902536 
        5.12084          9.8592        0.895744 
        5.13656         9.77685        0.889026 
        5.15225         9.71122        0.882387 
        5.16796         9.64088        0.875807 
        5.18369         9.56819        0.869289 
         5.1994         9.48057        0.862849 
        5.21509         9.42671        0.856481 
        5.23079         9.35405         0.85017 
        5.24649         9.29437        0.843929 
        5.26217         9.19848        0.837755 
        5.27788         9.15248        0.831635 
        5.29359         9.06751        0.825576 
        5.30933         9.00949        0.819568 
        5.32504         8.93972        0.813632 
        5.34073         8.89492        0.807761 
        5.35646         8.80682        0.801937 
        5.37218         8.74024        0.796169 
        5.38789         8.69234        0.790469 
        5.40357         8.64237        0.784831 
        5.41929         8.56076        0.779236 
        5.43502         8.49794        0.773696 
         5.4507         8.43199        0.768223 
        5.46639         8.36555        0.762803 
        5.48212         8.31825        0.757423 
        5.49786         8.26291        0.752089 
        5.51353         8.20538        0.746834 
        5.52921         8.14447        0.741624 
        5.54495         8.08298        0.736449 
        5.56066         8.03235        0.731329 
        5.57637         7.96956        0.726259 
        5.59207         7.92486        0.721242 
        5.60778         7.86355        0.716271 
        5.62346         7.80646        0.711355 
        5.63916         7.76004         0.70648 
        5.65487         7.69421        0.701649 
         5.6706         7.64592        0.696858 
        5.68633         7.58509         0.69211 
        5.70203         7.53597        0.687417 
        5.71773         7.47408        0.682769 
        5.73344         7.43533        0.678161 
        5.74916         7.39016        0.673592 
        5.76486         7.34163        0.669072 
        5.78054         7.27759        0.664601 
        5.79626         7.23283        0.660159 
          5.812         7.17534        0.655753 
         5.8277         7.12973          0.6514 
        5.84339         7.09056        0.647088 
        5.85911         7.03045        0.642806 
        5.87484         6.99796        0.638565 
        5.89053          6.9439         0.63437 
        5.90623          6.8885        0.630212 
        5.92195         6.84952        0.626084 
        5.93767         6.79565        0.621996 
        5.95336         6.76391        0.617951 
        5.96905         6.70909        0.613944 
        5.98476         6.67467        0.609968 
        6.00048         6.62997        0.606025 
        6.01617         6.58284        0.602123 
        6.03185          6.5232        0.598261 
        6.04756         6.49259        0.594424 
        6.06331         6.45083        0.590612 
        6.07903          6.4098        0.586842 
        6.09473         6.36793        0.583109 
        6.11044         6.31167        0.579405 
        6.12616         6.27916        0.575734 
        6.14186         6.25053          0.5721 
        6.15755         6.19581        0.568497 
        6.17326         6.13906        0.564922 
        6.18898         6.10777        0.561377 
        6.20467         6.07406        0.557869 
        6.22036          6.0268        0.554392 
         6.2361         5.99024        0.550935 
         6.2518         5.95403        0.547513 
        6.26748         5.91917        0.544129 
        6.28319         5.86484        0.540763 
        6.29893         5.84606        0.537424 
        6.31463         5.80374        0.534119 
        6.33033         5.75764        0.530843 
        6.34604         5.72335        0.527593 
        6.36177         5.69786        0.524366 
        6.37747         5.66418        0.521173 
