# k  (h/Mpc)    Pcb(k)  (Mpc/h)^3    Pcb_linear(k) (Mpc/h)^3   ShotnoiseSubtracted = true
      0.0200456         26942.7         27500.8 
      0.0350414         19851.7         19168.1 
      0.0492313         13084.1         13398.9 
      0.0637834         10697.9         11297.4 
      0.0800726         8583.04         9266.52 
       0.096163         6843.21         6560.37 
       0.111083         5444.79         5067.27 
       0.126058         4541.87          4580.6 
       0.142273         4073.54         4024.07 
       0.158546         3320.65         3143.44 
        0.17375          2963.6         2569.93 
       0.188953         2841.73         2345.39 
       0.204907         2460.02         2143.28 
       0.220756          2240.5         1820.02 
        0.23588         1992.06         1549.32 
         0.2514          1816.6         1402.19 
       0.267535         1748.46         1296.19 
       0.283568         1573.12         1155.29 
       0.299022         1495.54         1018.83 
       0.314451         1564.24         924.951 
       0.330372         1404.46         857.433 
       0.346141         1291.05         786.611 
       0.361624         1238.19         713.653 
       0.377134         1195.98         653.413 
       0.392932         1131.07         606.745 
       0.408854         1093.41         563.641 
       0.424564          1070.5         520.757 
       0.440253         1002.48         481.893 
       0.455999         958.272          449.45 
       0.471626         972.121         421.038 
        0.48727         919.884         393.757 
       0.502856         896.977         368.319 
       0.518488         860.367         345.649 
       0.534347         835.583         325.178 
       0.550082         797.923         306.321 
       0.565732           782.8         288.698 
       0.581496         767.289         272.415 
       0.597222         756.171         257.645 
       0.612804         735.035         244.132 
       0.628434         707.436         231.465 
       0.644267         689.192           219.5 
       0.660051         682.068          208.49 
       0.675724         670.258         198.351 
       0.691403         646.312         188.884 
       0.707174         631.367         179.985 
       0.722871         630.204         171.699 
        0.73838         609.693         164.026 
       0.754018          600.59         156.767 
       0.769845         590.472         149.872 
        0.78569         577.835         143.389 
       0.801365         561.499         137.358 
       0.817031         554.364         131.683 
       0.832809         544.773         126.297 
       0.848511         536.012         121.242 
       0.864097         526.769         116.503 
       0.879701         528.703         112.017 
       0.895507         508.364         107.719 
       0.911279         503.504         103.659 
        0.92691         495.491         99.8457 
       0.942635         487.602         96.2062 
       0.958396         477.025         92.7433 
       0.974128         468.347           89.46 
       0.989692         458.721         86.3706 
        1.00528         451.325         83.4248 
        1.02113         443.986         80.5723 
        1.03692         438.123         77.8657 
        1.05264         433.602         75.2977 
        1.06832         423.194         72.8513 
        1.08405         421.754         70.5085 
        1.09979         411.102          68.269 
        1.11537         402.608         66.1503 
        1.13105          397.16         64.1102 
        1.14679         390.928         62.1495 
        1.16256         388.555         60.2682 
        1.17828         382.437         58.4721 
        1.19395         374.545         56.7562 
         1.2097         368.333         55.1016 
        1.22537          364.49         53.5218 
          1.241         356.474         52.0096 
        1.25666         353.028          50.553 
        1.27241         350.442         49.1461 
        1.28819         340.452         47.7911 
        1.30392         339.208         46.4919 
        1.31957         332.094         45.2475 
        1.33529         327.362         44.0448 
        1.35108         326.804         42.8816 
        1.36674         318.057         41.7694 
         1.3824         312.291         40.6982 
        1.39811         308.459         39.6615 
        1.41389         304.096         38.6574 
        1.42964         299.407         37.6904 
        1.44531         295.187         36.7615 
        1.46101         288.471         35.8625 
        1.47667         287.412         34.9966 
        1.49229         283.708          34.162 
        1.50793         277.997          33.354 
        1.52367         273.678         32.5673 
        1.53953         270.686         31.8011 
        1.55526         265.812         31.0659 
        1.57092          263.76         30.3574 
        1.58662         258.244         29.6695 
        1.60235         254.671         29.0019 
        1.61809         252.877         28.3548 
        1.63369         247.803         27.7335 
        1.64941         245.168         27.1265 
        1.66519         241.453         26.5358 
        1.68085         237.449         25.9671 
        1.69652          234.17         25.4151 
        1.71228         230.842         24.8762 
        1.72806         228.175         24.3527 
        1.74368         224.763         23.8498 
        1.75933         222.719         23.3602 
        1.77505         219.176         22.8822 
        1.79081         216.535         22.4169 
         1.8065         215.631         21.9668 
        1.82218         209.697         21.5295 
        1.83797         208.084         21.1013 
        1.85367          205.18         20.6873 
        1.86928         201.727          20.287 
        1.88497         199.409         19.8952 
        1.90073             198         19.5125 
        1.91647         194.838         19.1403 
        1.93218         191.455         18.7787 
        1.94787         188.544         18.4271 
        1.96363         187.375         18.0832 
        1.97935         184.704          17.749 
        1.99499         182.879         17.4251 
        2.01064         178.553          17.109 
         2.0264         177.828         16.7988 
        2.04216         174.745         16.4966 
        2.05781         172.526         16.2038 
        2.07353         171.598         15.9171 
        2.08928         169.492         15.6369 
        2.10499         166.331         15.3642 
        2.12065          164.81         15.0989 
        2.13633         162.559         14.8398 
        2.15211         160.329         14.5851 
        2.16785         158.847         14.3372 
        2.18349          156.51         14.0966 
        2.19916         155.586         13.8612 
        2.21489          152.03         13.6304 
        2.23063         150.537         13.4047 
         2.2463         148.652         13.1853 
        2.26194         147.625         12.9713 
        2.27765         145.172         12.7611 
        2.29341         143.868         12.5551 
        2.30914         141.778          12.354 
        2.32486         140.396         12.1576 
        2.34061          138.15         11.9651 
        2.35635         136.489          11.777 
        2.37203         135.172         11.5937 
        2.38768         133.631         11.4146 
        2.40339         131.956         11.2388 
        2.41914         129.991         11.0663 
        2.43483          128.71         10.8981 
         2.4505         127.688         10.7337 
        2.46622         125.481         10.5721 
        2.48195         123.988         10.4139 
        2.49759         122.127         10.2598 
        2.51328         121.044         10.1085 
        2.52906         119.845         9.95933 
        2.54479         118.441         9.81374 
        2.56049         116.826         9.67137 
        2.57618         115.797         9.53199 
        2.59189          114.88         9.39517 
        2.60758         113.252         9.26128 
        2.62325         111.561          9.1302 
        2.63898         109.922         9.00122 
        2.65468         109.281         8.87503 
        2.67044          108.21         8.75075 
        2.68618         106.754         8.62917 
        2.70184         105.706          8.5104 
        2.71755         104.035          8.3936 
        2.73329         102.961         8.27884 
        2.74897         102.018         8.16661 
        2.76462          101.18         8.05675 
        2.78034          100.24         7.94847 
        2.79607         98.7741         7.84209 
        2.81179         97.7706          7.7378 
        2.82749         96.9394         7.63554 
        2.84321          95.367         7.53504 
        2.85893         94.2886          7.4364 
        2.87462         93.4209         7.33971 
        2.89033         92.3697         7.24467 
        2.90605         91.4142         7.15125 
        2.92176         90.4995         7.05954 
        2.93747         89.6576         6.96951 
        2.95318         88.4576         6.88104 
        2.96891         87.9357         6.79409 
        2.98456          86.377         6.70904 
        3.00023          85.679         6.62534 
        3.01596          85.147         6.54282 
        3.03164         83.9135         6.46196 
        3.04738         83.3183         6.38224 
         3.0631         82.5494         6.30391 
        3.07883         81.5963          6.2269 
        3.09456         80.5365         6.15121 
        3.11026         79.9991          6.0769 
        3.12596         79.0421         6.00385 
        3.14163         78.2115         5.93217 
        3.15734         77.2641         5.86152 
        3.17308          76.713         5.79185 
        3.18879          75.736         5.72352 
        3.20447         75.2718          5.6564 
         3.2202           74.12         5.59017 
         3.2359         73.6865         5.52512 
        3.25157         72.8671         5.46128 
        3.26729         72.0376         5.39826 
        3.28304         71.1973         5.33612 
        3.29877         70.6344         5.27505 
        3.31446         69.8405         5.21508 
        3.33014          69.086         5.15611 
        3.34585         68.4684         5.09796 
        3.36158         67.8616         5.04064 
        3.37727          67.128         4.98439 
        3.39294         66.5687         4.92906 
        3.40867         66.0043         4.87437 
        3.42439         64.9656         4.82056 
        3.44008         64.4321         4.76767 
        3.45578         63.9859         4.71554 
        3.47153          63.377         4.66408 
        3.48724         62.5866         4.61349 
        3.50292         62.1684         4.56378 
        3.51859         61.5193         4.51483 
        3.53431         60.8251         4.46646 
        3.55007         60.2325         4.41868 
        3.56577         59.6381          4.3718 
        3.58146         59.0461         4.32563 
        3.59719         58.6657         4.28002 
        3.61292         58.0312         4.23509 
        3.62859         57.5644         4.19099 
        3.64429         57.0073         4.14743 
        3.66003          56.404         4.10437 
        3.67578         55.8474         4.06193 
        3.69146         55.3192         4.02027 
        3.70712         54.7108         3.97927 
        3.72284         54.1076          3.9387 
        3.73853         53.8533         3.89877 
        3.75422          53.358         3.85938 
        3.76993         52.8629         3.82051 
        3.78564         52.2964          3.7822 
        3.80137           51.72         3.74436 
        3.81707         51.3179         3.70711 
        3.83279         50.8585         3.67035 
        3.84853         50.3634         3.63404 
        3.86424         49.9893         3.59829 
        3.87992         49.3311         3.56308 
        3.89561         49.2059         3.52834 
        3.91134         48.5655           3.494 
        3.92704         48.2492         3.46017 
        3.94273         47.7361         3.42682 
        3.95845         47.2175         3.39385 
        3.97418         46.8409         3.36131 
        3.98988         46.3649         3.32925 
        4.00554         46.0718          3.2977 
        4.02125         45.5355         3.26647 
        4.03698         45.2663          3.2356 
        4.05268         44.8639          3.2052 
        4.06839         44.5004         3.17518 
         4.0841         44.1596         3.14555 
        4.09983         43.7594         3.11627 
        4.11555          43.418         3.08737 
        4.13124         42.8823         3.05892 
        4.14693         42.5602         3.03081 
        4.16266         42.1882           3.003 
        4.17839         41.7014         2.97555 
        4.19408         41.5341         2.94851 
        4.20977         41.0349          2.9218 
        4.22551         40.7007         2.89535 
        4.24123         40.3796         2.86927 
        4.25691         39.9917         2.84358 
        4.27259         39.6647          2.8182 
        4.28831         39.3078         2.79309 
        4.30404         39.0451         2.76826 
        4.31974         38.6171         2.74378 
        4.33543         38.2959         2.71962 
        4.35116         37.9866          2.6957 
        4.36688         37.6892         2.67208 
        4.38255         37.3802         2.64883 
        4.39825         37.1128         2.62581 
        4.41398         36.7579         2.60301 
         4.4297         36.4554         2.58052 
        4.44541         36.2257          2.5583 
        4.46111         35.9503         2.53636 
        4.47683         35.6615         2.51467 
        4.49251         35.3285         2.49327 
        4.50819         34.9808         2.47214 
         4.5239         34.6665         2.45122 
        4.53962         34.4372         2.43051 
        4.55535         34.1005         2.41004 
        4.57106         33.8484         2.38984 
        4.58678         33.5882         2.36987 
         4.6025         33.3231         2.35012 
        4.61821         33.0549          2.3306 
        4.63391         32.7655         2.31134 
         4.6496         32.5185          2.2923 
        4.66532          32.247         2.27344 
        4.68103         31.9379         2.25482 
        4.69673         31.6969         2.23641 
        4.71241         31.3982         2.21824 
        4.72811         31.1872         2.20024 
        4.74384         30.9611         2.18241 
        4.75955         30.7777         2.16482 
        4.77525         30.4945         2.14743 
        4.79096         30.2957         2.13021 
        4.80669         30.0208         2.11317 
         4.8224         29.7564         2.09634 
        4.83809         29.4904         2.07972 
        4.85379         29.2602         2.06326 
         4.8695         29.0482         2.04698 
        4.88521         28.8269         2.03087 
        4.90093          28.538         2.01494 
        4.91663         28.3771          1.9992 
        4.93234         28.1996         1.98361 
        4.94807         27.9753         1.96818 
        4.96377         27.6956         1.95294 
        4.97943         27.5261          1.9379 
        4.99514         27.3473         1.92298 
        5.01086         27.1066          1.9082 
        5.02654         26.8913         1.89362 
        5.04227         26.6756         1.87915 
          5.058         26.5276         1.86483 
        5.07371         26.2766         1.85069 
        5.08942         26.0912         1.83669 
        5.10513         25.8499         1.82283 
        5.12084         25.6327         1.80912 
        5.13656         25.5236         1.79555 
        5.15225         25.2619         1.78214 
        5.16796         25.0635         1.76885 
        5.18369          24.916         1.75569 
         5.1994         24.6918         1.74268 
        5.21509           24.49         1.72982 
        5.23079         24.3184         1.71707 
        5.24649         24.1369         1.70447 
        5.26217         23.9818           1.692 
        5.27788         23.8251         1.67964 
        5.29359          23.636          1.6674 
        5.30933         23.3915         1.65527 
        5.32504         23.2453         1.64328 
        5.34073         23.0886         1.63142 
        5.35646         22.9227         1.61966 
        5.37218         22.6996         1.60801 
        5.38789         22.5642         1.59649 
        5.40357         22.3828         1.58511 
        5.41929         22.2566         1.57381 
        5.43502         22.0815         1.56262 
         5.4507         21.9698         1.55157 
        5.46639         21.7445         1.54062 
        5.48212         21.6025         1.52975 
        5.49786         21.4548         1.51898 
        5.51353         21.2888         1.50837 
        5.52921         21.1109         1.49784 
        5.54495         20.9743         1.48739 
        5.56066          20.821         1.47705 
        5.57637         20.6201         1.46681 
        5.59207         20.5027         1.45668 
        5.60778         20.3828         1.44664 
        5.62346         20.2101         1.43671 
        5.63916         20.0816         1.42686 
        5.65487         19.9334         1.41711 
         5.6706         19.8069         1.40743 
        5.68633         19.6324         1.39784 
        5.70203          19.496         1.38836 
        5.71773          19.381         1.37898 
        5.73344         19.2442         1.36967 
        5.74916         19.1088         1.36044 
        5.76486         19.0046         1.35131 
        5.78054         18.8697         1.34228 
        5.79626           18.72         1.33331 
          5.812          18.598         1.32441 
         5.8277         18.4336         1.31562 
        5.84339         18.3098         1.30691 
        5.85911         18.1789         1.29826 
        5.87484         18.0198          1.2897 
        5.89053         17.9315         1.28123 
        5.90623         17.8052         1.27283 
        5.92195         17.6701         1.26449 
        5.93767         17.5512         1.25623 
        5.95336           17.45         1.24806 
        5.96905          17.304         1.23997 
        5.98476         17.1919         1.23194 
        6.00048         17.0662         1.22398 
        6.01617         16.9678          1.2161 
        6.03185         16.8511          1.2083 
        6.04756         16.7168         1.20055 
        6.06331         16.6121         1.19285 
        6.07903          16.503         1.18523 
        6.09473         16.3825         1.17769 
        6.11044         16.2637         1.17021 
        6.12616         16.1812          1.1628 
        6.14186         16.0374         1.15546 
        6.15755         15.9763         1.14818 
        6.17326         15.8694         1.14096 
        6.18898         15.7657          1.1338 
        6.20467         15.6441         1.12672 
        6.22036         15.5184         1.11969 
         6.2361         15.4324         1.11271 
         6.2518         15.3042          1.1058 
        6.26748         15.2317         1.09897 
        6.28319         15.1058         1.09217 
        6.29893         15.0264         1.08543 
        6.31463         14.9095         1.07875 
        6.33033         14.8267         1.07213 
        6.34604         14.7224         1.06557 
        6.36177         14.6438         1.05905 
        6.37747          14.515          1.0526 
