# k  (h/Mpc)    Pcb(k)  (Mpc/h)^3    Pcb_linear(k) (Mpc/h)^3   ShotnoiseSubtracted = true
      0.0200456         7608.72         7728.26 
      0.0350414         5520.34         5386.59 
      0.0492313         3756.64         3765.34 
      0.0637834         3096.12         3174.79 
      0.0800726         2508.21         2604.07 
       0.096163         1901.41         1843.59 
       0.111083         1497.83            1424 
       0.126058         1277.56         1287.24 
       0.142273         1123.78         1130.84 
       0.158546         911.897         883.365 
        0.17375         774.317         722.201 
       0.188953         712.101         659.099 
       0.204907         617.734         602.303 
       0.220756         552.556          511.46 
        0.23588         482.697         435.389 
         0.2514         431.892         394.042 
       0.267535          417.61         364.255 
       0.283568         365.601         324.658 
       0.299022         343.613         286.312 
       0.314451         336.389         259.929 
       0.330372         292.174         240.955 
       0.346141         271.014         221.053 
       0.361624         256.149          200.55 
       0.377134         235.117         183.622 
       0.392932         229.216         170.507 
       0.408854         216.898         158.394 
       0.424564         207.476         146.343 
       0.440253          187.66         135.421 
       0.455999         176.515         126.304 
       0.471626         172.824          118.32 
        0.48727         166.197         110.653 
       0.502856         151.915         103.505 
       0.518488         150.114          97.134 
       0.534347         140.418         91.3812 
       0.550082         137.097          86.082 
       0.565732         134.433         81.1296 
       0.581496         124.034         76.5537 
       0.597222         121.249         72.4033 
       0.612804         117.209         68.6059 
       0.628434         114.229         65.0459 
       0.644267         108.317         61.6836 
       0.660051         105.077         58.5895 
       0.675724         103.037         55.7403 
       0.691403         100.946         53.0801 
       0.707174         97.3761         50.5793 
       0.722871         95.4263         48.2506 
        0.73838         92.6619         46.0944 
       0.754018         87.2571         44.0546 
       0.769845         86.8299         42.1169 
        0.78569         84.2725         40.2952 
       0.801365         81.6413         38.6003 
       0.817031         78.9382         37.0054 
       0.832809          77.653         35.4918 
       0.848511         75.7995         34.0712 
       0.864097         74.4822         32.7396 
       0.879701          73.052          31.479 
       0.895507         70.3093         30.2711 
       0.911279         69.2403         29.1302 
        0.92691         67.3375         28.0586 
       0.942635         65.8602         27.0358 
       0.958396         65.6851         26.0626 
       0.974128         64.0686           25.14 
       0.989692         62.5045         24.2718 
        1.00528         61.3377          23.444 
        1.02113         59.9287         22.6424 
        1.03692         59.7187         21.8818 
        1.05264         58.4148         21.1601 
        1.06832         56.8039         20.4726 
        1.08405         55.9683         19.8142 
        1.09979         55.6122         19.1849 
        1.11537         54.1091         18.5895 
        1.13105         52.8126         18.0162 
        1.14679         52.2993         17.4652 
        1.16256         51.4983         16.9365 
        1.17828          50.897         16.4318 
        1.19395         49.5459         15.9496 
         1.2097         49.5774         15.4846 
        1.22537         48.3613         15.0406 
          1.241         47.7717         14.6157 
        1.25666          46.582         14.2063 
        1.27241         46.4663          13.811 
        1.28819         45.4432         13.4302 
        1.30392         44.8818         13.0651 
        1.31957         44.5257         12.7154 
        1.33529         43.7287         12.3774 
        1.35108         42.9667         12.0505 
        1.36674         42.4025          11.738 
         1.3824         41.7863          11.437 
        1.39811         41.0649         11.1456 
        1.41389         40.5385         10.8635 
        1.42964         40.2584         10.5917 
        1.44531         39.3634         10.3307 
        1.46101         39.1347          10.078 
        1.47667          38.645          9.8347 
        1.49229         37.9639         9.60016 
        1.50793         37.5961         9.37311 
        1.52367         36.9898         9.15204 
        1.53953         36.8263         8.93671 
        1.55526         36.2008         8.73012 
        1.57092         35.8087           8.531 
        1.58662         35.2226          8.3377 
        1.60235         34.7999          8.1501 
        1.61809         34.4243         7.96825 
        1.63369         34.0346         7.79363 
        1.64941         33.6117         7.62307 
        1.66519         33.1021         7.45706 
        1.68085         32.6425         7.29725 
        1.69652         32.2905         7.14212 
        1.71228         32.1366         6.99069 
        1.72806         31.6164         6.84358 
        1.74368         31.1513         6.70224 
        1.75933         31.0205         6.56465 
        1.77505         30.7161         6.43034 
        1.79081         30.2826         6.29959 
         1.8065         29.8757         6.17308 
        1.82218         29.4855         6.05021 
        1.83797         29.3398         5.92987 
        1.85367         28.8923         5.81352 
        1.86928         28.9272         5.70103 
        1.88497         28.2743         5.59093 
        1.90073         28.0931         5.48338 
        1.91647         27.8244         5.37878 
        1.93218         27.7185         5.27717 
        1.94787         27.3206         5.17837 
        1.96363         26.9371         5.08173 
        1.97935         26.6735          4.9878 
        1.99499         26.4881         4.89679 
        2.01064         26.0482         4.80796 
         2.0264         25.8581         4.72079 
        2.04216         25.7526         4.63586 
        2.05781         25.4148         4.55358 
        2.07353         25.1603         4.47302 
        2.08928         24.7692         4.39426 
        2.10499         24.5953         4.31763 
        2.12065         24.3398         4.24309 
        2.13633         24.1775         4.17026 
        2.15211         23.7589         4.09868 
        2.16785         23.7275         4.02901 
        2.18349         23.4274         3.96142 
        2.19916          23.195         3.89525 
        2.21489         22.9492         3.83039 
        2.23063         22.8101         3.76698 
         2.2463         22.5461         3.70531 
        2.26194         22.3106         3.64519 
        2.27765         22.0566         3.58612 
        2.29341          21.814         3.52821 
        2.30914         21.6389         3.47172 
        2.32486         21.4988          3.4165 
        2.34061         21.2904         3.36242 
        2.35635         20.9691         3.30956 
        2.37203         20.8679         3.25804 
        2.38768         20.6601         3.20773 
        2.40339         20.5611         3.15832 
        2.41914         20.3179         3.10984 
        2.43483         20.1537         3.06257 
         2.4505         19.8279         3.01636 
        2.46622         19.7352         2.97097 
        2.48195         19.5215         2.92651 
        2.49759         19.2721         2.88321 
        2.51328         19.1634         2.84069 
        2.52906         19.0489         2.79876 
        2.54479         18.8256         2.75785 
        2.56049         18.6977         2.71784 
        2.57618         18.5832         2.67867 
        2.59189         18.2812         2.64022 
        2.60758         18.0998          2.6026 
        2.62325         17.9741         2.56576 
        2.63898         17.8861         2.52951 
        2.65468         17.6696         2.49405 
        2.67044         17.4761         2.45913 
        2.68618         17.3563         2.42496 
        2.70184         17.1823         2.39158 
        2.71755         16.9921         2.35876 
        2.73329         16.8994         2.32651 
        2.74897         16.7337         2.29497 
        2.76462          16.606          2.2641 
        2.78034         16.3931         2.23367 
        2.79607         16.3056         2.20378 
        2.81179         16.1719         2.17447 
        2.82749         15.9739         2.14573 
        2.84321          15.891         2.11749 
        2.85893         15.6692         2.08977 
        2.87462         15.6104          2.0626 
        2.89033         15.4597         2.03589 
        2.90605         15.3137         2.00964 
        2.92176         15.1706         1.98387 
        2.93747         15.0304         1.95856 
        2.95318         14.9503          1.9337 
        2.96891         14.7933         1.90927 
        2.98456         14.6921         1.88537 
        3.00023         14.5469         1.86185 
        3.01596         14.4409         1.83866 
        3.03164         14.3061         1.81593 
        3.04738         14.1822         1.79353 
         3.0631         14.0574         1.77152 
        3.07883         13.9528         1.74988 
        3.09456         13.8251         1.72861 
        3.11026         13.7206         1.70773 
        3.12596         13.6263          1.6872 
        3.14163         13.4625         1.66705 
        3.15734         13.3665          1.6472 
        3.17308            13.3         1.62762 
        3.18879           13.11         1.60842 
        3.20447         13.0785         1.58956 
         3.2202         12.9313         1.57094 
         3.2359         12.8076         1.55266 
        3.25157         12.7537         1.53472 
        3.26729         12.5837         1.51701 
        3.28304         12.4932         1.49955 
        3.29877         12.4554         1.48239 
        3.31446         12.3138         1.46554 
        3.33014         12.2335         1.44896 
        3.34585         12.0821         1.43263 
        3.36158         11.9992         1.41652 
        3.37727         11.9399         1.40071 
        3.39294         11.8272         1.38516 
        3.40867          11.702         1.36979 
        3.42439         11.6022         1.35467 
        3.44008         11.5466          1.3398 
        3.45578         11.3926         1.32516 
        3.47153         11.3575          1.3107 
        3.48724         11.2788         1.29648 
        3.50292         11.1853         1.28251 
        3.51859          11.074         1.26875 
        3.53431         10.9619         1.25516 
        3.55007         10.9064         1.24173 
        3.56577         10.7732         1.22856 
        3.58146         10.6836         1.21558 
        3.59719         10.6206         1.20277 
        3.61292         10.5686         1.19014 
        3.62859         10.4669         1.17775 
        3.64429         10.3798         1.16551 
        3.66003         10.2832          1.1534 
        3.67578          10.206         1.14148 
        3.69146         10.1393         1.12977 
        3.70712         10.0462         1.11825 
        3.72284          9.9716         1.10685 
        3.73853         9.90867         1.09563 
        3.75422         9.82136         1.08456 
        3.76993         9.71789         1.07364 
        3.78564         9.67852         1.06287 
        3.80137         9.57463         1.05224 
        3.81707         9.49551         1.04177 
        3.83279         9.42247         1.03144 
        3.84853         9.36512         1.02123 
        3.86424         9.28175         1.01119 
        3.87992         9.24229         1.00129 
        3.89561          9.1432        0.991532 
        3.91134         9.07904        0.981882 
        3.92704         9.00849        0.972373 
        3.94273         8.93103        0.963001 
        3.95845         8.85698        0.953736 
        3.97418         8.79417        0.944592 
        3.98988         8.75147        0.935582 
        4.00554         8.67094        0.926716 
        4.02125         8.60132         0.91794 
        4.03698          8.5506        0.909265 
        4.05268         8.46821        0.900723 
        4.06839         8.37946        0.892286 
         4.0841         8.31807         0.88396 
        4.09983         8.26505        0.875731 
        4.11555         8.18036         0.86761 
        4.13124         8.13382        0.859616 
        4.14693         8.06437        0.851716 
        4.16266         8.02201        0.843899 
        4.17839         7.94153        0.836185 
        4.19408         7.90846        0.828587 
        4.20977         7.79691         0.82108 
        4.22551         7.76758         0.81365 
        4.24123         7.72761        0.806319 
        4.25691         7.67076        0.799101 
        4.27259         7.57903        0.791969 
        4.28831         7.53368        0.784911 
        4.30404         7.49131        0.777933 
        4.31974         7.42012        0.771055 
        4.33543          7.3621        0.764266 
        4.35116         7.28542        0.757543 
        4.36688         7.25227        0.750904 
        4.38255         7.21409        0.744371 
        4.39825         7.13087        0.737901 
        4.41398         7.07914        0.731497 
         4.4297         7.03315        0.725176 
        4.44541         6.98144        0.718932 
        4.46111         6.95139        0.712766 
        4.47683         6.88951         0.70667 
        4.49251         6.83947        0.700657 
        4.50819         6.78105        0.694717 
         4.5239          6.7136        0.688838 
        4.53962         6.68302        0.683021 
        4.55535         6.62473        0.677268 
        4.57106         6.58933        0.671591 
        4.58678         6.52864        0.665978 
         4.6025         6.48367        0.660429 
        4.61821         6.44275        0.654944 
        4.63391         6.39307         0.64953 
         4.6496         6.34873        0.644179 
        4.66532         6.29879        0.638881 
        4.68103         6.25537        0.633646 
        4.69673          6.2197        0.628475 
        4.71241         6.16182        0.623367 
        4.72811         6.12647        0.618308 
        4.74384         6.09656          0.6133 
        4.75955         6.03722        0.608355 
        4.77525         5.99785        0.603468 
        4.79096         5.95956        0.598629 
        4.80669         5.90382        0.593842 
         4.8224          5.8619        0.589113 
        4.83809         5.82663         0.58444 
        4.85379          5.7759        0.579817 
         4.8695         5.74791         0.57524 
        4.88521         5.70539        0.570714 
        4.90093         5.66656        0.566238 
        4.91663         5.61919        0.561813 
        4.93234         5.58127        0.557432 
        4.94807         5.54253        0.553095 
        4.96377         5.50215        0.548813 
        4.97943         5.46164        0.544586 
        4.99514         5.42613        0.540393 
        5.01086         5.39169        0.536241 
        5.02654         5.35865        0.532144 
        5.04227          5.3192        0.528078 
          5.058          5.2626        0.524053 
        5.07371         5.24303        0.520078 
        5.08942         5.20321        0.516144 
        5.10513         5.17302        0.512251 
        5.12084         5.14559        0.508397 
        5.13656         5.09348        0.504583 
        5.15225         5.06498        0.500816 
        5.16796         5.03334        0.497081 
        5.18369         4.98665        0.493381 
         5.1994         4.96112        0.489726 
        5.21509         4.93012        0.486112 
        5.23079         4.89367         0.48253 
        5.24649         4.86305        0.478988 
        5.26217           4.829        0.475484 
        5.27788         4.79963         0.47201 
        5.29359         4.76353        0.468571 
        5.30933         4.73593        0.465162 
        5.32504         4.70286        0.461792 
        5.34073          4.6733         0.45846 
        5.35646         4.64523        0.455154 
        5.37218         4.59408        0.451881 
        5.38789         4.58017        0.448645 
        5.40357         4.54508        0.445446 
        5.41929         4.51168         0.44227 
        5.43502         4.48162        0.439126 
         5.4507         4.45992         0.43602 
        5.46639         4.42619        0.432943 
        5.48212         4.40262         0.42989 
        5.49786         4.36691        0.426863 
        5.51353         4.34491         0.42388 
        5.52921         4.32049        0.420923 
        5.54495         4.28965        0.417985 
        5.56066         4.25681         0.41508 
        5.57637         4.22583        0.412202 
        5.59207         4.20189        0.409355 
        5.60778         4.17399        0.406533 
        5.62346         4.15283        0.403743 
        5.63916         4.11738        0.400976 
        5.65487         4.09837        0.398234 
         5.6706         4.07928        0.395515 
        5.68633         4.04766         0.39282 
        5.70203         4.02201        0.390157 
        5.71773         3.99791        0.387518 
        5.73344          3.9672        0.384903 
        5.74916         3.94233         0.38231 
        5.76486         3.91796        0.379745 
        5.78054         3.90383        0.377207 
        5.79626          3.8668        0.374685 
          5.812         3.85067        0.372185 
         5.8277         3.81723        0.369715 
        5.84339         3.80381        0.367267 
        5.85911         3.77572        0.364837 
        5.87484         3.75325         0.36243 
        5.89053         3.73074        0.360049 
        5.90623         3.71016        0.357689 
        5.92195         3.68445        0.355346 
        5.93767         3.65881        0.353026 
        5.95336         3.64441         0.35073 
        5.96905         3.61559        0.348456 
        5.98476         3.60235        0.346199 
        6.00048         3.56545        0.343961 
        6.01617          3.5535        0.341747 
        6.03185          3.5272        0.339554 
        6.04756         3.50535        0.337376 
        6.06331         3.48935        0.335213 
        6.07903         3.46263        0.333073 
        6.09473         3.44513        0.330954 
        6.11044         3.41842        0.328852 
        6.12616         3.40588        0.326769 
        6.14186         3.37838        0.324706 
        6.15755         3.35647        0.322661 
        6.17326         3.34091        0.320632 
        6.18898         3.32237         0.31862 
        6.20467         3.30365        0.316629 
        6.22036         3.28259        0.314655 
         6.2361         3.26219        0.312693 
         6.2518         3.24585        0.310751 
        6.26748         3.23034         0.30883 
        6.28319         3.20562        0.306921 
        6.29893         3.18868        0.305025 
        6.31463          3.1706        0.303149 
        6.33033         3.15532         0.30129 
        6.34604         3.13844        0.299445 
        6.36177          3.1172        0.297614 
        6.37747         3.09548        0.295802 
