# k  (h/Mpc)    Pcb(k)  (Mpc/h)^3    Pcb_linear(k) (Mpc/h)^3   ShotnoiseSubtracted = true
      0.0200456           21612         22029.7 
      0.0350414         15871.9         15354.7 
      0.0492313         10540.6         10733.3 
      0.0637834         8626.31         9049.87 
      0.0800726          6937.6         7423.01 
       0.096163         5470.61         5255.23 
       0.111083         4347.23         4059.17 
       0.126058         3634.19         3669.32 
       0.142273         3246.91          3223.5 
       0.158546         2648.67         2518.07 
        0.17375         2333.14         2058.66 
       0.188953          2214.6         1878.79 
       0.204907         1918.33         1716.89 
       0.220756          1737.9         1457.94 
        0.23588         1542.32         1241.09 
         0.2514         1394.56         1123.23 
       0.267535         1351.39         1038.32 
       0.283568         1202.96         925.452 
       0.299022         1146.23         816.143 
       0.314451         1192.71         740.938 
       0.330372         1048.94         686.853 
       0.346141         964.212          630.12 
       0.361624         925.702         571.676 
       0.377134         887.085         523.421 
       0.392932          846.88         486.037 
       0.408854         812.187         451.508 
       0.424564         793.309         417.156 
       0.440253         732.951         386.023 
       0.455999         700.878         360.035 
       0.471626          715.55         337.275 
        0.48727         674.536         315.422 
       0.502856         644.039         295.045 
       0.518488         627.371         276.885 
       0.534347         599.964         260.486 
       0.550082         571.744          245.38 
       0.565732         565.469         231.263 
       0.581496          553.66          218.22 
       0.597222         540.324         206.389 
       0.612804         527.357         195.564 
       0.628434         505.941         185.416 
       0.644267         490.784         175.832 
       0.660051         485.302         167.012 
       0.675724         474.826          158.89 
       0.691403          463.61         151.307 
       0.707174         448.268         144.179 
       0.722871         442.934          137.54 
        0.73838         433.415         131.394 
       0.754018         421.635         125.579 
       0.769845         417.283         120.056 
        0.78569         408.676         114.863 
       0.801365         394.302         110.032 
       0.817031         391.878         105.485 
       0.832809         385.198         101.171 
       0.848511         378.587         97.1215 
       0.864097         368.661         93.3255 
       0.879701         367.084         89.7323 
       0.895507         353.854         86.2892 
       0.911279         347.931         83.0369 
        0.92691          345.05         79.9821 
       0.942635         340.769         77.0666 
       0.958396         329.563         74.2927 
       0.974128         326.334         71.6625 
       0.989692         315.446         69.1877 
        1.00528         313.801          66.828 
        1.02113         309.017          64.543 
        1.03692         303.444         62.3749 
        1.05264         298.959         60.3178 
        1.06832         294.316          58.358 
        1.08405         290.616         56.4813 
        1.09979         285.434         54.6873 
        1.11537           278.6         52.9901 
        1.13105         274.699         51.3559 
        1.14679          271.45         49.7853 
        1.16256         269.433         48.2782 
        1.17828         264.742         46.8394 
        1.19395         258.259          45.465 
         1.2097         258.009         44.1395 
        1.22537         253.551          42.874 
          1.241         246.653         41.6627 
        1.25666         245.168         40.4958 
        1.27241         241.577         39.3688 
        1.28819         236.634         38.2834 
        1.30392         236.133         37.2427 
        1.31957         228.968         36.2458 
        1.33529         225.941         35.2824 
        1.35108         225.224         34.3506 
        1.36674         218.677         33.4596 
         1.3824         217.463         32.6015 
        1.39811         215.692         31.7711 
        1.41389         209.619         30.9668 
        1.42964         207.143         30.1921 
        1.44531         205.744         29.4481 
        1.46101         201.695         28.7279 
        1.47667         199.471         28.0342 
        1.49229         196.613         27.3657 
        1.50793         193.729         26.7185 
        1.52367         191.041         26.0883 
        1.53953          187.11         25.4745 
        1.55526          185.82         24.8856 
        1.57092         184.246          24.318 
        1.58662         180.013          23.767 
        1.60235          178.18         23.2322 
        1.61809         175.643         22.7138 
        1.63369         172.405         22.2161 
        1.64941         170.635         21.7299 
        1.66519         168.502         21.2567 
        1.68085         165.754         20.8011 
        1.69652         163.863         20.3589 
        1.71228         160.933         19.9273 
        1.72806         159.884         19.5079 
        1.74368         157.655          19.105 
        1.75933         156.345         18.7128 
        1.77505         154.215         18.3299 
        1.79081         150.658         17.9572 
         1.8065         149.491         17.5966 
        1.82218         146.306         17.2464 
        1.83797         145.626         16.9034 
        1.85367         143.238         16.5717 
        1.86928         141.574          16.251 
        1.88497         140.313         15.9372 
        1.90073         138.863         15.6306 
        1.91647         136.199         15.3325 
        1.93218         134.437         15.0428 
        1.94787         132.392         14.7612 
        1.96363         131.925         14.4857 
        1.97935         130.286         14.2179 
        1.99499         128.335         13.9585 
        2.01064          125.67         13.7053 
         2.0264         124.883         13.4568 
        2.04216         123.054         13.2147 
        2.05781         121.271         12.9802 
        2.07353         120.092         12.7505 
        2.08928         118.494          12.526 
        2.10499         117.427         12.3076 
        2.12065         115.999         12.0951 
        2.13633         114.983         11.8875 
        2.15211         112.901         11.6835 
        2.16785         111.626         11.4849 
        2.18349         110.146         11.2922 
        2.19916         109.112         11.1036 
        2.21489         107.945         10.9187 
        2.23063         106.221         10.7379 
         2.2463         104.976         10.5622 
        2.26194         103.901         10.3908 
        2.27765          102.57         10.2224 
        2.29341         101.593         10.0573 
        2.30914         100.296         9.89627 
        2.32486         98.6467         9.73889 
        2.34061         97.7997         9.58471 
        2.35635         96.8214         9.43404 
        2.37203         95.0945         9.28718 
        2.38768         94.5213         9.14378 
        2.40339          93.282         9.00292 
        2.41914         92.0273         8.86473 
        2.43483         91.3422         8.72997 
         2.4505         90.1081         8.59827 
        2.46622         89.0853         8.46886 
        2.48195         88.2422         8.34214 
        2.49759         87.0012         8.21872 
        2.51328         86.1821          8.0975 
        2.52906         84.8462         7.97799 
        2.54479         83.8438         7.86136 
        2.56049         82.6441         7.74732 
        2.57618         81.8816         7.63566 
        2.59189         81.1376         7.52606 
        2.60758         79.6698         7.41881 
        2.62325         79.4042         7.31381 
        2.63898         78.3997         7.21049 
        2.65468         77.5341         7.10941 
        2.67044         76.2591         7.00985 
        2.68618         75.7434         6.91245 
        2.70184         74.7971         6.81731 
        2.71755         74.0399         6.72375 
        2.73329         72.9023         6.63182 
        2.74897         72.4655         6.54192 
        2.76462         71.5739         6.45391 
        2.78034         70.4284         6.36717 
        2.79607         69.7731         6.28196 
        2.81179          69.358         6.19841 
        2.82749         68.6325          6.1165 
        2.84321         67.8008         6.03599 
        2.85893          66.981         5.95698 
        2.87462         66.1801         5.87952 
        2.89033         65.6693         5.80339 
        2.90605         65.0695         5.72856 
        2.92176         64.2319         5.65509 
        2.93747         63.7533         5.58297 
        2.95318          62.586         5.51211 
        2.96891         62.1797         5.44245 
        2.98456         61.4589         5.37432 
        3.00023         60.9451         5.30727 
        3.01596         60.3444         5.24117 
        3.03164         59.6549         5.17639 
        3.04738         59.3145         5.11253 
         3.0631         58.3152         5.04979 
        3.07883         57.6957          4.9881 
        3.09456         57.0553         4.92747 
        3.11026         56.5001         4.86794 
        3.12596         56.0305         4.80942 
        3.14163         55.2642         4.75201 
        3.15734         54.6399         4.69541 
        3.17308         54.2365          4.6396 
        3.18879         53.6313         4.58487 
        3.20447          53.233          4.5311 
         3.2202         52.5692         4.47804 
         3.2359         51.9377         4.42594 
        3.25157         51.5373         4.37479 
        3.26729         50.9551         4.32431 
        3.28304         50.4756         4.27453 
        3.29877         50.0042         4.22561 
        3.31446          49.555         4.17758 
        3.33014         48.9408         4.13033 
        3.34585         48.3634         4.08376 
        3.36158         48.0249         4.03784 
        3.37727         47.3947         3.99278 
        3.39294         47.1191         3.94845 
        3.40867         46.6832         3.90465 
        3.42439         46.1546         3.86154 
        3.44008         45.5485         3.81917 
        3.45578          45.275         3.77741 
        3.47153         44.6932          3.7362 
        3.48724           44.25         3.69567 
        3.50292         43.9135         3.65585 
        3.51859         43.3384         3.61664 
        3.53431         42.9399         3.57789 
        3.55007         42.5504         3.53962 
        3.56577         42.2212         3.50206 
        3.58146         41.7244         3.46507 
        3.59719         41.3595         3.42854 
        3.61292         40.9265         3.39255 
        3.62859         40.5794         3.35722 
        3.64429          40.253         3.32233 
        3.66003         39.8746         3.28783 
        3.67578         39.4606         3.25384 
        3.69146         39.1621         3.22046 
        3.70712         38.7091         3.18762 
        3.72284         38.3603         3.15512 
        3.73853         38.0827         3.12314 
        3.75422           37.66         3.09159 
        3.76993          37.372         3.06045 
        3.78564         37.0784         3.02976 
        3.80137          36.697         2.99944 
        3.81707         36.2661         2.96961 
        3.83279         36.0492         2.94016 
        3.84853         35.6478         2.91107 
        3.86424         35.2819         2.88243 
        3.87992         35.0825         2.85423 
        3.89561         34.7423          2.8264 
        3.91134         34.5044          2.7989 
        3.92704         34.1342         2.77179 
        3.94273         33.7803         2.74507 
        3.95845         33.5303         2.71866 
        3.97418          33.179          2.6926 
        3.98988         32.8476         2.66692 
        4.00554         32.6333         2.64164 
        4.02125         32.3844         2.61663 
        4.03698         31.9962          2.5919 
        4.05268         31.7752         2.56755 
        4.06839         31.3828          2.5435 
         4.0841         31.2154         2.51977 
        4.09983         30.9045         2.49631 
        4.11555         30.6231         2.47316 
        4.13124         30.4359         2.45037 
        4.14693         30.1256         2.42785 
        4.16266         29.7976         2.40557 
        4.17839          29.559         2.38358 
        4.19408         29.3519         2.36192 
        4.20977         29.0735         2.34052 
        4.22551         28.7941         2.31934 
        4.24123         28.6009         2.29845 
        4.25691          28.336         2.27787 
        4.27259         28.1844         2.25754 
        4.28831         27.8301         2.23742 
        4.30404         27.6217         2.21753 
        4.31974         27.3189         2.19793 
        4.33543         27.1599         2.17857 
        4.35116          26.924         2.15941 
        4.36688         26.6806         2.14048 
        4.38255         26.5162         2.12186 
        4.39825         26.2505         2.10342 
        4.41398         26.0146         2.08516 
         4.4297         25.8093         2.06714 
        4.44541         25.6255         2.04934 
        4.46111         25.4024         2.03177 
        4.47683         25.1795         2.01439 
        4.49251          24.968         1.99725 
        4.50819         24.7922         1.98032 
         4.5239         24.5486         1.96356 
        4.53962         24.3996         1.94698 
        4.55535         24.1197         1.93058 
        4.57106         23.9495          1.9144 
        4.58678         23.7547          1.8984 
         4.6025         23.5407         1.88258 
        4.61821         23.3435         1.86695 
        4.63391         23.1185         1.85151 
         4.6496         22.9925         1.83626 
        4.66532         22.8351         1.82116 
        4.68103         22.5795         1.80623 
        4.69673         22.4562         1.79149 
        4.71241         22.2503         1.77693 
        4.72811         22.0252         1.76251 
        4.74384         21.8502         1.74824 
        4.75955         21.7551         1.73414 
        4.77525         21.5629         1.72021 
        4.79096         21.4137         1.70642 
        4.80669         21.2324         1.69277 
         4.8224         21.0381         1.67929 
        4.83809         20.8418         1.66597 
        4.85379         20.6991         1.65279 
         4.8695         20.6039         1.63974 
        4.88521         20.4204         1.62685 
        4.90093         20.1851         1.61408 
        4.91663         20.0865         1.60147 
        4.93234         19.9079         1.58898 
        4.94807         19.7506         1.57662 
        4.96377         19.6741         1.56442 
        4.97943         19.4364         1.55237 
        4.99514         19.3074         1.54041 
        5.01086         19.1562         1.52858 
        5.02654         19.0125          1.5169 
        5.04227         18.8664         1.50531 
          5.058         18.7076         1.49383 
        5.07371         18.5875          1.4825 
        5.08942         18.4286         1.47129 
        5.10513         18.2848         1.46019 
        5.12084         18.1635         1.44921 
        5.13656         17.9763         1.43834 
        5.15225          17.845          1.4276 
        5.16796           17.75         1.41695 
        5.18369          17.635          1.4064 
         5.1994         17.4945         1.39599 
        5.21509         17.3738         1.38568 
        5.23079         17.2285         1.37547 
        5.24649         17.1128         1.36538 
        5.26217         16.9775         1.35539 
        5.27788         16.8335         1.34549 
        5.29359         16.7136         1.33568 
        5.30933         16.5915         1.32596 
        5.32504         16.4497         1.31636 
        5.34073         16.3499         1.30686 
        5.35646         16.2199         1.29744 
        5.37218         16.0897         1.28811 
        5.38789         15.9488         1.27888 
        5.40357         15.8622         1.26976 
        5.41929         15.7303         1.26071 
        5.43502         15.6087         1.25175 
         5.4507         15.5138         1.24289 
        5.46639         15.4133         1.23412 
        5.48212         15.2972         1.22542 
        5.49786         15.1866         1.21679 
        5.51353         15.0743         1.20829 
        5.52921         14.9669         1.19986 
        5.54495           14.83         1.19148 
        5.56066          14.726          1.1832 
        5.57637         14.6424           1.175 
        5.59207          14.525         1.16688 
        5.60778         14.3996         1.15884 
        5.62346         14.3183         1.15089 
        5.63916         14.1999           1.143 
        5.65487         14.1008         1.13518 
         5.6706         13.9915         1.12743 
        5.68633          13.913         1.11975 
        5.70203         13.8043         1.11216 
        5.71773          13.709         1.10464 
        5.73344         13.5887         1.09718 
        5.74916          13.536         1.08979 
        5.76486         13.4238         1.08248 
        5.78054         13.3547         1.07524 
        5.79626         13.2184         1.06806 
          5.812         13.1422         1.06093 
         5.8277         13.0561         1.05389 
        5.84339         12.9586         1.04691 
        5.85911          12.871         1.03998 
        5.87484         12.7807         1.03312 
        5.89053         12.6893         1.02633 
        5.90623         12.6005         1.01961 
        5.92195         12.4877         1.01293 
        5.93767         12.4145         1.00631 
        5.95336         12.3658         0.99977 
        5.96905         12.2528        0.993288 
        5.98476         12.2006        0.986854 
        6.00048         12.0993        0.980476 
        6.01617         12.0319        0.974163 
        6.03185         11.9318        0.967914 
        6.04756         11.8356        0.961706 
        6.06331          11.774        0.955539 
        6.07903         11.6881         0.94944 
        6.09473         11.6144          0.9434 
        6.11044         11.5149        0.937408 
        6.12616         11.4371        0.931469 
        6.14186         11.3537        0.925588 
        6.15755         11.2812        0.919759 
        6.17326         11.1987        0.913976 
        6.18898         11.1328         0.90824 
        6.20467         11.0566        0.902565 
        6.22036          11.003        0.896939 
         6.2361         10.9097        0.891346 
         6.2518         10.8515         0.88581 
        6.26748          10.783        0.880334 
        6.28319         10.7043         0.87489 
        6.29893         10.6378        0.869487 
        6.31463         10.5593         0.86414 
        6.33033         10.4953         0.85884 
        6.34604         10.4082        0.853581 
        6.36177         10.3617        0.848362 
        6.37747         10.2999        0.843196 
