# k  (h/Mpc)    Pcb(k)  (Mpc/h)^3    Pcb_linear(k) (Mpc/h)^3   ShotnoiseSubtracted = true
      0.0200456         75.1335         76.2338 
      0.0350414         53.5273          53.135 
      0.0492313         37.3662         37.1425 
      0.0637834         31.3161         31.3171 
      0.0800726         25.4933         25.6873 
       0.096163         18.3458         18.1857 
       0.111083          14.222         14.0468 
       0.126058         12.6686         12.6977 
       0.142273         11.0724         11.1549 
       0.158546         8.73622         8.71378 
        0.17375         7.18271           7.124 
       0.188953         6.50484         6.50155 
       0.204907         5.88009          5.9413 
       0.220756         5.04229          5.0452 
        0.23588         4.30272          4.2948 
         0.2514          3.8906         3.88695 
       0.267535         3.58738         3.59312 
       0.283568         3.19987         3.20253 
       0.299022         2.82696         2.82426 
       0.314451         2.58052         2.56402 
       0.330372         2.37876         2.37685 
       0.346141          2.1819         2.18053 
       0.361624         1.97883         1.97829 
       0.377134         1.80947          1.8113 
       0.392932         1.69657         1.68193 
       0.408854         1.56041         1.56245 
       0.424564         1.45242         1.44357 
       0.440253         1.33905         1.33583 
       0.455999         1.24327          1.2459 
       0.471626         1.16375         1.16714 
        0.48727         1.09595         1.09152 
       0.502856         1.02652           1.021 
       0.518488        0.955427        0.958159 
       0.534347        0.895959        0.901411 
       0.550082        0.850795        0.849139 
       0.565732        0.806756        0.800286 
       0.581496        0.756481        0.755149 
       0.597222        0.715065        0.714208 
       0.612804         0.67727        0.676749 
       0.628434        0.641343        0.641633 
       0.644267        0.610248        0.608466 
       0.660051        0.580006        0.577945 
       0.675724        0.549561        0.549839 
       0.691403        0.523152        0.523598 
       0.707174        0.498752         0.49893 
       0.722871        0.479978        0.475959 
        0.73838        0.453948        0.454689 
       0.754018         0.43346        0.434568 
       0.769845        0.412919        0.415454 
        0.78569        0.397326        0.397484 
       0.801365        0.381329        0.380765 
       0.817031        0.365656        0.365032 
       0.832809        0.349576        0.350102 
       0.848511        0.335872        0.336089 
       0.864097        0.323834        0.322953 
       0.879701        0.312191        0.310519 
       0.895507        0.297513        0.298604 
       0.911279        0.287732        0.287349 
        0.92691        0.278326        0.276778 
       0.942635        0.266171        0.266689 
       0.958396        0.257278         0.25709 
       0.974128        0.248258        0.247988 
       0.989692        0.239663        0.239424 
        1.00528        0.230278        0.231258 
        1.02113        0.224185        0.223351 
        1.03692         0.21667        0.215848 
        1.05264        0.208698         0.20873 
        1.06832        0.202078        0.201948 
        1.08405        0.195162        0.195454 
        1.09979        0.189457        0.189245 
        1.11537        0.182457        0.183372 
        1.13105          0.1767        0.177717 
        1.14679        0.171829        0.172282 
        1.16256        0.167239        0.167067 
        1.17828        0.162228        0.162088 
        1.19395        0.157552        0.157332 
         1.2097        0.152463        0.152745 
        1.22537        0.147675        0.148365 
          1.241        0.143636        0.144174 
        1.25666        0.140115        0.140136 
        1.27241        0.135771        0.136236 
        1.28819        0.131892         0.13248 
        1.30392        0.128791        0.128878 
        1.31957        0.124948        0.125429 
        1.33529        0.122105        0.122095 
        1.35108        0.118225         0.11887 
        1.36674        0.115684        0.115787 
         1.3824        0.112305        0.112818 
        1.39811        0.109185        0.109944 
        1.41389        0.106991        0.107161 
        1.42964        0.104017         0.10448 
        1.44531        0.101389        0.101905 
        1.46101       0.0987218       0.0994128 
        1.47667       0.0965617       0.0970125 
        1.49229       0.0942345       0.0946989 
        1.50793       0.0919686       0.0924592 
        1.52367       0.0897399       0.0902785 
        1.53953       0.0873711       0.0881544 
        1.55526       0.0854113       0.0861165 
        1.57092       0.0838715       0.0841524 
        1.58662       0.0817918       0.0822456 
        1.60235         0.07982        0.080395 
        1.61809       0.0780097       0.0786012 
        1.63369       0.0762783       0.0768788 
        1.64941        0.074545       0.0751963 
        1.66519       0.0730184       0.0735587 
        1.68085       0.0713163       0.0719822 
        1.69652       0.0699112       0.0704521 
        1.71228       0.0681826       0.0689583 
        1.72806       0.0670241       0.0675071 
        1.74368       0.0654744       0.0661129 
        1.75933       0.0641897       0.0647557 
        1.77505       0.0629868       0.0634308 
        1.79081       0.0615264       0.0621411 
         1.8065       0.0603777       0.0608931 
        1.82218       0.0589245       0.0596811 
        1.83797       0.0578304       0.0584941 
        1.85367       0.0566336       0.0573463 
        1.86928       0.0553341       0.0562367 
        1.88497       0.0543771       0.0551507 
        1.90073       0.0531641       0.0540897 
        1.91647       0.0525149       0.0530579 
        1.93218       0.0516689       0.0520556 
        1.94787       0.0503129        0.051081 
        1.96363       0.0493799       0.0501278 
        1.97935        0.048439       0.0492011 
        1.99499       0.0476235       0.0483034 
        2.01064       0.0466576       0.0474271 
         2.0264       0.0459331       0.0465673 
        2.04216       0.0450944       0.0457295 
        2.05781       0.0441363       0.0449178 
        2.07353       0.0434153       0.0441232 
        2.08928       0.0426863       0.0433463 
        2.10499       0.0419636       0.0425905 
        2.12065        0.041187       0.0418551 
        2.13633       0.0404654       0.0411367 
        2.15211       0.0398045       0.0404307 
        2.16785       0.0388542       0.0397434 
        2.18349       0.0383426       0.0390766 
        2.19916       0.0376354       0.0384239 
        2.21489       0.0369857       0.0377841 
        2.23063       0.0364969       0.0371587 
         2.2463       0.0358554       0.0365503 
        2.26194       0.0352681       0.0359573 
        2.27765       0.0347441       0.0353745 
        2.29341       0.0340024       0.0348033 
        2.30914       0.0334943        0.034246 
        2.32486       0.0329094       0.0337014 
        2.34061       0.0323712       0.0331679 
        2.35635       0.0319302       0.0326465 
        2.37203       0.0315763       0.0321383 
        2.38768       0.0311061        0.031642 
        2.40339        0.030518       0.0311546 
        2.41914       0.0300008       0.0306764 
        2.43483       0.0296448       0.0302101 
         2.4505       0.0290706       0.0297543 
        2.46622       0.0286094       0.0293065 
        2.48195       0.0281684        0.028868 
        2.49759       0.0277682       0.0284409 
        2.51328       0.0272601       0.0280214 
        2.52906       0.0269061       0.0276078 
        2.54479       0.0265672       0.0272042 
        2.56049       0.0260801       0.0268096 
        2.57618       0.0257497       0.0264232 
        2.59189       0.0252934       0.0260439 
        2.60758       0.0250613       0.0256728 
        2.62325        0.024542       0.0253094 
        2.63898       0.0243089       0.0249519 
        2.65468       0.0238703       0.0246021 
        2.67044        0.023544       0.0242576 
        2.68618        0.023186       0.0239205 
        2.70184       0.0230081       0.0235913 
        2.71755       0.0226249       0.0232675 
        2.73329       0.0223577       0.0229494 
        2.74897       0.0219787       0.0226383 
        2.76462       0.0216578       0.0223338 
        2.78034       0.0214098       0.0220336 
        2.79607       0.0210967       0.0217387 
        2.81179       0.0207924       0.0214496 
        2.82749       0.0205687       0.0211662 
        2.84321       0.0202417       0.0208876 
        2.85893       0.0199861       0.0206141 
        2.87462       0.0197127       0.0203461 
        2.89033       0.0194562       0.0200826 
        2.90605        0.019157       0.0198237 
        2.92176       0.0189992       0.0195695 
        2.93747       0.0186895       0.0193199 
        2.95318       0.0184805       0.0190746 
        2.96891        0.018199       0.0188336 
        2.98456       0.0179437       0.0185978 
        3.00023       0.0178376       0.0183658 
        3.01596       0.0175193       0.0181371 
        3.03164       0.0173065       0.0179129 
        3.04738       0.0171054       0.0176919 
         3.0631        0.016804       0.0174748 
        3.07883       0.0166892       0.0172613 
        3.09456        0.016471       0.0170515 
        3.11026       0.0162207       0.0168455 
        3.12596       0.0160972        0.016643 
        3.14163       0.0158834       0.0164443 
        3.15734       0.0157236       0.0162485 
        3.17308       0.0155269       0.0160553 
        3.18879       0.0152968       0.0158659 
        3.20447       0.0151406       0.0156799 
         3.2202       0.0149435       0.0154963 
         3.2359        0.014786        0.015316 
        3.25157       0.0145914        0.015139 
        3.26729       0.0144509       0.0149643 
        3.28304       0.0143006        0.014792 
        3.29877       0.0141157       0.0146227 
        3.31446       0.0139271       0.0144565 
        3.33014       0.0137975        0.014293 
        3.34585       0.0136817       0.0141318 
        3.36158       0.0134854       0.0139729 
        3.37727       0.0133137        0.013817 
        3.39294       0.0131864       0.0136636 
        3.40867        0.013067        0.013512 
        3.42439       0.0128964       0.0133629 
        3.44008       0.0127748       0.0132162 
        3.45578        0.012624       0.0130717 
        3.47153       0.0125025       0.0129291 
        3.48724       0.0123583       0.0127889 
        3.50292       0.0122494       0.0126511 
        3.51859       0.0121552       0.0125154 
        3.53431       0.0119908       0.0123813 
        3.55007       0.0118624       0.0122488 
        3.56577       0.0117357       0.0121189 
        3.58146       0.0116203       0.0119909 
        3.59719       0.0115417       0.0118645 
        3.61292        0.011409       0.0117399 
        3.62859       0.0112537       0.0116176 
        3.64429       0.0111783       0.0114969 
        3.66003       0.0110882       0.0113775 
        3.67578       0.0109544       0.0112599 
        3.69146       0.0108742       0.0111444 
        3.70712       0.0107417       0.0110308 
        3.72284       0.0106521       0.0109183 
        3.73853       0.0105342       0.0108076 
        3.75422       0.0104475       0.0106984 
        3.76993       0.0103638       0.0105907 
        3.78564       0.0102701       0.0104845 
        3.80137       0.0101708       0.0103796 
        3.81707       0.0100561       0.0102763 
        3.83279      0.00995838       0.0101744 
        3.84853      0.00989134       0.0100738 
        3.86424      0.00979857      0.00997466 
        3.87992      0.00973029      0.00987706 
        3.89561       0.0096473      0.00978077 
        3.91134      0.00954214      0.00968558 
        3.92704      0.00947447      0.00959178 
        3.94273      0.00940521      0.00949933 
        3.95845      0.00931741      0.00940794 
        3.97418      0.00923926      0.00931774 
        3.98988      0.00912898      0.00922887 
        4.00554      0.00905163       0.0091414 
        4.02125      0.00895544      0.00905483 
        4.03698      0.00882624      0.00896926 
        4.05268      0.00873988      0.00888501 
        4.06839      0.00865598      0.00880178 
         4.0841      0.00851849      0.00871965 
        4.09983      0.00844697      0.00863847 
        4.11555       0.0083368      0.00855837 
        4.13124       0.0082477      0.00847951 
        4.14693      0.00815113      0.00840158 
        4.16266      0.00806957      0.00832447 
        4.17839      0.00798547      0.00824838 
        4.19408      0.00788373      0.00817343 
        4.20977      0.00780021      0.00809938 
        4.22551        0.007737      0.00802608 
        4.24123      0.00766046      0.00795378 
        4.25691      0.00761562      0.00788257 
        4.27259      0.00752022      0.00781222 
        4.28831      0.00746896      0.00774259 
        4.30404      0.00738839      0.00767376 
        4.31974      0.00736327      0.00760592 
        4.33543      0.00729434      0.00753895 
        4.35116      0.00722331      0.00747263 
        4.36688       0.0071797      0.00740715 
        4.38255      0.00715935       0.0073427 
        4.39825      0.00711954      0.00727888 
        4.41398      0.00705577       0.0072157 
         4.4297       0.0070135      0.00715335 
        4.44541       0.0069943      0.00709176 
        4.46111      0.00694568      0.00703094 
        4.47683       0.0069275       0.0069708 
        4.49251      0.00688927       0.0069115 
        4.50819      0.00686562       0.0068529 
         4.5239      0.00684185      0.00679491 
        4.53962      0.00683188      0.00673752 
        4.55535      0.00680188      0.00668078 
        4.57106      0.00681257      0.00662478 
        4.58678      0.00678271      0.00656941 
         4.6025      0.00677689      0.00651467 
        4.61821      0.00677248      0.00646057 
        4.63391      0.00676775      0.00640716 
         4.6496      0.00674956      0.00635438 
        4.66532      0.00676639      0.00630212 
        4.68103      0.00675769      0.00625048 
        4.69673      0.00675462      0.00619947 
        4.71241      0.00681284      0.00614908 
        4.72811      0.00681647      0.00609918 
        4.74384      0.00682472      0.00604977 
        4.75955      0.00683189        0.006001 
        4.77525      0.00686129      0.00595279 
        4.79096      0.00689648      0.00590506 
        4.80669      0.00691799      0.00585783 
         4.8224      0.00695801      0.00581118 
        4.83809      0.00698326       0.0057651 
        4.85379      0.00703953      0.00571949 
         4.8695      0.00705317      0.00567434 
        4.88521      0.00710769       0.0056297 
        4.90093      0.00713341      0.00558554 
        4.91663      0.00721256       0.0055419 
        4.93234      0.00723245      0.00549868 
        4.94807      0.00729433       0.0054559 
        4.96377      0.00735198      0.00541366 
        4.97943       0.0074528      0.00537196 
        4.99514      0.00747392       0.0053306 
        5.01086      0.00754716      0.00528964 
        5.02654      0.00760936      0.00524922 
        5.04227      0.00767763      0.00520912 
          5.058      0.00778224      0.00516941 
        5.07371       0.0078454       0.0051302 
        5.08942      0.00797324       0.0050914 
        5.10513      0.00802247        0.005053 
        5.12084      0.00810794      0.00501498 
        5.13656      0.00820812      0.00497736 
        5.15225      0.00831608       0.0049402 
        5.16796      0.00845137      0.00490336 
        5.18369       0.0085343      0.00486686 
         5.1994      0.00866738      0.00483081 
        5.21509       0.0087468      0.00479516 
        5.23079      0.00886783      0.00475983 
        5.24649      0.00899962      0.00472488 
        5.26217       0.0091312      0.00469032 
        5.27788      0.00926415      0.00465605 
        5.29359      0.00938154      0.00462213 
        5.30933      0.00954001      0.00458849 
        5.32504      0.00966882      0.00455526 
        5.34073       0.0098143      0.00452239 
        5.35646       0.0100077      0.00448978 
        5.37218       0.0102073      0.00445749 
        5.38789       0.0103064      0.00442557 
        5.40357       0.0104695      0.00439401 
        5.41929       0.0106413      0.00436269 
        5.43502       0.0108945      0.00433167 
         5.4507       0.0110424      0.00430103 
        5.46639       0.0111986      0.00427068 
        5.48212       0.0113705      0.00424056 
        5.49786        0.011711       0.0042107 
        5.51353       0.0118888      0.00418128 
        5.52921       0.0120336      0.00415211 
        5.54495       0.0122988      0.00412313 
        5.56066       0.0125652      0.00409447 
        5.57637       0.0128076      0.00406609 
        5.59207       0.0130418        0.004038 
        5.60778       0.0133352      0.00401017 
        5.62346       0.0135654      0.00398264 
        5.63916       0.0137505      0.00395535 
        5.65487       0.0140514       0.0039283 
         5.6706       0.0143119      0.00390148 
        5.68633       0.0146753       0.0038749 
        5.70203       0.0149732      0.00384862 
        5.71773       0.0153114       0.0038226 
        5.73344       0.0154857       0.0037968 
        5.74916       0.0158941      0.00377122 
        5.76486        0.016271      0.00374592 
        5.78054       0.0165663      0.00372088 
        5.79626       0.0169074      0.00369601 
          5.812       0.0173293      0.00367134 
         5.8277       0.0176329      0.00364698 
        5.84339       0.0180572      0.00362283 
        5.85911       0.0185639      0.00359886 
        5.87484       0.0189499      0.00357511 
        5.89053       0.0193134      0.00355163 
        5.90623       0.0198912      0.00352835 
        5.92195        0.020161      0.00350524 
        5.93767       0.0206574      0.00348235 
        5.95336       0.0212624      0.00345971 
        5.96905       0.0217489      0.00343727 
        5.98476       0.0220993      0.00341501 
        6.00048       0.0228238      0.00339294 
        6.01617       0.0231193      0.00337109 
        6.03185       0.0236837      0.00334947 
        6.04756       0.0244615      0.00332798 
        6.06331       0.0249104      0.00330664 
        6.07903       0.0256063      0.00328554 
        6.09473       0.0260525      0.00326463 
        6.11044       0.0269837       0.0032439 
        6.12616       0.0273957      0.00322335 
        6.14186       0.0282137        0.003203 
        6.15755       0.0289615      0.00318283 
        6.17326       0.0294276      0.00316281 
        6.18898       0.0303245      0.00314297 
        6.20467       0.0310194      0.00312333 
        6.22036       0.0320262      0.00310386 
         6.2361       0.0325922       0.0030845 
         6.2518       0.0335432      0.00306535 
        6.26748       0.0341908       0.0030464 
        6.28319        0.035481      0.00302756 
        6.29893       0.0362484      0.00300886 
        6.31463        0.037319      0.00299036 
        6.33033       0.0379867      0.00297202 
        6.34604       0.0389447      0.00295382 
        6.36177        0.039854      0.00293575 
        6.37747       0.0412952      0.00291788 
