# k  (h/Mpc)    Pcb(k)  (Mpc/h)^3    Pcb_linear(k) (Mpc/h)^3   ShotnoiseSubtracted = true
      0.0200456         10368.4         10576.5 
      0.0350414         7172.36         7371.85 
      0.0492313         5126.51         5153.08 
      0.0637834         4440.87         4344.87 
      0.0800726         3605.61         3563.81 
       0.096163         2474.31         2523.05 
       0.111083         1916.88         1948.82 
       0.126058         1788.64         1761.65 
       0.142273          1585.8         1547.62 
       0.158546         1308.75         1208.93 
        0.17375         1031.63         988.372 
       0.188953         996.989         902.013 
       0.204907         950.087         824.285 
       0.220756         806.141         699.962 
        0.23588         703.612         595.853 
         0.2514         614.262         539.268 
       0.267535         599.039         498.503 
       0.283568         545.138         444.313 
       0.299022         505.685         391.833 
       0.314451         471.634         355.727 
       0.330372          436.36          329.76 
       0.346141         394.994         302.523 
       0.361624         380.338         274.464 
       0.377134         354.139         251.296 
       0.392932         332.828         233.348 
       0.408854         319.504         216.771 
       0.424564         304.798         200.278 
       0.440253         292.882         185.331 
       0.455999         275.364         172.854 
       0.471626         256.444         161.927 
        0.48727         248.896         151.435 
       0.502856         240.198         141.652 
       0.518488         236.781         132.933 
       0.534347          223.85          125.06 
       0.550082         209.377         117.808 
       0.565732         205.119          111.03 
       0.581496         195.249         104.768 
       0.597222         189.901         99.0879 
       0.612804         182.685         93.8909 
       0.628434         177.218          89.019 
       0.644267         171.193         84.4174 
       0.660051         169.227          80.183 
       0.675724         164.855         76.2837 
       0.691403         160.061          72.643 
       0.707174         153.303         69.2206 
       0.722871         151.807         66.0336 
        0.73838         148.742         63.0828 
       0.754018         143.391         60.2912 
       0.769845           139.9         57.6394 
        0.78569         137.205         55.1462 
       0.801365         133.392         52.8266 
       0.817031         128.837         50.6439 
       0.832809         127.173         48.5725 
       0.848511         123.493         46.6284 
       0.864097         120.989         44.8059 
       0.879701         118.749         43.0808 
       0.895507          115.76         41.4277 
       0.911279         113.987         39.8663 
        0.92691         112.265         38.3997 
       0.942635         109.388              37 
       0.958396         109.034         35.6682 
       0.974128         105.929         34.4054 
       0.989692         103.374         33.2173 
        1.00528         101.208         32.0844 
        1.02113         100.416         30.9873 
        1.03692         96.7309         29.9464 
        1.05264         96.5829         28.9588 
        1.06832         94.0203         28.0179 
        1.08405         92.6994         27.1169 
        1.09979         92.1935         26.2556 
        1.11537         89.0774         25.4408 
        1.13105         89.1147         24.6562 
        1.14679         87.8219         23.9021 
        1.16256         86.4061         23.1785 
        1.17828         84.3155         22.4878 
        1.19395         83.3156         21.8279 
         1.2097          81.213         21.1915 
        1.22537         81.4898          20.584 
          1.241         79.4767         20.0024 
        1.25666         77.9102         19.4422 
        1.27241         76.9103         18.9011 
        1.28819         75.6475           18.38 
        1.30392         74.8157         17.8803 
        1.31957         73.8604         17.4018 
        1.33529          72.495         16.9392 
        1.35108         71.9584         16.4918 
        1.36674          71.141         16.0641 
         1.3824         69.5836         15.6521 
        1.39811         68.9742         15.2534 
        1.41389         67.9453         14.8673 
        1.42964         67.1785         14.4953 
        1.44531         65.8684         14.1381 
        1.46101         64.8956         13.7924 
        1.47667         64.8205         13.4593 
        1.49229         63.6345         13.1384 
        1.50793         63.1239         12.8276 
        1.52367         61.9931         12.5251 
        1.53953         61.2891         12.2304 
        1.55526          60.592         11.9477 
        1.57092         60.3465         11.6752 
        1.58662         59.1532         11.4106 
        1.60235         58.6614         11.1539 
        1.61809         57.7718          10.905 
        1.63369         56.8331          10.666 
        1.64941         56.3028         10.4326 
        1.66519         55.3377         10.2054 
        1.68085         54.9566         9.98668 
        1.69652         54.0639         9.77439 
        1.71228         53.7242         9.56714 
        1.72806         53.2407         9.36582 
        1.74368         52.4759         9.17238 
        1.75933          51.887         8.98409 
        1.77505         51.3215         8.80027 
        1.79081         50.7065         8.62134 
         1.8065         50.2182         8.44821 
        1.82218         49.5421         8.28004 
        1.83797         48.9105         8.11536 
        1.85367         48.3171         7.95613 
        1.86928         47.7743         7.80217 
        1.88497         47.5157          7.6515 
        1.90073         46.8687         7.50431 
        1.91647         46.3553         7.36116 
        1.93218         45.8407          7.2221 
        1.94787         45.4023         7.08689 
        1.96363         44.8659         6.95464 
        1.97935         44.2915         6.82608 
        1.99499         43.7845         6.70153 
        2.01064         43.5066         6.57995 
         2.0264          42.657         6.46066 
        2.04216          42.377         6.34443 
        2.05781         41.7285         6.23182 
        2.07353         41.4093         6.12158 
        2.08928         41.0594         6.01379 
        2.10499         40.5377         5.90892 
        2.12065         40.0806          5.8069 
        2.13633         39.9075         5.70723 
        2.15211         39.3983         5.60928 
        2.16785         38.6537         5.51393 
        2.18349         38.4409         5.42142 
        2.19916         38.1447         5.33086 
        2.21489         37.6041          5.2421 
        2.23063         37.1769         5.15533 
         2.2463         36.7376         5.07093 
        2.26194          36.335         4.98865 
        2.27765          36.019          4.9078 
        2.29341         35.6319         4.82855 
        2.30914         35.2725         4.75124 
        2.32486         34.7998         4.67568 
        2.34061         34.5656         4.60165 
        2.35635         34.2098         4.52932 
        2.37203         33.9207         4.45881 
        2.38768         33.4766         4.38996 
        2.40339         33.3032         4.32233 
        2.41914         32.9919         4.25599 
        2.43483         32.4106         4.19129 
         2.4505         32.1762         4.12806 
        2.46622         31.9025         4.06593 
        2.48195         31.6614         4.00509 
        2.49759         31.2366         3.94584 
        2.51328         30.8227         3.88764 
        2.52906         30.7225         3.83026 
        2.54479         30.2413         3.77427 
        2.56049         29.9651         3.71952 
        2.57618         29.6456         3.66591 
        2.59189         29.4997         3.61329 
        2.60758         29.2228          3.5618 
        2.62325         28.7926         3.51138 
        2.63898         28.6344         3.46178 
        2.65468         28.2233         3.41325 
        2.67044         28.0244         3.36545 
        2.68618         27.7231         3.31869 
        2.70184         27.4068         3.27302 
        2.71755         27.3135          3.2281 
        2.73329         26.9625         3.18396 
        2.74897         26.6347          3.1408 
        2.76462         26.3955         3.09855 
        2.78034         26.2834          3.0569 
        2.79607         25.9803         3.01599 
        2.81179         25.7154         2.97588 
        2.82749         25.4951         2.93655 
        2.84321         25.1193          2.8979 
        2.85893         24.8945         2.85997 
        2.87462         24.7278         2.82278 
        2.89033         24.5003         2.78623 
        2.90605         24.3095          2.7503 
        2.92176         24.1158         2.71503 
        2.93747         23.8398          2.6804 
        2.95318         23.5014         2.64638 
        2.96891         23.4139         2.61294 
        2.98456         23.0803         2.58023 
        3.00023         22.8923         2.54804 
        3.01596         22.6674          2.5163 
        3.03164         22.4476          2.4852 
        3.04738         22.2778         2.45455 
         3.0631         22.0855         2.42442 
        3.07883          21.924          2.3948 
        3.09456         21.6064         2.36569 
        3.11026         21.4626         2.33712 
        3.12596         21.2668         2.30902 
        3.14163         21.1235         2.28146 
        3.15734         20.9184         2.25428 
        3.17308         20.7326         2.22749 
        3.18879         20.5193         2.20121 
        3.20447         20.3159          2.1754 
         3.2202         20.1506         2.14992 
         3.2359         19.9067         2.12491 
        3.25157         19.8938         2.10035 
        3.26729         19.6596         2.07612 
        3.28304         19.4593         2.05222 
        3.29877         19.1466         2.02873 
        3.31446         19.0752         2.00567 
        3.33014         18.8759         1.98299 
        3.34585         18.6794         1.96063 
        3.36158         18.5532         1.93858 
        3.37727         18.3577         1.91695 
        3.39294         18.1839         1.89567 
        3.40867         18.0273         1.87464 
        3.42439         17.8788         1.85394 
        3.44008         17.7139          1.8336 
        3.45578         17.5181         1.81355 
        3.47153         17.3978         1.79376 
        3.48724          17.219          1.7743 
        3.50292         17.1158         1.75519 
        3.51859         16.9075         1.73636 
        3.53431         16.7621         1.71776 
        3.55007         16.6508         1.69938 
        3.56577         16.4854         1.68135 
        3.58146         16.3575         1.66359 
        3.59719         16.1957         1.64605 
        3.61292         16.0629         1.62877 
        3.62859         15.9191         1.61181 
        3.64429         15.7598         1.59506 
        3.66003         15.6412          1.5785 
        3.67578          15.515         1.56218 
        3.69146          15.398         1.54616 
        3.70712         15.2035         1.53039 
        3.72284         15.1403         1.51479 
        3.73853         15.0198         1.49943 
        3.75422         14.7978         1.48428 
        3.76993         14.6963         1.46933 
        3.78564         14.5611          1.4546 
        3.80137         14.4384         1.44004 
        3.81707         14.3387         1.42572 
        3.83279          14.186         1.41158 
        3.84853         14.0831         1.39762 
        3.86424         13.9566         1.38387 
        3.87992         13.8296         1.37033 
        3.89561         13.7032         1.35697 
        3.91134         13.5903         1.34376 
        3.92704         13.4786         1.33075 
        3.94273         13.3682         1.31792 
        3.95845         13.2482         1.30524 
        3.97418         13.1752         1.29273 
        3.98988         13.0261          1.2804 
        4.00554         12.9457         1.26826 
        4.02125         12.7974         1.25625 
        4.03698         12.7135         1.24438 
        4.05268         12.6149         1.23269 
        4.06839         12.4819         1.22114 
         4.0841         12.3925         1.20975 
        4.09983         12.2591         1.19849 
        4.11555         12.1765         1.18737 
        4.13124         12.0736         1.17643 
        4.14693         12.0008         1.16562 
        4.16266         11.8618         1.15492 
        4.17839         11.7717         1.14437 
        4.19408         11.6838         1.13397 
        4.20977          11.579         1.12369 
        4.22551          11.485         1.11352 
        4.24123         11.4001         1.10349 
        4.25691         11.2891         1.09361 
        4.27259         11.2195         1.08385 
        4.28831         11.1018         1.07419 
        4.30404         11.0163         1.06464 
        4.31974         10.9305         1.05523 
        4.33543         10.8448         1.04594 
        4.35116         10.7475         1.03674 
        4.36688          10.656         1.02765 
        4.38255         10.5868         1.01871 
        4.39825         10.5231         1.00986 
        4.41398         10.4046         1.00109 
         4.4297         10.3177        0.992443 
        4.44541         10.2253        0.983898 
        4.46111         10.1716         0.97546 
        4.47683          10.098        0.967117 
        4.49251         10.0213        0.958888 
        4.50819         9.92677        0.950759 
         4.5239         9.84698        0.942714 
        4.53962         9.80119        0.934752 
        4.55535         9.69605        0.926879 
        4.57106         9.60484        0.919109 
        4.58678         9.52901        0.911428 
         4.6025         9.46819        0.903833 
        4.61821         9.38431        0.896327 
        4.63391         9.30069        0.888917 
         4.6496         9.26295        0.881595 
        4.66532          9.1746        0.874344 
        4.68103         9.10217         0.86718 
        4.69673         9.02362        0.860103 
        4.71241          8.9486        0.853112 
        4.72811         8.86442        0.846189 
        4.74384          8.8407        0.839335 
        4.75955         8.76684        0.832568 
        4.77525         8.68996        0.825879 
        4.79096         8.63815        0.819257 
        4.80669         8.55852        0.812705 
         4.8224         8.50175        0.806233 
        4.83809         8.44787        0.799839 
        4.85379         8.35583        0.793511 
         4.8695         8.30344        0.787247 
        4.88521         8.25238        0.781054 
        4.90093         8.16356        0.774928 
        4.91663         8.10654        0.768873 
        4.93234         8.07291        0.762877 
        4.94807         7.98054        0.756942 
        4.96377         7.93192        0.751081 
        4.97943         7.89746        0.745296 
        4.99514           7.829        0.739557 
        5.01086         7.74313        0.733875 
        5.02654         7.69461        0.728268 
        5.04227         7.66975        0.722703 
          5.058         7.58742        0.717195 
        5.07371         7.53345        0.711755 
        5.08942         7.48224        0.706372 
        5.10513         7.42094        0.701044 
        5.12084          7.3661        0.695769 
        5.13656           7.317         0.69055 
        5.15225         7.25376        0.685394 
        5.16796         7.21636        0.680283 
        5.18369         7.14417         0.67522 
         5.1994         7.07132        0.670218 
        5.21509         7.05492        0.665271 
        5.23079         6.98952         0.66037 
        5.24649         6.94611        0.655522 
        5.26217         6.88907        0.650726 
        5.27788         6.82945        0.645972 
        5.29359         6.80166        0.641266 
        5.30933         6.75332        0.636599 
        5.32504         6.70468        0.631988 
        5.34073          6.6575        0.627428 
        5.35646          6.6051        0.622904 
        5.37218         6.56664        0.618424 
        5.38789         6.52184        0.613996 
        5.40357         6.46514        0.609617 
        5.41929         6.40884        0.605271 
        5.43502         6.36729        0.600968 
         5.4507         6.33659        0.596717 
        5.46639         6.28559        0.592507 
        5.48212         6.25309        0.588328 
        5.49786         6.21091        0.584185 
        5.51353         6.15121        0.580103 
        5.52921          6.1159        0.576056 
        5.54495         6.07391        0.572036 
        5.56066         6.03568        0.568059 
        5.57637         5.97562        0.564121 
        5.59207         5.95528        0.560225 
        5.60778         5.90024        0.556364 
        5.62346         5.85907        0.552545 
        5.63916         5.83314        0.548758 
        5.65487         5.78948        0.545006 
         5.6706         5.75439        0.541284 
        5.68633          5.7008        0.537596 
        5.70203         5.68504        0.533951 
        5.71773         5.63368         0.53034 
        5.73344         5.59332        0.526761 
        5.74916         5.55264        0.523213 
        5.76486          5.5285        0.519702 
        5.78054          5.4853        0.516229 
        5.79626         5.44915        0.512778 
          5.812          5.4023        0.509356 
         5.8277         5.37079        0.505975 
        5.84339         5.34734        0.502625 
        5.85911         5.29558          0.4993 
        5.87484         5.27523        0.496005 
        5.89053         5.23902        0.492747 
        5.90623         5.19391        0.489517 
        5.92195         5.16417        0.486311 
        5.93767         5.12483        0.483135 
        5.95336         5.08885        0.479993 
        5.96905          5.0809        0.476881 
        5.98476         5.04368        0.473792 
        6.00048         5.00759         0.47073 
        6.01617         4.97347        0.467699 
        6.03185         4.94094        0.464699 
        6.04756         4.91097        0.461718 
        6.06331         4.87004        0.458758 
        6.07903         4.84272        0.455829 
        6.09473         4.82005         0.45293 
        6.11044         4.77874        0.450053 
        6.12616          4.7493        0.447202 
        6.14186         4.72336        0.444378 
        6.15755          4.6903        0.441579 
        6.17326         4.66203        0.438803 
        6.18898         4.63315        0.436049 
        6.20467         4.60339        0.433325 
        6.22036         4.56629        0.430623 
         6.2361         4.54205        0.427938 
         6.2518         4.51032        0.425281 
        6.26748         4.49062        0.422652 
        6.28319         4.46857        0.420038 
        6.29893         4.43231        0.417444 
        6.31463         4.40602        0.414877 
        6.33033         4.37668        0.412332 
        6.34604         4.35611        0.409807 
        6.36177         4.32315        0.407301 
        6.37747         4.30141        0.404821 
