# k  (h/Mpc)    Pcb(k)  (Mpc/h)^3    Pcb_linear(k) (Mpc/h)^3   ShotnoiseSubtracted = true
      0.0200456         6300.23         6415.41 
      0.0350414         4386.19         4471.54 
      0.0492313         3123.99          3125.7 
      0.0637834          2687.7         2635.47 
      0.0800726         2185.66          2161.7 
       0.096163         1509.55         1530.41 
       0.111083         1165.59          1182.1 
       0.126058         1082.94         1068.57 
       0.142273         959.298         938.737 
       0.158546         775.455         733.303 
        0.17375         614.598         599.516 
       0.188953         586.011         547.134 
       0.204907         557.795         499.986 
       0.220756         468.906         424.575 
        0.23588         405.921         361.427 
         0.2514         357.308         327.104 
       0.267535         342.093         302.377 
       0.283568         310.887         269.507 
       0.299022         284.836         237.674 
       0.314451         259.827         215.773 
       0.330372         241.891         200.023 
       0.346141          218.46         183.501 
       0.361624         207.649         166.481 
       0.377134         194.778         152.429 
       0.392932         177.698         141.542 
       0.408854         170.913         131.487 
       0.424564         163.855         121.482 
       0.440253         153.883         112.416 
       0.455999         144.789         104.848 
       0.471626         134.169         98.2201 
        0.48727         130.125         91.8559 
       0.502856         124.359         85.9218 
       0.518488         120.599         80.6333 
       0.534347         115.565         75.8577 
       0.550082         106.815         71.4587 
       0.565732         102.519         67.3476 
       0.581496         98.7534         63.5491 
       0.597222         95.5453         60.1037 
       0.612804         90.7783         56.9514 
       0.628434         88.8073         53.9962 
       0.644267         85.8717          51.205 
       0.660051         83.4794         48.6366 
       0.675724         80.2604         46.2714 
       0.691403         77.8976          44.063 
       0.707174         75.2894         41.9871 
       0.722871         73.3737          40.054 
        0.73838         71.7562         38.2641 
       0.754018         68.2077         36.5708 
       0.769845         66.8692         34.9623 
        0.78569         65.1492           33.45 
       0.801365         62.9562          32.043 
       0.817031         61.2384          30.719 
       0.832809         60.4513         29.4626 
       0.848511         57.5202         28.2834 
       0.864097         56.2959         27.1779 
       0.879701         55.5084         26.1315 
       0.895507          54.607         25.1288 
       0.911279         53.2821         24.1817 
        0.92691         51.9564         23.2921 
       0.942635         50.1253         22.4431 
       0.958396         49.9139         21.6352 
       0.974128         48.5675         20.8693 
       0.989692         47.7436         20.1486 
        1.00528         46.7026         19.4614 
        1.02113          45.385          18.796 
        1.03692         44.4226         18.1646 
        1.05264         44.0301         17.5655 
        1.06832         42.8187         16.9948 
        1.08405         42.2605         16.4483 
        1.09979         41.5563         15.9258 
        1.11537         40.1605         15.4316 
        1.13105         40.2825         14.9557 
        1.14679         39.5568         14.4983 
        1.16256         38.5306         14.0594 
        1.17828         37.7972         13.6404 
        1.19395          37.214         13.2401 
         1.2097         36.7793         12.8541 
        1.22537         36.3608         12.4856 
          1.241         35.4893         12.1328 
        1.25666         34.6891          11.793 
        1.27241         34.3973         11.4648 
        1.28819         33.4519         11.1487 
        1.30392         33.1627         10.8457 
        1.31957         32.9136         10.5554 
        1.33529         32.5892         10.2748 
        1.35108         31.9306         10.0035 
        1.36674         31.3689         9.74399 
         1.3824           30.66         9.49409 
        1.39811         30.5623         9.25226 
        1.41389         30.1396         9.01804 
        1.42964         29.5693         8.79243 
        1.44531         29.3977         8.57576 
        1.46101         28.6467         8.36602 
        1.47667         28.4627         8.16402 
        1.49229         28.1993         7.96933 
        1.50793         27.7648         7.78085 
        1.52367         27.4924         7.59733 
        1.53953         27.2068         7.41858 
        1.55526         26.6701         7.24708 
        1.57092         26.3637         7.08179 
        1.58662         26.0325         6.92133 
        1.60235         25.7252          6.7656 
        1.61809         25.4193         6.61464 
        1.63369         25.1129         6.46968 
        1.64941          24.673          6.3281 
        1.66519         24.5564         6.19029 
        1.68085         24.1685         6.05762 
        1.69652          23.916         5.92885 
        1.71228          23.705         5.80314 
        1.72806         23.3674         5.68102 
        1.74368         23.0476         5.56369 
        1.75933         22.8074         5.44948 
        1.77505         22.6264         5.33798 
        1.79081          22.284         5.22944 
         1.8065         22.1424         5.12443 
        1.82218         21.8393         5.02242 
        1.83797         21.5209         4.92253 
        1.85367         21.3162         4.82594 
        1.86928         21.1163         4.73256 
        1.88497         20.7997         4.64117 
        1.90073         20.8262         4.55189 
        1.91647         20.4373         4.46506 
        1.93218         20.2618         4.38071 
        1.94787         20.1026         4.29869 
        1.96363         19.9495         4.21847 
        1.97935         19.7184         4.14049 
        1.99499         19.4486         4.06495 
        2.01064         19.2988          3.9912 
         2.0264         18.9997         3.91884 
        2.04216         18.8489         3.84834 
        2.05781         18.6219         3.78003 
        2.07353         18.4489         3.71316 
        2.08928         18.3567         3.64778 
        2.10499         18.0977         3.58417 
        2.12065         17.8238         3.52229 
        2.13633         17.8144         3.46183 
        2.15211         17.4994         3.40242 
        2.16785         17.4644         3.34458 
        2.18349         17.2753         3.28847 
        2.19916         17.0836         3.23354 
        2.21489         16.9256          3.1797 
        2.23063         16.7467         3.12706 
         2.2463         16.5806         3.07587 
        2.26194          16.481         3.02596 
        2.27765         16.2909         2.97692 
        2.29341         16.1101         2.92885 
        2.30914         15.9537         2.88196 
        2.32486         15.8948         2.83612 
        2.34061         15.7048         2.79122 
        2.35635         15.4956         2.74735 
        2.37203         15.4361         2.70458 
        2.38768         15.2821         2.66282 
        2.40339          15.062          2.6218 
        2.41914         14.9535         2.58155 
        2.43483         14.8741         2.54231 
         2.4505         14.6919         2.50396 
        2.46622          14.578         2.46627 
        2.48195         14.4627         2.42937 
        2.49759         14.3331         2.39342 
        2.51328         14.1702         2.35812 
        2.52906         14.0823         2.32332 
        2.54479         13.9546         2.28936 
        2.56049         13.8725         2.25615 
        2.57618         13.7573         2.22363 
        2.59189         13.5777         2.19171 
        2.60758         13.5153         2.16048 
        2.62325         13.4165          2.1299 
        2.63898         13.2207         2.09981 
        2.65468         13.1645         2.07037 
        2.67044         13.0067         2.04138 
        2.68618         12.9106         2.01302 
        2.70184         12.7912         1.98531 
        2.71755         12.6629         1.95807 
        2.73329         12.5698         1.93129 
        2.74897         12.4569         1.90511 
        2.76462         12.4352         1.87948 
        2.78034          12.219         1.85422 
        2.79607         12.1331         1.82941 
        2.81179         12.0294         1.80508 
        2.82749         11.9688         1.78122 
        2.84321          11.807         1.75778 
        2.85893         11.7539         1.73477 
        2.87462         11.6871         1.71221 
        2.89033         11.5151         1.69004 
        2.90605         11.4371         1.66825 
        2.92176          11.386         1.64686 
        2.93747         11.2726         1.62585 
        2.95318         11.1627         1.60521 
        2.96891         11.0756         1.58493 
        2.98456         10.9912         1.56509 
        3.00023         10.9276         1.54556 
        3.01596         10.8156         1.52631 
        3.03164         10.7624         1.50745 
        3.04738         10.6367         1.48885 
         3.0631         10.5406         1.47058 
        3.07883          10.457         1.45262 
        3.09456          10.401         1.43496 
        3.11026         10.2655         1.41762 
        3.12596         10.2459         1.40058 
        3.14163         10.1383         1.38386 
        3.15734          10.051         1.36738 
        3.17308          9.9879         1.35113 
        3.18879         9.92121         1.33519 
        3.20447          9.8046         1.31953 
         3.2202         9.73655         1.30408 
         3.2359           9.695          1.2889 
        3.25157         9.61185         1.27401 
        3.26729         9.53813         1.25931 
        3.28304         9.42972         1.24481 
        3.29877         9.35728         1.23057 
        3.31446         9.31716         1.21658 
        3.33014         9.20451         1.20282 
        3.34585         9.18204         1.18926 
        3.36158         9.09819         1.17588 
        3.37727         9.01311         1.16276 
        3.39294         8.95593         1.14985 
        3.40867          8.8412          1.1371 
        3.42439         8.81277         1.12454 
        3.44008         8.74051          1.1122 
        3.45578         8.68037         1.10004 
        3.47153         8.63323         1.08804 
        3.48724         8.56098         1.07624 
        3.50292         8.49199         1.06464 
        3.51859         8.41995         1.05322 
        3.53431          8.3505         1.04194 
        3.55007         8.30076         1.03079 
        3.56577         8.25418         1.01986 
        3.58146          8.1793         1.00909 
        3.59719         8.10932        0.998446 
        3.61292         8.05758        0.987965 
        3.62859         7.98189        0.977676 
        3.64429         7.92851        0.967515 
        3.66003         7.85366        0.957469 
        3.67578          7.7981        0.947571 
        3.69146         7.75048        0.937852 
        3.70712         7.71989        0.928288 
        3.72284         7.61622        0.918823 
        3.73853         7.59287        0.909508 
        3.75422         7.52308         0.90032 
        3.76993         7.47805        0.891253 
        3.78564         7.41248        0.882315 
        3.80137          7.3654        0.873486 
        3.81707         7.29785        0.864798 
        3.83279         7.28291        0.856223 
        3.84853         7.21077        0.847751 
        3.86424         7.13466        0.839412 
        3.87992         7.09024        0.831198 
        3.89561         7.05219        0.823094 
        3.91134         6.98393        0.815084 
        3.92704         6.94382         0.80719 
        3.94273         6.89303         0.79941 
        3.95845         6.84843        0.791719 
        3.97418         6.80169        0.784129 
        3.98988         6.75186         0.77665 
        4.00554         6.69327        0.769289 
        4.02125         6.63585        0.762004 
        4.03698         6.60309        0.754803 
        4.05268          6.5631        0.747712 
        4.06839         6.51027        0.740708 
         4.0841         6.46957        0.733797 
        4.09983         6.42319        0.726965 
        4.11555         6.37756        0.720224 
        4.13124         6.33517        0.713588 
        4.14693         6.26492         0.70703 
        4.16266         6.22353        0.700541 
        4.17839         6.17323        0.694138 
        4.19408         6.12475         0.68783 
        4.20977         6.08223        0.681599 
        4.22551         6.04417         0.67543 
        4.24123         5.99469        0.669345 
        4.25691         5.95533        0.663353 
        4.27259         5.91715        0.657433 
        4.28831         5.87274        0.651573 
        4.30404         5.81999        0.645781 
        4.31974         5.78843        0.640072 
        4.33543         5.74411        0.634436 
        4.35116         5.70219        0.628855 
        4.36688         5.65369        0.623344 
        4.38255         5.61088         0.61792 
        4.39825         5.58356         0.61255 
        4.41398         5.54278        0.607233 
         4.4297         5.51995        0.601986 
        4.44541         5.46798        0.596803 
        4.46111         5.45105        0.591685 
        4.47683          5.3799        0.586624 
        4.49251         5.35566        0.581633 
        4.50819         5.31705        0.576702 
         4.5239         5.27718        0.571821 
        4.53962         5.25555        0.566992 
        4.55535         5.20668        0.562217 
        4.57106         5.17042        0.557504 
        4.58678         5.14758        0.552845 
         4.6025         5.09704        0.548238 
        4.61821         5.06698        0.543685 
        4.63391         5.03911         0.53919 
         4.6496         4.99534        0.534749 
        4.66532         4.97264        0.530351 
        4.68103         4.92676        0.526005 
        4.69673         4.89815        0.521712 
        4.71241         4.86476        0.517472 
        4.72811         4.83198        0.513273 
        4.74384         4.80814        0.509115 
        4.75955         4.75503         0.50501 
        4.77525         4.73326        0.500953 
        4.79096          4.6943        0.496937 
        4.80669         4.65722        0.492962 
         4.8224         4.64476        0.489037 
        4.83809         4.60864        0.485158 
        4.85379         4.56824         0.48132 
         4.8695         4.54021         0.47752 
        4.88521         4.52109        0.473764 
        4.90093         4.48739        0.470048 
        4.91663         4.45012        0.466375 
        4.93234         4.43425        0.462738 
        4.94807         4.40347        0.459138 
        4.96377         4.36524        0.455583 
        4.97943         4.33691        0.452074 
        4.99514         4.30883        0.448593 
        5.01086          4.2778        0.445146 
        5.02654         4.25462        0.441745 
        5.04227         4.22925         0.43837 
          5.058         4.19785        0.435029 
        5.07371         4.16954        0.431729 
        5.08942         4.15093        0.428464 
        5.10513         4.12546        0.425232 
        5.12084         4.09763        0.422032 
        5.13656         4.07448        0.418867 
        5.15225         4.05247        0.415739 
        5.16796           4.012        0.412639 
        5.18369         3.98931        0.409568 
         5.1994         3.96735        0.406534 
        5.21509         3.94621        0.403533 
        5.23079         3.91909         0.40056 
        5.24649         3.88668         0.39762 
        5.26217         3.87139        0.394711 
        5.27788         3.83772        0.391827 
        5.29359         3.80753        0.388972 
        5.30933         3.79184        0.386142 
        5.32504         3.77295        0.383345 
        5.34073         3.74075        0.380579 
        5.35646         3.72054        0.377835 
        5.37218         3.69428        0.375117 
        5.38789         3.68069        0.372431 
        5.40357         3.65293        0.369775 
        5.41929         3.62486        0.367139 
        5.43502         3.60924        0.364529 
         5.4507         3.58368         0.36195 
        5.46639         3.55821        0.359397 
        5.48212         3.54691        0.356862 
        5.49786         3.52763        0.354349 
        5.51353         3.49548        0.351873 
        5.52921         3.46928        0.349418 
        5.54495         3.44867         0.34698 
        5.56066         3.43778        0.344568 
        5.57637         3.41432        0.342179 
        5.59207         3.39745        0.339815 
        5.60778         3.37344        0.337473 
        5.62346         3.34849        0.335157 
        5.63916         3.32996         0.33286 
        5.65487         3.31353        0.330584 
         5.6706         3.29648        0.328327 
        5.68633         3.27435         0.32609 
        5.70203         3.25078        0.323878 
        5.71773         3.23802        0.321688 
        5.73344         3.22066        0.319518 
        5.74916         3.20161        0.317365 
        5.76486         3.17618        0.315235 
        5.78054         3.15799        0.313129 
        5.79626          3.1429        0.311036 
          5.812         3.12884         0.30896 
         5.8277         3.11075        0.306909 
        5.84339         3.08736        0.304877 
        5.85911         3.06883         0.30286 
        5.87484         3.05995        0.300862 
        5.89053         3.02897        0.298885 
        5.90623         3.01472        0.296926 
        5.92195         2.99894        0.294981 
        5.93767         2.98405        0.293055 
        5.95336         2.96667        0.291149 
        5.96905          2.9502        0.289262 
        5.98476          2.9371        0.287388 
        6.00048          2.9148         0.28553 
        6.01617         2.89525        0.283692 
        6.03185          2.8795        0.281872 
        6.04756         2.86587        0.280064 
        6.06331         2.84221        0.278268 
        6.07903          2.8312        0.276492 
        6.09473         2.81851        0.274733 
        6.11044         2.80076        0.272988 
        6.12616         2.78553        0.271259 
        6.14186         2.76965        0.269546 
        6.15755         2.75356        0.267849 
        6.17326          2.7404        0.266165 
        6.18898         2.72277        0.264494 
        6.20467         2.70984        0.262842 
        6.22036         2.69175        0.261203 
         6.2361         2.67886        0.259574 
         6.2518         2.66383        0.257962 
        6.26748         2.64992        0.256368 
        6.28319         2.63398        0.254782 
        6.29893         2.62175        0.253209 
        6.31463         2.60581        0.251652 
        6.33033         2.59422        0.250108 
        6.34604         2.57815        0.248577 
        6.36177         2.56666        0.247057 
        6.37747         2.55441        0.245552 
