# k  (h/Mpc)    Pcb(k)  (Mpc/h)^3    Pcb_linear(k) (Mpc/h)^3   ShotnoiseSubtracted = true
      0.0200456         16777.9         17146.1 
      0.0350414         11344.1         11772.7 
      0.0492313         8019.51         8103.53 
      0.0637834         6945.32         6765.06 
      0.0800726         5630.74         5560.11 
       0.096163         3834.67         3927.75 
       0.111083         2962.05         2992.46 
       0.126058         2745.61          2682.9 
       0.142273         2444.58         2374.45 
       0.158546         2077.59         1860.15 
        0.17375          1622.7            1502 
       0.188953          1577.7         1358.28 
       0.204907         1501.78         1248.31 
       0.220756         1291.35         1066.24 
        0.23588         1137.86         901.238 
         0.2514         983.833         807.866 
       0.267535         975.594         747.739 
       0.283568         887.383         670.201 
       0.299022         832.969         589.568 
       0.314451         788.903         531.466 
       0.330372         725.786         491.727 
       0.346141         671.239         452.588 
       0.361624         646.888         410.669 
       0.377134          599.46         374.492 
       0.392932         574.321         346.774 
       0.408854         555.643         322.381 
       0.424564         520.215         298.041 
       0.440253         510.184         275.286 
       0.455999         481.484         256.173 
       0.471626         457.856         239.824 
        0.48727         440.564         224.336 
       0.502856         427.776          209.69 
       0.518488         423.596         196.466 
       0.534347         395.945         184.653 
       0.550082         377.889         173.877 
       0.565732         376.572         163.813 
       0.581496         354.174         154.417 
       0.597222         348.224         145.918 
       0.612804         338.542         138.179 
       0.628434         325.786         130.949 
       0.644267         316.571         124.103 
       0.660051         309.524         117.783 
       0.675724         304.579         111.983 
       0.691403         295.156         106.579 
       0.707174             285         101.502 
       0.722871         280.848         96.7758 
        0.73838         276.967         92.4019 
       0.754018         269.315         88.2661 
       0.769845         260.872         84.3391 
        0.78569         260.477         80.6486 
       0.801365         251.187         77.2168 
       0.817031         243.185         73.9888 
       0.832809          241.81         70.9269 
       0.848511         234.919         68.0544 
       0.864097         231.657         65.3631 
       0.879701         228.008         62.8169 
       0.895507          222.53         60.3782 
       0.911279         215.285          58.076 
        0.92691         215.582         55.9146 
       0.942635         209.749         53.8527 
       0.958396         207.594         51.8919 
       0.974128         203.207         50.0337 
       0.989692         199.088          48.286 
        1.00528         196.525         46.6203 
        1.02113         194.361         45.0081 
        1.03692          189.72          43.479 
        1.05264         185.777         42.0288 
        1.06832           182.6         40.6478 
        1.08405         179.734          39.326 
        1.09979         177.319         38.0628 
        1.11537         173.935         36.8682 
        1.13105         170.536         35.7184 
        1.14679         170.582         34.6138 
        1.16256         167.582         33.5542 
        1.17828         164.372          32.543 
        1.19395         161.473         31.5774 
         1.2097         161.143         30.6465 
        1.22537         157.642          29.758 
          1.241         155.796         28.9078 
        1.25666         153.325         28.0892 
        1.27241          150.29         27.2987 
        1.28819         148.965         26.5377 
        1.30392         145.962         25.8082 
        1.31957         145.787         25.1097 
        1.33529         141.716         24.4348 
        1.35108         140.682         23.7823 
        1.36674         139.214         23.1586 
         1.3824         137.105         22.5581 
        1.39811         136.347         21.9771 
        1.41389         133.688         21.4146 
        1.42964         131.076         20.8729 
        1.44531         129.066         20.3528 
        1.46101         127.646         19.8495 
        1.47667         125.933          19.365 
        1.49229         124.179         18.8981 
        1.50793         123.107         18.4462 
        1.52367          121.75         18.0063 
        1.53953         119.261          17.578 
        1.55526         118.099         17.1671 
        1.57092         116.708         16.7713 
        1.58662         114.893         16.3871 
        1.60235         113.924         16.0143 
        1.61809         111.957         15.6531 
        1.63369         110.701         15.3063 
        1.64941         109.704         14.9676 
        1.66519         107.782         14.6381 
        1.68085         107.091          14.321 
        1.69652         104.667         14.0132 
        1.71228         104.421         13.7128 
        1.72806         103.226         13.4211 
        1.74368         101.924         13.1409 
        1.75933         100.408         12.8682 
        1.77505         99.4806          12.602 
        1.79081         98.1004          12.343 
         1.8065         96.8481         12.0925 
        1.82218         95.1711         11.8491 
        1.83797         93.7649         11.6109 
        1.85367         93.2526         11.3806 
        1.86928           92.01          11.158 
        1.88497         90.5153         10.9402 
        1.90073         89.9694         10.7274 
        1.91647         88.8312         10.5206 
        1.93218         87.6613         10.3197 
        1.94787         86.8123         10.1244 
        1.96363         85.5093          9.9334 
        1.97935         84.3842         9.74778 
        1.99499         83.7256         9.56801 
        2.01064         82.6841         9.39255 
         2.0264         81.3386         9.22043 
        2.04216         80.6071         9.05274 
        2.05781         79.4877         8.89033 
        2.07353         78.2052         8.73136 
        2.08928         77.2289         8.57596 
        2.10499         76.3514          8.4248 
        2.12065         76.0756         8.27777 
        2.13633         75.0941         8.13415 
        2.15211         74.2531         7.99305 
        2.16785         73.1053         7.85571 
        2.18349         72.1731          7.7225 
        2.19916         71.4105         7.59212 
        2.21489         70.6279         7.46435 
        2.23063         69.9145         7.33946 
         2.2463         68.8582         7.21801 
        2.26194         68.7161         7.09964 
        2.27765         67.7228         6.98334 
        2.29341         66.6996         6.86936 
        2.30914         65.8424         6.75819 
        2.32486         65.0965         6.64956 
        2.34061         64.4603         6.54316 
        2.35635         63.6317         6.43921 
        2.37203         62.7095         6.33789 
        2.38768          62.065         6.23898 
        2.40339         61.4991         6.14184 
        2.41914         60.8669         6.04656 
        2.43483         60.5532         5.95366 
         2.4505         59.7699         5.86288 
        2.46622         58.8787          5.7737 
        2.48195          58.376         5.68639 
        2.49759         57.4394         5.60136 
        2.51328         56.9962         5.51786 
        2.52906         56.4677         5.43556 
        2.54479         55.7939         5.35525 
        2.56049         54.9968         5.27673 
        2.57618         54.6382         5.19987 
        2.59189         53.8173         5.12444 
        2.60758         53.6227         5.05064 
        2.62325         52.7703         4.97839 
        2.63898         52.3514         4.90732 
        2.65468         51.9194         4.83779 
        2.67044         51.0284         4.76933 
        2.68618         50.6388         4.70236 
        2.70184         50.0655         4.63695 
        2.71755         49.7322         4.57263 
        2.73329          48.948         4.50945 
        2.74897         48.5277         4.44768 
        2.76462         47.8876         4.38721 
        2.78034         47.5177         4.32762 
        2.79607          46.928         4.26909 
        2.81179         46.4184         4.21171 
        2.82749         45.8063         4.15546 
        2.84321         45.5144         4.10019 
        2.85893         44.8991         4.04594 
        2.87462         44.4159         3.99278 
        2.89033         43.9177         3.94053 
        2.90605         43.5179         3.88918 
        2.92176         43.0702         3.83878 
        2.93747          42.672         3.78931 
        2.95318         42.1496          3.7407 
        2.96891         41.6324         3.69293 
        2.98456         41.3727         3.64621 
        3.00023         40.8431         3.60024 
        3.01596         40.6032         3.55493 
        3.03164         40.0707         3.51053 
        3.04738         39.8115         3.46677 
         3.0631         39.3161         3.42377 
        3.07883         38.8514         3.38151 
        3.09456         38.4556         3.33997 
        3.11026          38.017          3.2992 
        3.12596         37.8063         3.25912 
        3.14163         37.2593          3.2198 
        3.15734         36.7469         3.18105 
        3.17308         36.6868         3.14284 
        3.18879         36.4218         3.10537 
        3.20447         35.8308         3.06858 
         3.2202         35.4383         3.03226 
         3.2359         35.0674         2.99661 
        3.25157         34.8408         2.96162 
        3.26729         34.3545         2.92708 
        3.28304         34.0534         2.89304 
        3.29877         33.7954         2.85958 
        3.31446         33.4947         2.82673 
        3.33014         33.1274         2.79443 
        3.34585         32.8365         2.76259 
        3.36158         32.5008          2.7312 
        3.37727         32.1415          2.7004 
        3.39294         31.8731         2.67011 
        3.40867         31.5222         2.64017 
        3.42439         31.2483         2.61072 
        3.44008         31.0835         2.58177 
        3.45578         30.5775         2.55325 
        3.47153         30.3212          2.5251 
        3.48724         30.0362         2.49742 
        3.50292         29.7776         2.47023 
        3.51859         29.4878         2.44346 
        3.53431         29.3064           2.417 
        3.55007         28.9468         2.39088 
        3.56577         28.7247         2.36525 
        3.58146         28.4824            2.34 
        3.59719         28.1092         2.31507 
        3.61292         27.9348         2.29052 
        3.62859         27.6187         2.26642 
        3.64429         27.3126         2.24261 
        3.66003         27.0026         2.21909 
        3.67578         26.8579         2.19591 
        3.69146         26.6092         2.17315 
        3.70712         26.3983         2.15075 
        3.72284         26.2589          2.1286 
        3.73853         25.9238         2.10679 
        3.75422         25.6465         2.08529 
        3.76993         25.4531         2.06406 
        3.78564         25.2044         2.04315 
        3.80137         25.0238         2.02249 
        3.81707         24.7958         2.00217 
        3.83279           24.58         1.98211 
        3.84853         24.2495         1.96229 
        3.86424         24.0636         1.94278 
        3.87992         23.8552         1.92358 
        3.89561         23.6326         1.90463 
        3.91134         23.4322          1.8859 
        3.92704         23.2093         1.86744 
        3.94273         23.0084         1.84926 
        3.95845         22.7213         1.83128 
        3.97418         22.6308         1.81354 
        3.98988         22.4158         1.79606 
        4.00554          22.193         1.77886 
        4.02125         22.0539         1.76184 
        4.03698         21.8219         1.74502 
        4.05268         21.5893         1.72846 
        4.06839         21.4377          1.7121 
         4.0841          21.281         1.69596 
        4.09983         21.0687            1.68 
        4.11555         20.9139         1.66426 
        4.13124         20.6157         1.64877 
        4.14693         20.4648         1.63346 
        4.16266         20.2845         1.61831 
        4.17839         20.1335         1.60336 
        4.19408         19.9551         1.58864 
        4.20977         19.8556          1.5741 
        4.22551         19.6297         1.55971 
        4.24123         19.4993         1.54551 
        4.25691         19.2838         1.53153 
        4.27259         19.1298         1.51772 
        4.28831          18.964         1.50405 
        4.30404         18.7883         1.49054 
        4.31974         18.6662         1.47723 
        4.33543         18.4934         1.46409 
        4.35116         18.3501         1.45108 
        4.36688         18.1728         1.43823 
        4.38255         18.0369         1.42558 
        4.39825         17.9389         1.41307 
        4.41398          17.745         1.40067 
         4.4297          17.581         1.38845 
        4.44541         17.4522         1.37637 
        4.46111         17.3025         1.36444 
        4.47683         17.1555         1.35265 
        4.49251         17.0632         1.34102 
        4.50819           16.89         1.32953 
         4.5239         16.7415         1.31817 
        4.53962         16.5882         1.30692 
        4.55535         16.4471          1.2958 
        4.57106         16.3736         1.28482 
        4.58678         16.2134         1.27397 
         4.6025          16.097         1.26325 
        4.61821         15.9357         1.25265 
        4.63391          15.808         1.24219 
         4.6496         15.6783         1.23185 
        4.66532         15.5398         1.22161 
        4.68103         15.4302          1.2115 
        4.69673         15.3211         1.20151 
        4.71241         15.2193         1.19165 
        4.72811         15.0506         1.18187 
        4.74384         14.9397          1.1722 
        4.75955         14.8336         1.16265 
        4.77525         14.7571         1.15322 
        4.79096         14.5965         1.14388 
        4.80669         14.4936         1.13463 
         4.8224         14.3601          1.1255 
        4.83809         14.2591         1.11649 
        4.85379         14.1144         1.10756 
         4.8695         14.0353         1.09873 
        4.88521         13.9478            1.09 
        4.90093         13.8196         1.08136 
        4.91663         13.7176         1.07282 
        4.93234         13.6297         1.06437 
        4.94807         13.5133           1.056 
        4.96377         13.3943         1.04774 
        4.97943         13.2896         1.03959 
        4.99514         13.1736          1.0315 
        5.01086         13.1118          1.0235 
        5.02654         12.9704          1.0156 
        5.04227         12.9209         1.00776 
          5.058         12.7802        0.999995 
        5.07371         12.7151        0.992333 
        5.08942         12.5926         0.98475 
        5.10513         12.5024        0.977246 
        5.12084         12.4074        0.969817 
        5.13656         12.3188        0.962468 
        5.15225         12.2114        0.955207 
        5.16796         12.1425        0.948011 
        5.18369         12.0342        0.940883 
         5.1994         11.9634        0.933841 
        5.21509         11.8718        0.926878 
        5.23079         11.7689        0.919979 
        5.24649         11.6731        0.913156 
        5.26217         11.5923        0.906407 
        5.27788         11.4897        0.899717 
        5.29359         11.4342        0.893094 
        5.30933         11.3514        0.886529 
        5.32504         11.3076        0.880041 
        5.34073         11.1738        0.873626 
        5.35646         11.1011        0.867262 
        5.37218         11.0154        0.860961 
        5.38789         10.9355        0.854733 
        5.40357         10.8783        0.848575 
        5.41929         10.7674        0.842464 
        5.43502         10.7134        0.836412 
         5.4507         10.6384        0.830435 
        5.46639         10.5615        0.824516 
        5.48212         10.4974        0.818642 
        5.49786         10.4151        0.812818 
        5.51353         10.3511         0.80708 
        5.52921         10.2631        0.801391 
        5.54495         10.1907        0.795742 
        5.56066         10.0942        0.790153 
        5.57637         10.0317         0.78462 
        5.59207         9.96387        0.779144 
        5.60778          9.8849        0.773719 
        5.62346          9.8428        0.768354 
        5.63916         9.75418        0.763035 
        5.65487         9.68593        0.757763 
         5.6706         9.62075        0.752536 
        5.68633         9.54794        0.747357 
        5.70203         9.49571        0.742237 
        5.71773         9.44198        0.737167 
        5.73344         9.34724        0.732141 
        5.74916          9.3193        0.727158 
        5.76486         9.22053        0.722229 
        5.78054         9.16476        0.717353 
        5.79626          9.0975        0.712509 
          5.812         9.05352        0.707705 
         5.8277         8.97222        0.702959 
        5.84339         8.92639        0.698258 
        5.85911         8.85417        0.693591 
        5.87484         8.79442        0.688967 
        5.89053         8.72777        0.684396 
        5.90623         8.66117        0.679863 
        5.92195         8.61624        0.675365 
        5.93767         8.56459         0.67091 
        5.95336         8.49807        0.666502 
        5.96905         8.44941        0.662136 
        5.98476         8.39112        0.657804 
        6.00048         8.33613        0.653509 
        6.01617          8.2806        0.649258 
        6.03185         8.21718        0.645051 
        6.04756          8.1575        0.640871 
        6.06331         8.11468         0.63672 
        6.07903         8.06986        0.632614 
        6.09473         7.99697        0.628549 
        6.11044         7.95148        0.624516 
        6.12616         7.90041        0.620519 
        6.14186         7.83685        0.616561 
        6.15755         7.77655        0.612638 
        6.17326         7.73262        0.608747 
        6.18898         7.69192        0.604888 
        6.20467         7.63273         0.60107 
        6.22036         7.58372        0.597285 
         6.2361         7.53392        0.593522 
         6.2518         7.47671        0.589799 
        6.26748         7.43764        0.586115 
        6.28319         7.38735        0.582454 
        6.29893          7.3413         0.57882 
        6.31463         7.29237        0.575224 
        6.33033         7.24926         0.57166 
        6.34604         7.20095        0.568124 
        6.36177         7.15678        0.564615 
        6.37747         7.10525        0.561142 
