# k  (h/Mpc)    Pcb(k)  (Mpc/h)^3    Pcb_linear(k) (Mpc/h)^3   ShotnoiseSubtracted = true
      0.0200456         6280.93         6391.95 
      0.0350414         4307.85          4388.8 
      0.0492313         3022.33         3020.95 
      0.0637834         2576.49         2521.98 
      0.0800726         2097.46         2072.78 
       0.096163         1445.36         1464.24 
       0.111083         1103.24         1115.57 
       0.126058          1016.9         1000.17 
       0.142273         905.975         885.183 
       0.158546         733.277         693.453 
        0.17375         575.576         559.936 
       0.188953         544.795          506.36 
       0.204907         519.993         465.362 
       0.220756         438.285         397.488 
        0.23588         377.683         335.976 
         0.2514         330.481         301.167 
       0.267535         316.085         278.753 
       0.283568         287.723         249.847 
       0.299022         263.116         219.787 
       0.314451         238.886         198.128 
       0.330372         222.113         183.313 
       0.346141          200.61         168.722 
       0.361624         190.451         153.095 
       0.377134         178.253         139.608 
       0.392932         162.095         129.275 
       0.408854         155.853         120.182 
       0.424564         149.307         111.108 
       0.440253         139.988         102.625 
       0.455999         131.492         95.4997 
       0.471626         121.837         89.4049 
        0.48727         117.903          83.631 
       0.502856         112.586         78.1711 
       0.518488          108.93         73.2414 
       0.534347          104.42         68.8375 
       0.550082         96.3453         64.8204 
       0.565732         92.2345         61.0684 
       0.581496         88.9196         57.5658 
       0.597222         85.9549         54.3972 
       0.612804         81.5574         51.5125 
       0.628434         79.6678         48.8172 
       0.644267         77.0214         46.2647 
       0.660051         74.7603         43.9087 
       0.675724         71.7482         41.7464 
       0.691403         69.5839          39.732 
       0.707174         67.2424         37.8392 
       0.722871         65.4516         36.0774 
        0.73838         63.9206         34.4469 
       0.754018         60.7195         32.9051 
       0.769845         59.4838         31.4411 
        0.78569          57.929         30.0653 
       0.801365         55.9065          28.786 
       0.817031         54.4146         27.5826 
       0.832809          53.653         26.4411 
       0.848511         50.9669         25.3703 
       0.864097         49.9301          24.367 
       0.879701         49.1113         23.4178 
       0.895507         48.3772         22.5086 
       0.911279          47.055         21.6504 
        0.92691         45.9367         20.8446 
       0.942635         44.2366          20.076 
       0.958396         44.0504          19.345 
       0.974128         42.8124         18.6523 
       0.989692         42.1225         18.0007 
        1.00528           41.15         17.3798 
        1.02113         39.9588         16.7787 
        1.03692         39.0932         16.2087 
        1.05264         38.7415         15.6681 
        1.06832         37.6163         15.1533 
        1.08405         37.1004         14.6605 
        1.09979         36.4749         14.1896 
        1.11537         35.2759         13.7443 
        1.13105         35.3295         13.3156 
        1.14679         34.7126         12.9038 
        1.16256         33.7493         12.5088 
        1.17828         33.1495         12.1318 
        1.19395         32.5879         11.7719 
         1.2097          32.228         11.4248 
        1.22537         31.8418         11.0936 
          1.241         31.0556         10.7767 
        1.25666         30.3382         10.4715 
        1.27241         30.0542         10.1768 
        1.28819         29.2463         9.89309 
        1.30392         28.9876         9.62115 
        1.31957           28.76         9.36076 
        1.33529          28.476         9.10916 
        1.35108         27.8596         8.86592 
        1.36674         27.3772          8.6334 
         1.3824         26.7655         8.40952 
        1.39811         26.6615         8.19293 
        1.41389         26.3146         7.98323 
        1.42964         25.7829         7.78129 
        1.44531         25.6724         7.58741 
        1.46101         25.0036         7.39979 
        1.47667         24.7995         7.21915 
        1.49229         24.5638         7.04508 
        1.50793         24.2231         6.87662 
        1.52367         23.9602         6.71264 
        1.53953         23.7143         6.55296 
        1.55526         23.2422         6.39981 
        1.57092         22.9377         6.25223 
        1.58662         22.6819         6.10901 
        1.60235         22.4127         5.97004 
        1.61809         22.1452         5.83537 
        1.63369         21.8872         5.70609 
        1.64941         21.4959         5.57985 
        1.66519         21.3929         5.45701 
        1.68085         21.0486         5.33877 
        1.69652          20.805         5.22404 
        1.71228         20.6355         5.11207 
        1.72806         20.3417         5.00332 
        1.74368         20.0627         4.89885 
        1.75933         19.8716         4.79719 
        1.77505         19.6811         4.69797 
        1.79081         19.3974         4.60141 
         1.8065         19.2926         4.50799 
        1.82218         19.0048         4.41729 
        1.83797         18.7053         4.32847 
        1.85367         18.5544         4.24262 
        1.86928         18.3821         4.15963 
        1.88497         18.1052         4.07843 
        1.90073         18.1224         3.99912 
        1.91647         17.7944         3.92201 
        1.93218         17.6337         3.84712 
        1.94787         17.4967         3.77431 
        1.96363         17.3567         3.70311 
        1.97935         17.1614         3.63392 
        1.99499         16.9128          3.5669 
        2.01064         16.7994         3.50149 
         2.0264          16.542         3.43732 
        2.04216         16.4085         3.37481 
        2.05781         16.1808         3.31426 
        2.07353         16.0426           3.255 
        2.08928         15.9418         3.19707 
        2.10499         15.7431         3.14072 
        2.12065          15.507          3.0859 
        2.13633         15.4973         3.03236 
        2.15211         15.2345         2.97976 
        2.16785         15.1916         2.92856 
        2.18349         15.0484          2.8789 
        2.19916         14.8796          2.8303 
        2.21489         14.7358         2.78266 
        2.23063         14.5745         2.73611 
         2.2463         14.4302         2.69083 
        2.26194         14.3359          2.6467 
        2.27765          14.214         2.60335 
        2.29341         14.0406         2.56086 
        2.30914         13.8866         2.51941 
        2.32486         13.8558         2.47892 
        2.34061         13.6915         2.43925 
        2.35635         13.5167          2.4005 
        2.37203          13.459         2.36273 
        2.38768          13.305         2.32585 
        2.40339         13.1221         2.28964 
        2.41914         13.0345         2.25412 
        2.43483         12.9785         2.21949 
         2.4505         12.8168         2.18565 
        2.46622           12.71          2.1524 
        2.48195         12.6317         2.11985 
        2.49759         12.4987         2.08815 
        2.51328         12.3629         2.05703 
        2.52906         12.2799         2.02634 
        2.54479         12.1622         1.99641 
        2.56049         12.1183         1.96714 
        2.57618         11.9995         1.93848 
        2.59189         11.8343         1.91036 
        2.60758         11.7889         1.88285 
        2.62325         11.7217         1.85592 
        2.63898         11.5379         1.82942 
        2.65468         11.4745          1.8035 
        2.67044         11.3489         1.77798 
        2.68618         11.2608         1.75301 
        2.70184         11.1651         1.72863 
        2.71755         11.0614         1.70465 
        2.73329         10.9568          1.6811 
        2.74897         10.8818         1.65807 
        2.76462         10.8543         1.63552 
        2.78034          10.661         1.61331 
        2.79607         10.6046         1.59149 
        2.81179         10.5117          1.5701 
        2.82749         10.4702         1.54913 
        2.84321         10.3369         1.52853 
        2.85893         10.2765          1.5083 
        2.87462         10.2192         1.48849 
        2.89033           10.08         1.46901 
        2.90605         9.99023         1.44986 
        2.92176         9.95855         1.43108 
        2.93747         9.87264         1.41263 
        2.95318         9.77566         1.39451 
        2.96891         9.70332          1.3767 
        2.98456         9.61451         1.35929 
        3.00023         9.56728         1.34215 
        3.01596          9.4761         1.32526 
        3.03164         9.43767         1.30871 
        3.04738         9.33752         1.29239 
         3.0631         9.24862         1.27636 
        3.07883         9.18098         1.26061 
        3.09456         9.13415         1.24512 
        3.11026         9.01966         1.22992 
        3.12596         8.99311         1.21498 
        3.14163         8.89561         1.20032 
        3.15734         8.83414         1.18588 
        3.17308         8.77213         1.17163 
        3.18879         8.71078         1.15766 
        3.20447         8.62133         1.14395 
         3.2202         8.56606         1.13041 
         3.2359         8.51931         1.11712 
        3.25157         8.44575         1.10407 
        3.26729         8.39739          1.0912 
        3.28304         8.28883         1.07851 
        3.29877         8.23104         1.06604 
        3.31446          8.1941         1.05379 
        3.33014         8.10334         1.04175 
        3.34585          8.0831         1.02988 
        3.36158          8.0144         1.01817 
        3.37727         7.93519         1.00669 
        3.39294         7.90314          0.9954 
        3.40867         7.79258        0.984241 
        3.42439         7.76895        0.973261 
        3.44008         7.70744         0.96247 
        3.45578          7.6509        0.951837 
        3.47153         7.61246        0.941342 
        3.48724         7.54417        0.931025 
        3.50292         7.49655        0.920888 
        3.51859         7.43262        0.910907 
        3.53431         7.37609        0.901045 
        3.55007         7.33133        0.891306 
        3.56577         7.28651         0.88175 
        3.58146         7.22173         0.87234 
        3.59719          7.1606        0.863046 
        3.61292         7.12603        0.853892 
        3.62859          7.0677        0.844906 
        3.64429         7.01132        0.836033 
        3.66003         6.94054        0.827262 
        3.67578         6.90645         0.81862 
        3.69146         6.85794        0.810136 
        3.70712          6.8357        0.801788 
        3.72284         6.74333        0.793528 
        3.73853         6.71697        0.785399 
        3.75422         6.66242        0.777382 
        3.76993         6.63255        0.769471 
        3.78564         6.56528        0.761674 
        3.80137         6.53436        0.753973 
        3.81707         6.47543        0.746396 
        3.83279         6.46016        0.738917 
        3.84853          6.3886         0.73153 
        3.86424          6.3327        0.724258 
        3.87992         6.29382        0.717097 
        3.89561         6.24818        0.710034 
        3.91134         6.19617        0.703052 
        3.92704         6.16631        0.696172 
        3.94273         6.11593        0.689392 
        3.95845         6.07811        0.682691 
        3.97418         6.04432        0.676077 
        3.98988         5.99953        0.669562 
        4.00554         5.95267         0.66315 
        4.02125         5.89855        0.656805 
        4.03698         5.86402        0.650533 
        4.05268         5.83864        0.644358 
        4.06839         5.79916         0.63826 
         4.0841         5.75276        0.632242 
        4.09983         5.70692        0.626295 
        4.11555         5.66581        0.620427 
        4.13124         5.64006        0.614651 
        4.14693         5.56946        0.608944 
        4.16266         5.53504        0.603297 
        4.17839         5.49601        0.597725 
        4.19408         5.45033        0.592237 
        4.20977         5.41873        0.586816 
        4.22551          5.3766         0.58145 
        4.24123         5.33834        0.576158 
        4.25691          5.3064        0.570946 
        4.27259         5.27551        0.565797 
        4.28831         5.23292        0.560702 
        4.30404         5.18641        0.555666 
        4.31974         5.16115        0.550703 
        4.33543         5.12638        0.545803 
        4.35116         5.08236        0.540952 
        4.36688         5.04384        0.536163 
        4.38255         5.00773        0.531449 
        4.39825         4.98523        0.526782 
        4.41398         4.94639        0.522163 
         4.4297         4.92053        0.517604 
        4.44541         4.88439        0.513101 
        4.46111         4.86533        0.508655 
        4.47683          4.8037        0.504259 
        4.49251         4.77882        0.499925 
        4.50819         4.74516        0.495643 
         4.5239         4.71749        0.491405 
        4.53962          4.6986        0.487212 
        4.55535          4.6568        0.483066 
        4.57106         4.62543        0.478975 
        4.58678         4.60483         0.47493 
         4.6025          4.5666        0.470932 
        4.61821         4.53175        0.466981 
        4.63391         4.51259         0.46308 
         4.6496         4.47411        0.459226 
        4.66532         4.44875         0.45541 
        4.68103         4.41227         0.45164 
        4.69673         4.38906        0.447916 
        4.71241         4.35379        0.444238 
        4.72811         4.33465        0.440596 
        4.74384         4.31035         0.43699 
        4.75955         4.26887         0.43343 
        4.77525         4.23985        0.429913 
        4.79096         4.21046         0.42643 
        4.80669         4.18178        0.422984 
         4.8224          4.1657        0.419581 
        4.83809         4.13655        0.416219 
        4.85379         4.10462        0.412892 
         4.8695         4.07678        0.409599 
        4.88521         4.05929        0.406344 
        4.90093         4.03308        0.403124 
        4.91663         4.00432        0.399942 
        4.93234         3.97961        0.396791 
        4.94807         3.96064        0.393672 
        4.96377         3.91814        0.390593 
        4.97943         3.89809        0.387553 
        4.99514         3.87804        0.384538 
        5.01086         3.84883        0.381553 
        5.02654         3.82619        0.378608 
        5.04227         3.80265        0.375685 
          5.058         3.77786        0.372792 
        5.07371         3.75432        0.369936 
        5.08942         3.73799        0.367109 
        5.10513         3.71313        0.364312 
        5.12084         3.68665        0.361542 
        5.13656         3.67041        0.358802 
        5.15225          3.6504        0.356096 
        5.16796         3.61792        0.353413 
        5.18369         3.59918        0.350755 
         5.1994         3.57227         0.34813 
        5.21509         3.55796        0.345535 
        5.23079         3.53464        0.342963 
        5.24649         3.50717        0.340419 
        5.26217         3.49201        0.337903 
        5.27788         3.46073        0.335409 
        5.29359         3.43966         0.33294 
        5.30933         3.42569        0.330493 
        5.32504         3.40943        0.328074 
        5.34073         3.37819        0.325683 
        5.35646         3.36351         0.32331 
        5.37218         3.34025        0.320961 
        5.38789         3.32856         0.31864 
        5.40357         3.30094        0.316344 
        5.41929          3.2791        0.314065 
        5.43502         3.26491         0.31181 
         5.4507         3.24446        0.309581 
        5.46639         3.21972        0.307375 
        5.48212         3.20699        0.305185 
        5.49786         3.18789        0.303014 
        5.51353         3.16803        0.300874 
        5.52921         3.14276        0.298754 
        5.54495         3.12669        0.296648 
        5.56066          3.1145        0.294564 
        5.57637         3.09574        0.292502 
        5.59207         3.08003         0.29046 
        5.60778         3.05975        0.288438 
        5.62346         3.03955        0.286438 
        5.63916         3.02329        0.284455 
        5.65487         3.00754         0.28249 
         5.6706          2.9896        0.280541 
        5.68633         2.96701         0.27861 
        5.70203         2.95446        0.276702 
        5.71773         2.93507        0.274811 
        5.73344         2.91966        0.272938 
        5.74916         2.90218         0.27108 
        5.76486         2.88617        0.269243 
        5.78054         2.86361        0.267425 
        5.79626         2.85391        0.265619 
          5.812          2.8415        0.263828 
         5.8277         2.82451        0.262059 
        5.84339         2.80673        0.260306 
        5.85911         2.79071        0.258567 
        5.87484         2.77835        0.256843 
        5.89053         2.75572        0.255139 
        5.90623         2.74357        0.253449 
        5.92195         2.72617        0.251772 
        5.93767         2.71573        0.250111 
        5.95336         2.69839        0.248468 
        5.96905         2.68236        0.246841 
        5.98476         2.67097        0.245225 
        6.00048         2.65802        0.243624 
        6.01617          2.6344         0.24204 
        6.03185         2.62281        0.240471 
        6.04756          2.6112        0.238913 
        6.06331         2.59114        0.237365 
        6.07903         2.57937        0.235835 
        6.09473         2.56796        0.234319 
        6.11044         2.55247        0.232816 
        6.12616         2.53905        0.231326 
        6.14186          2.5263         0.22985 
        6.15755         2.51038        0.228388 
        6.17326         2.49838        0.226937 
        6.18898         2.48439        0.225499 
        6.20467         2.47378        0.224075 
        6.22036         2.45764        0.222664 
         6.2361         2.44698        0.221262 
         6.2518         2.43324        0.219873 
        6.26748         2.42008          0.2185 
        6.28319         2.40438        0.217135 
        6.29893          2.3961        0.215781 
        6.31463         2.38209         0.21444 
        6.33033         2.36981        0.213112 
        6.34604         2.35562        0.211793 
        6.36177          2.3455        0.210485 
        6.37747         2.33525         0.20919 
