# k  (h/Mpc)    Pcb(k)  (Mpc/h)^3    Pcb_linear(k) (Mpc/h)^3   ShotnoiseSubtracted = true
      0.0200456         11462.7         11648.3 
      0.0350414         8230.23         7997.89 
      0.0492313         5475.22         5505.19 
      0.0637834         4459.78          4595.9 
      0.0800726         3608.94          3777.3 
       0.096163         2768.28         2668.35 
       0.111083         2162.04         2032.95 
       0.126058          1817.3         1822.65 
       0.142273         1613.75          1613.1 
       0.158546         1316.34         1263.71 
        0.17375         1119.57         1020.39 
       0.188953         1034.01          922.76 
       0.204907         897.027         848.048 
       0.220756         807.073         724.359 
        0.23588         707.693         612.263 
         0.2514         629.754          548.83 
       0.267535         613.383         507.982 
       0.283568         537.285         455.306 
       0.299022         509.621         400.527 
       0.314451          510.06         361.056 
       0.330372         438.285         334.058 
       0.346141          406.59         307.469 
       0.361624         387.466         278.991 
       0.377134         360.107         254.414 
       0.392932         349.414         235.583 
       0.408854          332.35         219.012 
       0.424564         320.195         202.476 
       0.440253         289.035         187.017 
       0.455999         275.261         174.033 
       0.471626         274.809         162.926 
        0.48727         261.116         152.404 
       0.502856         239.011         142.454 
       0.518488         239.482         133.471 
       0.534347         222.474         125.445 
       0.550082         216.456         118.125 
       0.565732         214.852         111.287 
       0.581496         201.322         104.904 
       0.597222         196.356         99.1303 
       0.612804         190.327         93.8732 
       0.628434         184.352         88.9614 
       0.644267         175.593           84.31 
       0.660051         172.011         80.0166 
       0.675724         169.541         76.0762 
       0.691403          165.53         72.4052 
       0.707174         159.669         68.9559 
       0.722871         157.035         65.7453 
        0.73838         154.978         62.7739 
       0.754018         146.018         59.9642 
       0.769845         145.977         57.2964 
        0.78569         142.013         54.7893 
       0.801365         137.425         52.4578 
       0.817031         134.035         50.2649 
       0.832809         131.686         48.1847 
       0.848511         128.466         46.2333 
       0.864097         126.197         44.4049 
       0.879701         124.546         42.6751 
       0.895507         120.879         41.0184 
       0.911279         117.827         39.4543 
        0.92691         115.614          37.986 
       0.942635          113.13         36.5853 
       0.958396         111.973         35.2532 
       0.974128         109.604         33.9908 
       0.989692         106.921         32.8034 
        1.00528         105.605         31.6719 
        1.02113         102.756         30.5766 
        1.03692         102.325         29.5378 
        1.05264         101.003         28.5526 
        1.06832         98.0077         27.6144 
        1.08405         96.9138         26.7164 
        1.09979         96.1865         25.8582 
        1.11537         93.6196         25.0467 
        1.13105         92.4216         24.2656 
        1.14679         90.9347         23.5151 
        1.16256         89.1329         22.7953 
        1.17828         88.3581         22.1083 
        1.19395         86.1709         21.4523 
         1.2097         85.7471         20.8199 
        1.22537         83.8658         20.2163 
          1.241         83.5133         19.6388 
        1.25666         80.8065         19.0826 
        1.27241         80.1164         18.5456 
        1.28819         79.5749         18.0286 
        1.30392          78.082          17.533 
        1.31957         77.2465         17.0585 
        1.33529         76.1419            16.6 
        1.35108         75.6571         16.1567 
        1.36674         74.2134          15.733 
         1.3824         73.6653          15.325 
        1.39811         71.8919         14.9303 
        1.41389          70.899         14.5482 
        1.42964          69.927         14.1802 
        1.44531         69.5238         13.8268 
        1.46101         68.7756         13.4849 
        1.47667         67.6992         13.1557 
        1.49229         66.8908         12.8385 
        1.50793         65.9783         12.5315 
        1.52367         65.5598         12.2327 
        1.53953         64.5244         11.9417 
        1.55526         63.3154         11.6626 
        1.57092         63.2926         11.3937 
        1.58662         62.3818         11.1327 
        1.60235         61.4955         10.8794 
        1.61809          60.355          10.634 
        1.63369         59.7499         10.3984 
        1.64941         59.5163         10.1684 
        1.66519         58.0843         9.94452 
        1.68085         57.6597         9.72906 
        1.69652          56.616         9.51998 
        1.71228         56.1995         9.31592 
        1.72806         55.8039         9.11774 
        1.74368          54.855         8.92737 
        1.75933         54.5214         8.74211 
        1.77505         53.8894          8.5613 
        1.79081         53.1404         8.38532 
         1.8065         52.8035          8.2151 
        1.82218         51.3833          8.0498 
        1.83797         51.0117         7.88795 
        1.85367         50.6207          7.7315 
        1.86928          50.191         7.58026 
        1.88497         49.3719         7.43229 
        1.90073         48.6821         7.28776 
        1.91647         48.5815         7.14724 
        1.93218         48.0557         7.01076 
        1.94787         47.3117         6.87807 
        1.96363         46.6477         6.74833 
        1.97935         46.1939         6.62223 
        1.99499         45.7576          6.5001 
        2.01064         45.0618          6.3809 
         2.0264         44.9281         6.26397 
        2.04216         44.2122         6.15005 
        2.05781         43.7193         6.03971 
        2.07353         43.0408         5.93171 
        2.08928         42.8872         5.82614 
        2.10499         42.5036         5.72345 
        2.12065         41.9093         5.62356 
        2.13633         41.6617           5.526 
        2.15211         41.0599         5.43014 
        2.16785         40.3812         5.33684 
        2.18349         40.0245         5.24634 
        2.19916         39.6561         5.15776 
        2.21489         39.4647         5.07096 
        2.23063         38.8454         4.98611 
         2.2463         38.5353         4.90361 
        2.26194         38.1166         4.82319 
        2.27765         37.6718         4.74418 
        2.29341         37.1025         4.66675 
        2.30914         36.7838         4.59123 
        2.32486         36.3599         4.51743 
        2.34061         36.0736         4.44515 
        2.35635         35.7075         4.37452 
        2.37203         35.3286         4.30569 
        2.38768         35.1286          4.2385 
        2.40339         34.7369         4.17251 
        2.41914          34.474         4.10778 
        2.43483         33.9079         4.04466 
         2.4505         33.7737         3.98299 
        2.46622         33.2877         3.92241 
        2.48195         33.0373         3.86309 
        2.49759         32.6411         3.80533 
        2.51328         32.2899          3.7486 
        2.52906         32.0158         3.69269 
        2.54479         31.8172         3.63813 
        2.56049         31.4499         3.58479 
        2.57618         31.1138         3.53257 
        2.59189         30.7866         3.48133 
        2.60758         30.3898         3.43119 
        2.62325         30.3249         3.38211 
        2.63898         29.9454         3.33382 
        2.65468         29.5269         3.28659 
        2.67044         29.4184         3.24008 
        2.68618         29.0735         3.19458 
        2.70184           28.77         3.15015 
        2.71755         28.4595         3.10645 
        2.73329         28.2386         3.06353 
        2.74897         27.9005         3.02156 
        2.76462         27.6542         2.98048 
        2.78034         27.3702            2.94 
        2.79607         27.1674         2.90024 
        2.81179          26.883         2.86126 
        2.82749         26.6189         2.82305 
        2.84321         26.3485         2.78549 
        2.85893         26.0942         2.74864 
        2.87462         25.9246         2.71253 
        2.89033         25.6066         2.67703 
        2.90605          25.378         2.64215 
        2.92176         25.2015         2.60791 
        2.93747         24.9041         2.57429 
        2.95318         24.8106         2.54127 
        2.96891         24.4431         2.50882 
        2.98456         24.2576         2.47708 
        3.00023         23.9468         2.44585 
        3.01596         23.6547         2.41507 
        3.03164         23.4937         2.38491 
        3.04738         23.3795         2.35517 
         3.0631         23.1306         2.32596 
        3.07883          22.815         2.29725 
        3.09456         22.6074         2.26903 
        3.11026         22.3856         2.24133 
        3.12596         22.1778         2.21411 
        3.14163         21.9916          2.1874 
        3.15734         21.8534         2.16107 
        3.17308         21.5449         2.13511 
        3.18879         21.4225         2.10966 
        3.20447         21.2407         2.08466 
         3.2202         20.9888         2.05999 
         3.2359         20.7694         2.03577 
        3.25157         20.5943           2.012 
        3.26729          20.498         1.98854 
        3.28304         20.2701         1.96541 
        3.29877         20.0677         1.94268 
        3.31446         19.9405         1.92036 
        3.33014         19.6729         1.89842 
        3.34585         19.5832         1.87679 
        3.36158         19.3089         1.85546 
        3.37727         19.1801         1.83454 
        3.39294         19.0691         1.81396 
        3.40867         18.8574         1.79362 
        3.42439          18.654         1.77361 
        3.44008         18.4918         1.75395 
        3.45578         18.3217         1.73457 
        3.47153         18.1611         1.71544 
        3.48724         18.0643         1.69664 
        3.50292         17.8351         1.67817 
        3.51859         17.7117         1.65998 
        3.53431         17.5544         1.64201 
        3.55007         17.3536         1.62426 
        3.56577         17.2423         1.60685 
        3.58146         17.0841          1.5897 
        3.59719         16.9309         1.57276 
        3.61292         16.8145         1.55608 
        3.62859          16.581         1.53971 
        3.64429         16.4464         1.52354 
        3.66003         16.3661         1.50755 
        3.67578         16.2561          1.4918 
        3.69146          16.069         1.47634 
        3.70712         15.9112         1.46113 
        3.72284         15.8005         1.44608 
        3.73853         15.6881         1.43126 
        3.75422         15.4806         1.41665 
        3.76993         15.3637         1.40224 
        3.78564         15.2487         1.38803 
        3.80137         15.1032           1.374 
        3.81707         14.9763         1.36019 
        3.83279         14.8789         1.34656 
        3.84853         14.7219          1.3331 
        3.86424          14.598         1.31985 
        3.87992         14.4907          1.3068 
        3.89561         14.3583         1.29392 
        3.91134         14.2624          1.2812 
        3.92704         14.1574         1.26866 
        3.94273         14.0118         1.25631 
        3.95845         13.8709         1.24409 
        3.97418         13.7357         1.23204 
        3.98988         13.6567         1.22017 
        4.00554         13.5258         1.20848 
        4.02125         13.4102         1.19692 
        4.03698         13.3019         1.18549 
        4.05268         13.2139         1.17424 
        4.06839         13.0607         1.16313 
         4.0841         12.9882         1.15216 
        4.09983         12.8373         1.14132 
        4.11555         12.7527         1.13063 
        4.13124          12.662          1.1201 
        4.14693          12.566          1.1097 
        4.16266         12.4519         1.09941 
        4.17839         12.3177         1.08926 
        4.19408         12.2346         1.07926 
        4.20977         12.1529         1.06938 
        4.22551         12.0204          1.0596 
        4.24123         11.9267         1.04995 
        4.25691         11.8249         1.04046 
        4.27259          11.731         1.03107 
        4.28831         11.6867         1.02179 
        4.30404         11.5759         1.01261 
        4.31974         11.4793         1.00357 
        4.33543         11.3355        0.994639 
        4.35116         11.2773        0.985799 
        4.36688         11.1655         0.97707 
        4.38255         11.0692        0.968481 
        4.39825         11.0025        0.959977 
        4.41398         10.9146        0.951558 
         4.4297         10.8124        0.943251 
        4.44541         10.7344        0.935044 
        4.46111          10.647        0.926943 
        4.47683         10.5498        0.918932 
        4.49251         10.4741        0.911033 
        4.50819         10.3869        0.903229 
         4.5239         10.3195        0.895507 
        4.53962         10.2177        0.887866 
        4.55535         10.1438         0.88031 
        4.57106         10.1021        0.872855 
        4.58678         9.99897        0.865484 
         4.6025         9.93012        0.858198 
        4.61821         9.87087        0.850998 
        4.63391         9.76111         0.84389 
         4.6496         9.68018        0.836866 
        4.66532         9.61424        0.829912 
        4.68103         9.52875        0.823042 
        4.69673          9.4453        0.816255 
        4.71241         9.39414        0.809553 
        4.72811         9.31877        0.802915 
        4.74384         9.25826        0.796344 
        4.75955         9.18423        0.789858 
        4.77525         9.09148        0.783447 
        4.79096         9.04729          0.7771 
        4.80669         8.95779        0.770821 
         4.8224         8.90793         0.76462 
        4.83809          8.8189        0.758493 
        4.85379         8.78297         0.75243 
         4.8695         8.69168        0.746429 
        4.88521         8.61395        0.740497 
        4.90093         8.58038        0.734629 
        4.91663         8.49253         0.72883 
        4.93234         8.44709        0.723087 
        4.94807         8.37141        0.717404 
        4.96377         8.32023        0.711792 
        4.97943         8.25707        0.706253 
        4.99514         8.18995        0.700759 
        5.01086         8.14243         0.69532 
        5.02654         8.06181        0.689952 
        5.04227         8.01624        0.684626 
          5.058          7.9529        0.679354 
        5.07371         7.89898        0.674149 
        5.08942         7.84149        0.668997 
        5.10513         7.75355          0.6639 
        5.12084          7.7169        0.658853 
        5.13656         7.66643         0.65386 
        5.15225         7.59489        0.648927 
        5.16796         7.55272        0.644038 
        5.18369         7.49003        0.639196 
         5.1994         7.44709        0.634412 
        5.21509         7.39262        0.629682 
        5.23079         7.32372        0.624995 
        5.24649          7.2838        0.620359 
        5.26217         7.23595        0.615774 
        5.27788         7.17973         0.61123 
        5.29359         7.12238         0.60673 
        5.30933         7.05569         0.60227 
        5.32504         7.02485        0.597863 
        5.34073         6.97561        0.593504 
        5.35646         6.92509        0.589181 
        5.37218         6.87957        0.584901 
        5.38789         6.82798         0.58067 
        5.40357         6.78019        0.576486 
        5.41929         6.73333        0.572334 
        5.43502         6.68627        0.568223 
         5.4507         6.63634        0.564162 
        5.46639         6.58441        0.560141 
        5.48212         6.55096         0.55615 
        5.49786         6.50251        0.552194 
        5.51353         6.46505        0.548296 
        5.52921         6.40512        0.544431 
        5.54495         6.35434        0.540593 
        5.56066         6.31774        0.536797 
        5.57637         6.27675        0.533037 
        5.59207          6.2265        0.529317 
        5.60778         6.18817        0.525632 
        5.62346         6.14543        0.521987 
        5.63916         6.10836        0.518373 
        5.65487         6.06666        0.514792 
         5.6706         6.02178        0.511241 
        5.68633         5.98196        0.507722 
        5.70203         5.93667        0.504244 
        5.71773         5.91125          0.5008 
        5.73344           5.869        0.497386 
        5.74916          5.8226           0.494 
        5.76486         5.78947        0.490651 
        5.78054         5.74562        0.487339 
        5.79626         5.70399        0.484048 
          5.812         5.66333        0.480785 
         5.8277         5.62373        0.477561 
        5.84339         5.58736        0.474367 
        5.85911         5.55683        0.471196 
        5.87484         5.51595        0.468055 
        5.89053         5.48172        0.464949 
        5.90623         5.44416         0.46187 
        5.92195         5.40864        0.458814 
        5.93767          5.3825        0.455788 
        5.95336         5.33184        0.452793 
        5.96905          5.3067        0.449827 
        5.98476         5.26875        0.446884 
        6.00048         5.23214        0.443966 
        6.01617         5.19377        0.441079 
        6.03185         5.17847         0.43822 
        6.04756         5.14156        0.435381 
        6.06331         5.09536         0.43256 
        6.07903         5.06471        0.429771 
        6.09473         5.02967        0.427009 
        6.11044         4.98661        0.424269 
        6.12616         4.96671        0.421554 
        6.14186         4.94079        0.418865 
        6.15755         4.90805        0.416201 
        6.17326         4.87571        0.413557 
        6.18898         4.84483        0.410935 
        6.20467         4.81126        0.408341 
        6.22036         4.78437         0.40577 
         6.2361         4.75198        0.403214 
         6.2518         4.72632        0.400684 
        6.26748         4.69375        0.398182 
        6.28319         4.66582        0.395694 
        6.29893         4.63877        0.393226 
        6.31463         4.61029        0.390783 
        6.33033         4.58002        0.388362 
        6.34604         4.54838        0.385959 
        6.36177         4.52343        0.383575 
        6.37747         4.49017        0.381216 
