# k  (h/Mpc)    Pcb(k)  (Mpc/h)^3    Pcb_linear(k) (Mpc/h)^3   ShotnoiseSubtracted = true
      0.0200456         22218.7         22635.8 
      0.0350414         16092.7         15542.1 
      0.0492313         10524.7         10698.1 
      0.0637834         8541.91         8931.08 
      0.0800726         6876.58         7340.33 
       0.096163         5424.15         5185.32 
       0.111083         4264.81         3950.57 
       0.126058         3545.54          3541.9 
       0.142273         3180.69          3134.7 
       0.158546         2595.66         2455.73 
        0.17375         2274.55          1982.9 
       0.188953         2151.97         1793.17 
       0.204907         1864.13         1647.99 
       0.220756         1690.35         1407.63 
        0.23588         1496.74         1189.79 
         0.2514         1349.92         1066.52 
       0.267535         1307.17         987.147 
       0.283568         1162.97         884.784 
       0.299022         1106.16         778.333 
       0.314451         1150.75         701.629 
       0.330372         1009.51         649.166 
       0.346141         927.419         597.496 
       0.361624          889.47         542.156 
       0.377134         851.929         494.396 
       0.392932         811.714         457.802 
       0.408854         778.277         425.599 
       0.424564         759.436         393.467 
       0.440253         700.982         363.426 
       0.455999         669.622         338.193 
       0.471626         683.448          316.61 
        0.48727         643.359         296.162 
       0.502856         614.656         276.827 
       0.518488         597.567          259.37 
       0.534347         572.273         243.774 
       0.550082         544.855         229.549 
       0.565732         538.265         216.262 
       0.581496         526.605         203.858 
       0.597222         514.229         192.637 
       0.612804         501.254         182.421 
       0.628434         481.045         172.876 
       0.644267         466.457         163.837 
       0.660051         461.279         155.494 
       0.675724          451.09         147.837 
       0.691403         440.569         140.703 
       0.707174         425.942             134 
       0.722871         421.343         127.761 
        0.73838         411.614         121.987 
       0.754018         400.276         116.527 
       0.769845         396.948         111.342 
        0.78569         388.337          106.47 
       0.801365         374.897          101.94 
       0.817031         372.788         97.6783 
       0.832809         366.235          93.636 
       0.848511         360.135         89.8438 
       0.864097         350.107         86.2908 
       0.879701         349.468         82.9293 
       0.895507         337.015         79.7099 
       0.911279          330.89         76.6705 
        0.92691         328.443          73.817 
       0.942635         324.083         71.0951 
       0.958396          313.99         68.5065 
       0.974128         310.985         66.0533 
       0.989692         301.025          63.746 
        1.00528         299.184          61.547 
        1.02113         295.167         59.4186 
        1.03692         289.925         57.3999 
        1.05264         285.478         55.4854 
        1.06832         281.162         53.6623 
        1.08405         277.773         51.9172 
        1.09979         272.811         50.2495 
        1.11537         266.973         48.6725 
        1.13105         263.016         47.1546 
        1.14679         260.026         45.6963 
        1.16256         258.221         44.2975 
        1.17828         253.986         42.9625 
        1.19395         247.962         41.6877 
         1.2097         247.737         40.4587 
        1.22537         243.548         39.2858 
          1.241         236.786         38.1634 
        1.25666         235.736         37.0826 
        1.27241         232.329         36.0391 
        1.28819         228.039         35.0344 
        1.30392         227.416         34.0714 
        1.31957         220.711         33.1493 
        1.33529         217.602         32.2583 
        1.35108         217.286         31.3969 
        1.36674         210.758         30.5735 
         1.3824         209.848         29.7807 
        1.39811         208.302         29.0136 
        1.41389         202.669          28.271 
        1.42964         200.054         27.5559 
        1.44531         199.139         26.8693 
        1.46101         195.187         26.2049 
        1.47667         193.313         25.5652 
        1.49229          190.61         24.9488 
        1.50793         187.689         24.3522 
        1.52367         185.131         23.7715 
        1.53953         181.829          23.206 
        1.55526         180.337         22.6636 
        1.57092         179.086          22.141 
        1.58662         174.928         21.6338 
        1.60235         173.229         21.1417 
        1.61809         170.885         20.6648 
        1.63369         167.776          20.207 
        1.64941         166.091         19.7599 
        1.66519         164.065         19.3249 
        1.68085         161.495         18.9062 
        1.69652         159.997         18.4999 
        1.71228         157.144         18.1034 
        1.72806         156.201         17.7182 
        1.74368         154.031         17.3483 
        1.75933          152.79         16.9883 
        1.77505          150.78         16.6369 
        1.79081         147.555          16.295 
         1.8065         146.327         15.9642 
        1.82218         143.311         15.6429 
        1.83797         142.687         15.3284 
        1.85367         140.561         15.0244 
        1.86928         139.123         14.7305 
        1.88497          137.73          14.443 
        1.90073         136.512         14.1621 
        1.91647         133.956          13.889 
        1.93218         132.227         13.6238 
        1.94787         130.179          13.366 
        1.96363         129.806         13.1138 
        1.97935         128.247         12.8688 
        1.99499         126.351         12.6315 
        2.01064         123.936         12.3998 
         2.0264         123.158         12.1726 
        2.04216         121.392         11.9512 
        2.05781         119.738         11.7368 
        2.07353         118.608         11.5269 
        2.08928         117.035         11.3218 
        2.10499         116.113         11.1222 
        2.12065          114.69         10.9281 
        2.13633         113.745         10.7385 
        2.15211         111.723         10.5522 
        2.16785         110.598         10.3709 
        2.18349         108.982         10.1951 
        2.19916         108.253         10.0229 
        2.21489         107.007         9.85425 
        2.23063         105.342         9.68937 
         2.2463         104.175         9.52904 
        2.26194         103.274         9.37277 
        2.27765         101.905         9.21923 
        2.29341         100.942         9.06877 
        2.30914         99.5063           8.922 
        2.32486         98.1513         8.77859 
        2.34061         97.2006         8.63812 
        2.35635          96.327         8.50088 
        2.37203         94.6199         8.36713 
        2.38768         93.9122         8.23655 
        2.40339         92.8899         8.10831 
        2.41914         91.6357         7.98253 
        2.43483         90.9832         7.85988 
         2.4505         89.6999         7.74004 
        2.46622         88.6772          7.6223 
        2.48195          88.005         7.50703 
        2.49759         86.7255         7.39478 
        2.51328         85.9151         7.28455 
        2.52906         84.6402         7.17589 
        2.54479         83.7065         7.06987 
        2.56049         82.4462         6.96622 
        2.57618         81.8462         6.86475 
        2.59189         80.9473         6.76517 
        2.60758         79.6247         6.66773 
        2.62325         79.1314         6.57235 
        2.63898         78.4581         6.47852 
        2.65468         77.5107         6.38674 
        2.67044         76.3534         6.29635 
        2.68618         75.7209         6.20794 
        2.70184         74.8667         6.12159 
        2.71755         74.0545         6.03668 
        2.73329         73.0152         5.95327 
        2.74897         72.5391         5.87172 
        2.76462         71.7094         5.79188 
        2.78034         70.5521         5.71322 
        2.79607         69.9236         5.63594 
        2.81179         69.4658          5.5602 
        2.82749         68.8698         5.48594 
        2.84321         67.9976         5.41297 
        2.85893         67.1617         5.34136 
        2.87462          66.484         5.27118 
        2.89033         65.8843          5.2022 
        2.90605         65.2381         5.13441 
        2.92176         64.5326         5.06787 
        2.93747         64.0895         5.00255 
        2.95318         62.9519         4.93838 
        2.96891          62.485         4.87532 
        2.98456         61.7411         4.81365 
        3.00023         61.2614         4.75296 
        3.01596         60.6355         4.69313 
        3.03164         59.9025         4.63452 
        3.04738         59.6095         4.57674 
         3.0631         58.6625         4.51998 
        3.07883         57.9752         4.46418 
        3.09456         57.3773         4.40935 
        3.11026         56.8395         4.35552 
        3.12596         56.3457         4.30261 
        3.14163         55.6029          4.2507 
        3.15734         54.9411         4.19954 
        3.17308          54.511          4.1491 
        3.18879         54.0851         4.09964 
        3.20447         53.5959         4.05106 
         3.2202         52.9279         4.00312 
         3.2359         52.3048         3.95605 
        3.25157         51.8785         3.90986 
        3.26729          51.334         3.86427 
        3.28304         50.8882         3.81932 
        3.29877         50.3792         3.77515 
        3.31446         49.9261         3.73178 
        3.33014         49.3043         3.68914 
        3.34585         48.7621          3.6471 
        3.36158         48.3851         3.60566 
        3.37727         47.8202           3.565 
        3.39294         47.4798         3.52501 
        3.40867         47.0473         3.48549 
        3.42439          46.634         3.44661 
        3.44008         45.9886          3.4084 
        3.45578         45.6788         3.37074 
        3.47153         45.0521         3.33357 
        3.48724         44.6948         3.29704 
        3.50292         44.3398         3.26114 
        3.51859         43.7345          3.2258 
        3.53431          43.371         3.19087 
        3.55007         42.9885         3.15638 
        3.56577         42.6571         3.12254 
        3.58146         42.1834         3.08922 
        3.59719         41.8118         3.05631 
        3.61292         41.3665         3.02389 
        3.62859         41.0079         2.99207 
        3.64429         40.6962         2.96065 
        3.66003         40.3608         2.92958 
        3.67578         39.8945         2.89898 
        3.69146         39.6595         2.86894 
        3.70712         39.1644         2.83937 
        3.72284         38.8259         2.81012 
        3.73853         38.5571         2.78133 
        3.75422         38.1476         2.75294 
        3.76993          37.866         2.72493 
        3.78564         37.5188         2.69732 
        3.80137         37.2025         2.67005 
        3.81707         36.7265         2.64321 
        3.83279         36.5541         2.61673 
        3.84853         36.1306         2.59057 
        3.86424         35.7281         2.56482 
        3.87992            35.6         2.53946 
        3.89561         35.2504         2.51444 
        3.91134         34.9488         2.48972 
        3.92704         34.6596         2.46535 
        3.94273         34.2729         2.44134 
        3.95845         34.0241         2.41761 
        3.97418         33.6318         2.39419 
        3.98988         33.3596         2.37112 
        4.00554         33.1443         2.34841 
        4.02125         32.8442         2.32594 
        4.03698         32.4609         2.30373 
        4.05268         32.2666         2.28187 
        4.06839         31.8883         2.26027 
         4.0841         31.6774         2.23896 
        4.09983          31.354          2.2179 
        4.11555         31.0274         2.19712 
        4.13124         30.9296         2.17666 
        4.14693         30.5982         2.15645 
        4.16266          30.239         2.13645 
        4.17839         30.0191         2.11672 
        4.19408         29.8102         2.09729 
        4.20977         29.5358         2.07809 
        4.22551         29.2323         2.05909 
        4.24123         29.0397         2.04035 
        4.25691         28.7643         2.02189 
        4.27259         28.6541         2.00366 
        4.28831         28.2722         1.98562 
        4.30404          28.064         1.96778 
        4.31974         27.8023          1.9502 
        4.33543         27.6031         1.93285 
        4.35116         27.3609         1.91567 
        4.36688         27.1397         1.89871 
        4.38255          26.957         1.88202 
        4.39825          26.683         1.86549 
        4.41398         26.4548         1.84914 
         4.4297         26.2699         1.83299 
        4.44541         26.0461         1.81704 
        4.46111           25.85          1.8013 
        4.47683         25.6251         1.78573 
        4.49251         25.3712         1.77038 
        4.50819         25.2431         1.75522 
         4.5239         24.9701         1.74021 
        4.53962         24.8269         1.72536 
        4.55535         24.5558         1.71068 
        4.57106          24.387         1.69619 
        4.58678         24.1868         1.68187 
         4.6025         23.9935         1.66771 
        4.61821         23.7452         1.65372 
        4.63391         23.5573         1.63991 
         4.6496         23.4319         1.62626 
        4.66532         23.2349         1.61275 
        4.68103         23.0436         1.59939 
        4.69673         22.8697         1.58621 
        4.71241         22.7027         1.57318 
        4.72811         22.4596         1.56028 
        4.74384         22.2956         1.54751 
        4.75955         22.1347         1.53491 
        4.77525         21.9526         1.52245 
        4.79096         21.8315         1.51012 
        4.80669         21.6278         1.49792 
         4.8224         21.4398         1.48586 
        4.83809         21.2696         1.47396 
        4.85379         21.1038         1.46218 
         4.8695         21.0082         1.45051 
        4.88521          20.818         1.43899 
        4.90093         20.5589         1.42758 
        4.91663         20.4982         1.41631 
        4.93234         20.2728         1.40515 
        4.94807         20.1545         1.39411 
        4.96377         20.0172         1.38321 
        4.97943         19.8294         1.37244 
        4.99514          19.659         1.36177 
        5.01086           19.51         1.35119 
        5.02654         19.3896         1.34076 
        5.04227         19.2398         1.33041 
          5.058         19.0497         1.32017 
        5.07371         18.9356         1.31005 
        5.08942         18.7926         1.30004 
        5.10513         18.6464         1.29014 
        5.12084         18.5216         1.28033 
        5.13656         18.3275         1.27063 
        5.15225         18.2293         1.26104 
        5.16796         18.0977         1.25154 
        5.18369         17.9862         1.24213 
         5.1994         17.8607         1.23283 
        5.21509         17.7257         1.22364 
        5.23079         17.5632         1.21453 
        5.24649         17.4432         1.20553 
        5.26217         17.3104         1.19662 
        5.27788         17.1669         1.18779 
        5.29359         17.0472         1.17904 
        5.30933         16.9416         1.17037 
        5.32504         16.7997         1.16181 
        5.34073         16.6634         1.15334 
        5.35646         16.5726         1.14494 
        5.37218         16.4423         1.13662 
        5.38789         16.2926          1.1284 
        5.40357         16.2077         1.12027 
        5.41929         16.0822          1.1122 
        5.43502           15.97         1.10421 
         5.4507         15.8586         1.09632 
        5.46639         15.7645         1.08851 
        5.48212         15.6458         1.08075 
        5.49786         15.5144         1.07306 
        5.51353          15.389         1.06549 
        5.52921         15.2793         1.05798 
        5.54495         15.1655         1.05052 
        5.56066         15.0703         1.04314 
        5.57637         14.9648         1.03584 
        5.59207         14.8591         1.02861 
        5.60778         14.7491         1.02145 
        5.62346         14.6547         1.01436 
        5.63916         14.5321         1.00734 
        5.65487         14.4246         1.00038 
         5.6706         14.3292         0.99348 
        5.68633         14.2454        0.986642 
        5.70203         14.1422        0.979884 
        5.71773         14.0417         0.97319 
        5.73344         13.9391        0.966555 
        5.74916         13.8734        0.959977 
        5.76486         13.7499        0.953469 
        5.78054         13.6848        0.947032 
        5.79626         13.5527        0.940637 
          5.812         13.4883        0.934295 
         5.8277         13.3782         0.92803 
        5.84339         13.2921        0.921823 
        5.85911         13.1914        0.915662 
        5.87484         13.1045        0.909558 
        5.89053         13.0175        0.903523 
        5.90623         12.9145        0.897539 
        5.92195         12.8136          0.8916 
        5.93767         12.7204        0.885719 
        5.95336         12.6627          0.8799 
        5.96905         12.5631        0.874137 
        5.98476         12.5114        0.868417 
        6.00048         12.3824        0.862747 
        6.01617         12.3245        0.857135 
        6.03185         12.2417        0.851581 
        6.04756         12.1439        0.846063 
        6.06331         12.0727        0.840582 
        6.07903         11.9988        0.835162 
        6.09473         11.9211        0.829795 
        6.11044         11.8298         0.82447 
        6.12616         11.7426        0.819194 
        6.14186         11.6626        0.813969 
        6.15755         11.5733        0.808791 
        6.17326         11.5066        0.803653 
        6.18898         11.4465        0.798559 
        6.20467         11.3627        0.793518 
        6.22036         11.2826        0.788521 
         6.2361         11.2122        0.783554 
         6.2518         11.1584        0.778638 
        6.26748         11.0655        0.773776 
        6.28319         10.9973        0.768941 
        6.29893         10.9181        0.764145 
        6.31463         10.8679        0.759397 
        6.33033          10.789        0.754692 
        6.34604         10.6933        0.750024 
        6.36177         10.6422        0.745391 
        6.37747          10.593        0.740806 
