# k  (h/Mpc)    Pcb(k)  (Mpc/h)^3    Pcb_linear(k) (Mpc/h)^3   ShotnoiseSubtracted = true
      0.0200456         20700.5         21081.9 
      0.0350414         14977.2         14475.1 
      0.0492313          9816.4         9963.67 
      0.0637834         7969.12         8317.96 
      0.0800726         6419.75         6836.42 
       0.096163         5046.38         4829.35 
       0.111083         3965.04         3679.37 
       0.126058         3299.16         3298.75 
       0.142273         2956.04          2919.5 
       0.158546         2413.04         2287.14 
        0.17375         2105.77         1846.78 
       0.188953         1986.25         1670.07 
       0.204907         1720.88         1534.85 
       0.220756         1558.47         1310.99 
        0.23588         1379.02         1108.11 
         0.2514         1240.55         993.309 
       0.267535         1203.54          919.38 
       0.283568         1067.71         824.044 
       0.299022         1016.29         724.901 
       0.314451         1054.07         653.463 
       0.330372         919.758         604.601 
       0.346141         845.933         556.478 
       0.361624         811.168         504.937 
       0.377134         774.919         460.456 
       0.392932         740.276         426.374 
       0.408854         708.675         396.382 
       0.424564         690.655         366.456 
       0.440253         635.239         338.477 
       0.455999         607.039         314.977 
       0.471626         619.445         294.875 
        0.48727         583.236         275.831 
       0.502856         553.452         257.823 
       0.518488         541.167         241.564 
       0.534347         515.393         227.039 
       0.550082         491.366          213.79 
       0.565732         486.253         201.415 
       0.581496         474.875         189.863 
       0.597222         462.837         179.413 
       0.612804         451.237         169.898 
       0.628434          433.34         161.008 
       0.644267         419.155          152.59 
       0.660051         414.199         144.819 
       0.675724         405.282         137.688 
       0.691403         396.622         131.044 
       0.707174         382.571         124.801 
       0.722871         377.538          118.99 
        0.73838         369.911         113.613 
       0.754018         358.591         108.527 
       0.769845          356.26         103.699 
        0.78569         348.259         99.1613 
       0.801365         336.509         94.9417 
       0.817031         334.603         90.9727 
       0.832809         328.155          87.208 
       0.848511         322.053         83.6761 
       0.864097         313.143          80.367 
       0.879701         312.138         77.2363 
       0.895507         302.093         74.2379 
       0.911279         295.739         71.4071 
        0.92691         293.519         68.7496 
       0.942635         289.932         66.2145 
       0.958396          281.28         63.8036 
       0.974128         278.829         61.5188 
       0.989692         269.029         59.3699 
        1.00528         268.184         57.3219 
        1.02113         264.645         55.3395 
        1.03692         259.264         53.4595 
        1.05264         254.907         51.6764 
        1.06832         252.658         49.9784 
        1.08405         247.822         48.3531 
        1.09979         244.435            46.8 
        1.11537          239.67         45.3312 
        1.13105         235.539         43.9175 
        1.14679         233.548         42.5593 
        1.16256         231.057         41.2565 
        1.17828         227.759         40.0132 
        1.19395         222.181         38.8259 
         1.2097         221.959         37.6813 
        1.22537         218.678         36.5889 
          1.241         212.245         35.5436 
        1.25666         211.394         34.5369 
        1.27241         207.934          33.565 
        1.28819         204.952         32.6293 
        1.30392         203.216         31.7324 
        1.31957         197.761         30.8736 
        1.33529          194.83         30.0438 
        1.35108          194.51         29.2415 
        1.36674         189.098         28.4746 
         1.3824         188.194         27.7362 
        1.39811         186.702         27.0219 
        1.41389         181.773         26.3302 
        1.42964         179.545         25.6642 
        1.44531         178.525         25.0248 
        1.46101         174.929          24.406 
        1.47667         173.571         23.8101 
        1.49229         171.104          23.236 
        1.50793         168.125         22.6804 
        1.52367         166.351         22.1396 
        1.53953         162.988         21.6129 
        1.55526         162.012         21.1078 
        1.57092         160.885         20.6211 
        1.58662         156.875         20.1487 
        1.60235         155.504         19.6904 
        1.61809         153.253         19.2462 
        1.63369         150.717         18.8198 
        1.64941         149.433         18.4034 
        1.66519         147.628         17.9983 
        1.68085         145.179         17.6083 
        1.69652         143.662         17.2299 
        1.71228         141.416         16.8606 
        1.72806          140.67         16.5019 
        1.74368         138.797         16.1574 
        1.75933         137.499         15.8221 
        1.77505         135.595         15.4948 
        1.79081         132.822         15.1763 
         1.8065           131.3         14.8682 
        1.82218         129.325         14.5691 
        1.83797         128.653         14.2761 
        1.85367         127.018          13.993 
        1.86928         125.639         13.7193 
        1.88497         123.851         13.4515 
        1.90073          123.01         13.1899 
        1.91647         120.881         12.9356 
        1.93218         119.583         12.6885 
        1.94787          117.56         12.4484 
        1.96363          116.99         12.2136 
        1.97935          115.53         11.9854 
        1.99499         114.472         11.7643 
        2.01064         112.085         11.5486 
         2.0264         111.351         11.3369 
        2.04216         109.614         11.1308 
        2.05781         108.457         10.9311 
        2.07353         107.283         10.7356 
        2.08928         105.922         10.5445 
        2.10499         105.019         10.3587 
        2.12065         103.838         10.1779 
        2.13633         102.984         10.0013 
        2.15211         101.253         9.82783 
        2.16785         99.9861         9.65897 
        2.18349         98.4394         9.49518 
        2.19916         97.7113         9.33487 
        2.21489         96.9751         9.17777 
        2.23063          95.243         9.02421 
         2.2463         94.2699         8.87488 
        2.26194         93.5136         8.72934 
        2.27765         91.9686         8.58634 
        2.29341         91.1191          8.4462 
        2.30914         89.8479         8.30951 
        2.32486         88.5349         8.17595 
        2.34061          87.828         8.04513 
        2.35635          86.875         7.91731 
        2.37203         85.5265         7.79273 
        2.38768         84.7106         7.67112 
        2.40339         84.0554         7.55168 
        2.41914         82.7255         7.43453 
        2.43483         82.0242         7.32031 
         2.4505         80.9366         7.20869 
        2.46622         80.1019         7.09904 
        2.48195         79.3282         6.99168 
        2.49759         78.3014         6.88713 
        2.51328         77.2677         6.78447 
        2.52906         76.1446         6.68327 
        2.54479         75.5445         6.58453 
        2.56049         74.4437         6.48799 
        2.57618         73.8009         6.39349 
        2.59189         73.1713         6.30075 
        2.60758         71.8233            6.21 
        2.62325         71.3951         6.12117 
        2.63898          70.763         6.03378 
        2.65468         69.9462         5.94829 
        2.67044         69.0042         5.86411 
        2.68618         68.5076         5.78177 
        2.70184         67.5083         5.70135 
        2.71755         66.7946         5.62227 
        2.73329         65.8354         5.54458 
        2.74897           65.44         5.46863 
        2.76462         64.7093         5.39428 
        2.78034          63.926         5.32101 
        2.79607         63.3814         5.24904 
        2.81179         62.8031          5.1785 
        2.82749         62.1646         5.10934 
        2.84321         61.4678         5.04138 
        2.85893         60.7698         4.97468 
        2.87462         60.1119         4.90931 
        2.89033         59.4938         4.84507 
        2.90605         58.8525         4.78194 
        2.92176         58.2753         4.71996 
        2.93747         57.8263         4.65913 
        2.95318         57.0208         4.59937 
        2.96891         56.4038         4.54063 
        2.98456         55.7806         4.48319 
        3.00023         55.2342         4.42667 
        3.01596         54.6192         4.37095 
        3.03164         54.1012         4.31636 
        3.04738         53.5821         4.26255 
         3.0631         52.8174         4.20969 
        3.07883         52.2036         4.15772 
        3.09456          51.757         4.10665 
        3.11026         51.3026         4.05652 
        3.12596         50.7466         4.00724 
        3.14163         50.1404          3.9589 
        3.15734         49.6327         3.91125 
        3.17308         49.1588         3.86427 
        3.18879         48.7305          3.8182 
        3.20447         48.4212         3.77296 
         3.2202         47.6501         3.72831 
         3.2359          47.251         3.68447 
        3.25157         46.8948         3.64145 
        3.26729         46.2726         3.59899 
        3.28304         45.9079         3.55713 
        3.29877         45.3755         3.51599 
        3.31446         44.9693          3.4756 
        3.33014         44.5774         3.43588 
        3.34585          43.981         3.39673 
        3.36158         43.6174         3.35814 
        3.37727         43.1775         3.32027 
        3.39294         42.8305         3.28302 
        3.40867         42.4332         3.24622 
        3.42439         42.0127            3.21 
        3.44008         41.4567         3.17441 
        3.45578         41.1732         3.13934 
        3.47153         40.6352         3.10473 
        3.48724         40.2343          3.0707 
        3.50292         39.9654         3.03727 
        3.51859         39.5378         3.00435 
        3.53431         39.2385         2.97182 
        3.55007         38.7624          2.9397 
        3.56577         38.5751         2.90818 
        3.58146         38.1203         2.87715 
        3.59719         37.7228         2.84649 
        3.61292         37.4658          2.8163 
        3.62859         37.0785         2.78666 
        3.64429         36.7594          2.7574 
        3.66003          36.448         2.72847 
        3.67578         36.0567         2.69997 
        3.69146         35.7899         2.67199 
        3.70712         35.3055         2.64445 
        3.72284         35.0458         2.61721 
        3.73853         34.8219          2.5904 
        3.75422         34.4043         2.56396 
        3.76993         34.1426         2.53786 
        3.78564         33.8543         2.51215 
        3.80137         33.4966         2.48675 
        3.81707         33.1965         2.46176 
        3.83279         32.9129         2.43709 
        3.84853         32.5205         2.41273 
        3.86424         32.2725         2.38874 
        3.87992         32.0984         2.36513 
        3.89561         31.7554         2.34183 
        3.91134         31.4325          2.3188 
        3.92704         31.1268         2.29611 
        3.94273         30.8369         2.27375 
        3.95845         30.6612         2.25165 
        3.97418         30.2509         2.22983 
        3.98988         30.0048         2.20834 
        4.00554          29.781          2.1872 
        4.02125         29.5387         2.16627 
        4.03698         29.1778         2.14558 
        4.05268         28.9341         2.12522 
        4.06839         28.7067          2.1051 
         4.0841         28.5075         2.08526 
        4.09983         28.1744         2.06564 
        4.11555         27.8195         2.04629 
        4.13124          27.778         2.02724 
        4.14693          27.547         2.00841 
        4.16266         27.1973         1.98979 
        4.17839         27.0634         1.97141 
        4.19408         26.8208         1.95331 
        4.20977         26.5505         1.93543 
        4.22551         26.3181         1.91773 
        4.24123          26.101         1.90028 
        4.25691           25.85         1.88309 
        4.27259         25.7394         1.86611 
        4.28831         25.4634         1.84931 
        4.30404         25.2849         1.83269 
        4.31974         25.0293         1.81632 
        4.33543         24.8487         1.80017 
        4.35116         24.6141         1.78417 
        4.36688         24.4446         1.76837 
        4.38255         24.2248         1.75282 
        4.39825         23.9935         1.73743 
        4.41398         23.7827         1.72219 
         4.4297         23.5905         1.70716 
        4.44541         23.4055         1.69231 
        4.46111         23.1513         1.67764 
        4.47683         23.0068         1.66315 
        4.49251         22.7952         1.64885 
        4.50819         22.6554         1.63473 
         4.5239         22.4752         1.62075 
        4.53962         22.2907         1.60692 
        4.55535          22.046         1.59325 
        4.57106         21.9221         1.57975 
        4.58678         21.7285         1.56641 
         4.6025         21.5077         1.55322 
        4.61821         21.3591         1.54019 
        4.63391         21.1506         1.52733 
         4.6496         21.0227         1.51462 
        4.66532          20.835         1.50203 
        4.68103         20.6445          1.4896 
        4.69673         20.5351         1.47731 
        4.71241         20.4118         1.46518 
        4.72811         20.1837         1.45317 
        4.74384         20.0249         1.44128 
        4.75955         19.9234         1.42954 
        4.77525         19.7263         1.41794 
        4.79096         19.5782         1.40645 
        4.80669         19.3764         1.39508 
         4.8224         19.2438         1.38386 
        4.83809         19.0947         1.37277 
        4.85379         18.9526          1.3618 
         4.8695         18.8531         1.35094 
        4.88521         18.6373          1.3402 
        4.90093         18.4949         1.32958 
        4.91663         18.3811         1.31908 
        4.93234         18.2096         1.30869 
        4.94807         18.0785         1.29841 
        4.96377         17.9703         1.28825 
        4.97943          17.804         1.27822 
        4.99514          17.676         1.26828 
        5.01086         17.5132         1.25844 
        5.02654         17.4134         1.24872 
        5.04227         17.2572         1.23908 
          5.058         17.1219         1.22954 
        5.07371         17.0409         1.22012 
        5.08942         16.8935          1.2108 
        5.10513          16.761         1.20157 
        5.12084         16.6409         1.19244 
        5.13656         16.4563          1.1834 
        5.15225         16.3812         1.17447 
        5.16796         16.2444         1.16562 
        5.18369         16.1315         1.15686 
         5.1994         16.0258          1.1482 
        5.21509         15.9118         1.13964 
        5.23079         15.7999         1.13116 
        5.24649         15.6652         1.12277 
        5.26217         15.5104         1.11447 
        5.27788         15.4308         1.10624 
        5.29359         15.3111          1.0981 
        5.30933         15.2108         1.09003 
        5.32504         15.0999         1.08205 
        5.34073         14.9974         1.07416 
        5.35646         14.8773         1.06634 
        5.37218         14.7554         1.05859 
        5.38789         14.6567         1.05093 
        5.40357         14.5404         1.04336 
        5.41929         14.4506         1.03585 
        5.43502          14.328         1.02841 
         5.4507         14.2522         1.02106 
        5.46639         14.1475         1.01378 
        5.48212         14.0284         1.00656 
        5.49786         13.9248        0.999397 
        5.51353         13.8215        0.992342 
        5.52921         13.7277        0.985348 
        5.54495         13.6355        0.978402 
        5.56066         13.5317        0.971531 
        5.57637         13.4539        0.964727 
        5.59207         13.3602        0.957994 
        5.60778         13.2321        0.951324 
        5.62346         13.1624        0.944727 
        5.63916         13.0719        0.938187 
        5.65487         12.9357        0.931706 
         5.6706         12.8886        0.925279 
        5.68633         12.8004         0.91891 
        5.70203         12.6948        0.912615 
        5.71773          12.615        0.906381 
        5.73344         12.5388        0.900202 
        5.74916         12.4462        0.894075 
        5.76486         12.3628        0.888014 
        5.78054         12.2855        0.882019 
        5.79626         12.1918        0.876063 
          5.812         12.1024        0.870156 
         5.8277          11.996        0.864322 
        5.84339         11.9414        0.858541 
        5.85911         11.8419        0.852802 
        5.87484         11.7526        0.847118 
        5.89053         11.6676        0.841497 
        5.90623         11.5994        0.835924 
        5.92195         11.5211        0.830393 
        5.93767          11.419        0.824915 
        5.95336         11.3746        0.819496 
        5.96905         11.2759        0.814128 
        5.98476         11.2287        0.808801 
        6.00048         11.1227         0.80352 
        6.01617         11.0655        0.798294 
        6.03185           10.98        0.793121 
        6.04756         10.9134        0.787981 
        6.06331         10.8394        0.782877 
        6.07903         10.7593        0.777829 
        6.09473          10.689         0.77283 
        6.11044         10.5998        0.767871 
        6.12616         10.5229        0.762957 
        6.14186         10.4597        0.758091 
        6.15755         10.4068        0.753268 
        6.17326         10.3273        0.748483 
        6.18898         10.2716        0.743738 
        6.20467         10.1865        0.739043 
        6.22036          10.128         0.73439 
         6.2361         10.0717        0.729764 
         6.2518         10.0087        0.725185 
        6.26748         9.91802        0.720657 
        6.28319         9.87803        0.716154 
        6.29893         9.81268        0.711687 
        6.31463         9.74387        0.707265 
        6.33033         9.69388        0.702883 
        6.34604         9.63578        0.698535 
        6.36177         9.55593         0.69422 
        6.37747         9.48734         0.68995 
