# k  (h/Mpc)    Pcb(k)  (Mpc/h)^3    Pcb_linear(k) (Mpc/h)^3   ShotnoiseSubtracted = true
      0.0200456         17348.2         17732.7 
      0.0350414         11722.3         12175.5 
      0.0492313         8289.16          8380.8 
      0.0637834         7183.74         6996.54 
      0.0800726         5822.74         5750.36 
       0.096163          3964.2         4062.14 
       0.111083         3064.51         3094.85 
       0.126058          2840.2          2774.7 
       0.142273         2528.36          2455.7 
       0.158546         2153.91          1923.8 
        0.17375         1682.74         1553.39 
       0.188953         1637.22         1404.76 
       0.204907          1557.9         1291.02 
       0.220756          1340.8         1102.72 
        0.23588         1182.69         932.075 
         0.2514         1022.54         835.508 
       0.267535         1015.11         773.324 
       0.283568         923.193         693.133 
       0.299022         867.376         609.741 
       0.314451         822.159         549.651 
       0.330372         756.145         508.552 
       0.346141         701.231         468.074 
       0.361624         675.664         424.721 
       0.377134         626.306         387.306 
       0.392932          600.34         358.639 
       0.408854         581.588         333.411 
       0.424564         543.605         308.239 
       0.440253         533.608         284.705 
       0.455999         504.112         264.938 
       0.471626         480.332          248.03 
        0.48727         461.803         232.012 
       0.502856         448.615         216.865 
       0.518488         444.136         203.189 
       0.534347         415.014         190.971 
       0.550082         396.834         179.827 
       0.565732         395.856         169.418 
       0.581496         372.086         159.701 
       0.597222         365.967          150.91 
       0.612804         356.052         142.907 
       0.628434         342.889          135.43 
       0.644267         333.306         128.349 
       0.660051         325.379         121.813 
       0.675724         320.485         115.814 
       0.691403         310.425         110.226 
       0.707174         299.841         104.975 
       0.722871         295.463         100.087 
        0.73838         291.551         95.5636 
       0.754018         283.353         91.2862 
       0.769845         274.854         87.2249 
        0.78569         274.253         83.4082 
       0.801365         264.668         79.8589 
       0.817031         256.095         76.5205 
       0.832809         254.808         73.3538 
       0.848511         247.589          70.383 
       0.864097           243.9         67.5996 
       0.879701         240.287         64.9663 
       0.895507         234.785         62.4442 
       0.911279         227.037         60.0631 
        0.92691         227.153         57.8278 
       0.942635         221.072         55.6954 
       0.958396         218.485         53.6675 
       0.974128         214.061         51.7457 
       0.989692         209.984         49.9382 
        1.00528         207.158         48.2155 
        1.02113         204.778         46.5481 
        1.03692         200.021         44.9667 
        1.05264         196.075         43.4669 
        1.06832         192.627         42.0387 
        1.08405         189.539         40.6716 
        1.09979         186.657         39.3651 
        1.11537          183.55         38.1297 
        1.13105         179.615         36.9406 
        1.14679         179.699         35.7981 
        1.16256          176.49         34.7023 
        1.17828         173.187         33.6565 
        1.19395         170.081         32.6579 
         1.2097         169.908         31.6951 
        1.22537         166.091         30.7762 
          1.241         164.334          29.897 
        1.25666         161.582         29.0503 
        1.27241         158.502         28.2328 
        1.28819         157.042         27.4457 
        1.30392          153.67         26.6913 
        1.31957         153.704         25.9689 
        1.33529         149.485         25.2709 
        1.35108         148.092         24.5961 
        1.36674         146.714          23.951 
         1.3824         144.621           23.33 
        1.39811          143.76         22.7291 
        1.41389         140.849         22.1473 
        1.42964          138.34         21.5871 
        1.44531         136.288         21.0492 
        1.46101         134.725         20.5287 
        1.47667         132.745         20.0276 
        1.49229         130.971         19.5447 
        1.50793         129.749         19.0773 
        1.52367         128.468         18.6224 
        1.53953          125.76         18.1794 
        1.55526         124.418         17.7545 
        1.57092          122.96         17.3451 
        1.58662         121.212         16.9478 
        1.60235         119.968         16.5623 
        1.61809         118.114         16.1887 
        1.63369         116.593           15.83 
        1.64941         115.388         15.4798 
        1.66519         113.569          15.139 
        1.68085          112.72          14.811 
        1.69652         110.385         14.4927 
        1.71228         109.823          14.182 
        1.72806         108.599         13.8803 
        1.74368         107.387         13.5905 
        1.75933         105.754         13.3085 
        1.77505          104.74         13.0332 
        1.79081         103.443         12.7654 
         1.8065          102.09         12.5062 
        1.82218         100.286         12.2546 
        1.83797          98.782         12.0082 
        1.85367         98.2551           11.77 
        1.86928          96.777         11.5398 
        1.88497         95.2624         11.3145 
        1.90073         94.6196         11.0945 
        1.91647           93.54         10.8806 
        1.93218         92.3499         10.6728 
        1.94787         91.2997         10.4708 
        1.96363         90.0663         10.2733 
        1.97935         88.7199         10.0813 
        1.99499         88.1079         9.89539 
        2.01064         87.0157         9.71393 
         2.0264         85.6587         9.53592 
        2.04216          84.896          9.3625 
        2.05781         83.7098         9.19453 
        2.07353         82.4197         9.03012 
        2.08928         81.3834          8.8694 
        2.10499         80.3499         8.71307 
        2.12065         80.0502         8.56101 
        2.13633         79.1067         8.41248 
        2.15211            78.2         8.26654 
        2.16785         76.8759         8.12451 
        2.18349         75.8909         7.98674 
        2.19916         75.1141          7.8519 
        2.21489         74.2883         7.71975 
        2.23063         73.4144         7.59059 
         2.2463         72.4063         7.46498 
        2.26194         72.3685         7.34256 
        2.27765         71.1482         7.22228 
        2.29341         70.1065         7.10441 
        2.30914          69.275         6.98943 
        2.32486         68.4985         6.87709 
        2.34061         67.8171         6.76705 
        2.35635         66.8066         6.65953 
        2.37203         65.9047         6.55475 
        2.38768         65.2561         6.45245 
        2.40339          64.593         6.35199 
        2.41914         63.9166         6.25346 
        2.43483         63.5871         6.15737 
         2.4505         62.7338         6.06349 
        2.46622         61.8364         5.97126 
        2.48195         61.2769         5.88096 
        2.49759         60.3678         5.79302 
        2.51328         59.8764         5.70667 
        2.52906         59.2805         5.62154 
        2.54479         58.6261         5.53849 
        2.56049         57.7169         5.45729 
        2.57618         57.3529          5.3778 
        2.59189         56.4901         5.29979 
        2.60758         56.1778         5.22346 
        2.62325         55.3752         5.14874 
        2.63898         54.8918         5.07523 
        2.65468         54.4954         5.00333 
        2.67044         53.5503         4.93252 
        2.68618          53.161         4.86326 
        2.70184         52.6522         4.79561 
        2.71755         52.1997         4.72909 
        2.73329         51.3845         4.66375 
        2.74897         50.9726         4.59986 
        2.76462           50.28         4.53732 
        2.78034         49.8147          4.4757 
        2.79607         49.2653         4.41516 
        2.81179         48.6988         4.35582 
        2.82749         48.1032         4.29765 
        2.84321         47.7908         4.24048 
        2.85893         47.1375         4.18438 
        2.87462          46.601          4.1294 
        2.89033         46.0778         4.07537 
        2.90605         45.6169         4.02226 
        2.92176         45.1544         3.97013 
        2.93747         44.7448         3.91897 
        2.95318         44.1706          3.8687 
        2.96891            43.6         3.81929 
        2.98456         43.3345         3.77098 
        3.00023         42.7863         3.72343 
        3.01596         42.5428         3.67657 
        3.03164         42.0359         3.63065 
        3.04738         41.7445         3.58539 
         3.0631         41.2183         3.54092 
        3.07883         40.7575         3.49721 
        3.09456         40.2928         3.45425 
        3.11026         39.8661         3.41209 
        3.12596         39.6286         3.37063 
        3.14163         39.0033         3.32997 
        3.15734         38.5516         3.28989 
        3.17308         38.4467         3.25038 
        3.18879         38.1201         3.21163 
        3.20447         37.5236         3.17357 
         3.2202         37.1682         3.13602 
         3.2359         36.7376         3.09914 
        3.25157         36.5382         3.06296 
        3.26729         35.9779         3.02724 
        3.28304         35.6733         2.99203 
        3.29877         35.3784         2.95743 
        3.31446         35.0658         2.92345 
        3.33014         34.6616         2.89005 
        3.34585         34.4172         2.85711 
        3.36158          34.021         2.82465 
        3.37727         33.6428          2.7928 
        3.39294         33.3648         2.76147 
        3.40867          33.008         2.73051 
        3.42439         32.7268         2.70005 
        3.44008         32.5086         2.67011 
        3.45578         32.0526         2.64061 
        3.47153         31.7434          2.6115 
        3.48724         31.4431         2.58288 
        3.50292         31.1924         2.55475 
        3.51859         30.8455         2.52707 
        3.53431         30.6652         2.49971 
        3.55007         30.3136         2.47269 
        3.56577          30.059         2.44618 
        3.58146         29.8229         2.42007 
        3.59719         29.4617         2.39429 
        3.61292         29.2644         2.36889 
        3.62859         28.9198         2.34396 
        3.64429         28.6339         2.31935 
        3.66003         28.3091         2.29502 
        3.67578         28.0966         2.27104 
        3.69146         27.8444          2.2475 
        3.70712         27.6503         2.22434 
        3.72284         27.4864         2.20143 
        3.73853         27.1324         2.17888 
        3.75422         26.8796         2.15664 
        3.76993         26.6152         2.13469 
        3.78564          26.408         2.11306 
        3.80137         26.1662          2.0917 
        3.81707         25.9601         2.07067 
        3.83279         25.7284         2.04993 
        3.84853         25.4589         2.02943 
        3.86424         25.2403         2.00926 
        3.87992         24.9932         1.98939 
        3.89561         24.7681          1.9698 
        3.91134         24.5351         1.95043 
        3.92704         24.3309         1.93134 
        3.94273         24.1226         1.91253 
        3.95845         23.7909         1.89394 
        3.97418          23.706         1.87559 
        3.98988          23.497         1.85752 
        4.00554         23.2326         1.83973 
        4.02125          23.091         1.82213 
        4.03698         22.8573         1.80473 
        4.05268         22.6201          1.7876 
        4.06839         22.4901         1.77068 
         4.0841         22.2735         1.75399 
        4.09983         22.0657         1.73749 
        4.11555         21.8947         1.72121 
        4.13124         21.6044         1.70518 
        4.14693         21.4387         1.68935 
        4.16266         21.2085         1.67368 
        4.17839         21.0712         1.65823 
        4.19408         20.9268           1.643 
        4.20977          20.762         1.62796 
        4.22551         20.5634         1.61308 
        4.24123         20.3967         1.59839 
        4.25691         20.2067         1.58394 
        4.27259         20.0238         1.56965 
        4.28831         19.8571         1.55552 
        4.30404         19.6595         1.54155 
        4.31974         19.5585         1.52778 
        4.33543         19.3689         1.51418 
        4.35116         19.2117         1.50073 
        4.36688         19.0369         1.48744 
        4.38255         18.9034         1.47436 
        4.39825         18.7725         1.46142 
        4.41398         18.6091          1.4486 
         4.4297         18.4222         1.43595 
        4.44541         18.2785         1.42346 
        4.46111         18.1376         1.41113 
        4.47683         17.9505         1.39893 
        4.49251         17.8837         1.38691 
        4.50819         17.6956         1.37503 
         4.5239         17.5244         1.36327 
        4.53962          17.354         1.35164 
        4.55535         17.2104         1.34014 
        4.57106         17.1368         1.32879 
        4.58678         16.9814         1.31757 
         4.6025         16.8377         1.30647 
        4.61821         16.6893         1.29551 
        4.63391         16.5515         1.28469 
         4.6496         16.4158           1.274 
        4.66532         16.2615         1.26341 
        4.68103         16.1579         1.25295 
        4.69673         16.0186         1.24262 
        4.71241         15.9361         1.23242 
        4.72811         15.7626         1.22231 
        4.74384          15.649         1.21231 
        4.75955         15.5177         1.20244 
        4.77525         15.4373         1.19268 
        4.79096         15.2887         1.18301 
        4.80669         15.1647         1.17346 
         4.8224          15.043         1.16401 
        4.83809         14.9147         1.15469 
        4.85379         14.7868         1.14546 
         4.8695         14.6831         1.13632 
        4.88521         14.6004         1.12729 
        4.90093         14.4559         1.11836 
        4.91663         14.3452         1.10953 
        4.93234         14.2685         1.10079 
        4.94807         14.1402         1.09214 
        4.96377         14.0376         1.08359 
        4.97943         13.9163         1.07516 
        4.99514         13.7892          1.0668 
        5.01086         13.7014         1.05852 
        5.02654         13.5759         1.05035 
        5.04227         13.5169         1.04224 
          5.058         13.3838         1.03421 
        5.07371         13.3043         1.02629 
        5.08942         13.1858         1.01844 
        5.10513         13.0771         1.01068 
        5.12084          12.992           1.003 
        5.13656         12.9049          0.9954 
        5.15225         12.7861        0.987892 
        5.16796         12.6823        0.980449 
        5.18369         12.5983        0.973076 
         5.1994         12.5229        0.965794 
        5.21509         12.4228        0.958593 
        5.23079         12.3192        0.951458 
        5.24649         12.2097        0.944401 
        5.26217         12.1252        0.937421 
        5.27788         12.0158        0.930503 
        5.29359         11.9641        0.923653 
        5.30933         11.8673        0.916863 
        5.32504         11.8127        0.910153 
        5.34073         11.6833        0.903519 
        5.35646         11.6153        0.896937 
        5.37218         11.5249        0.890421 
        5.38789         11.4445        0.883979 
        5.40357         11.3735         0.87761 
        5.41929         11.2583         0.87129 
        5.43502         11.1875        0.865032 
         5.4507         11.1276         0.85885 
        5.46639         11.0372        0.852729 
        5.48212         10.9591        0.846653 
        5.49786          10.895        0.840629 
        5.51353         10.8123        0.834695 
        5.52921         10.7275        0.828812 
        5.54495         10.6617        0.822969 
        5.56066         10.5475         0.81719 
        5.57637         10.4894        0.811467 
        5.59207         10.4008        0.805804 
        5.60778         10.3299        0.800193 
        5.62346         10.2761        0.794644 
        5.63916         10.2057        0.789143 
        5.65487         10.1184        0.783692 
         5.6706         10.0639        0.778286 
        5.68633          9.9822        0.772929 
        5.70203         9.91924        0.767634 
        5.71773         9.86119         0.76239 
        5.73344         9.76623        0.757193 
        5.74916          9.7184        0.752039 
        5.76486         9.63927        0.746941 
        5.78054          9.5723        0.741898 
        5.79626          9.5002        0.736888 
          5.812         9.45689         0.73192 
         5.8277         9.37589        0.727012 
        5.84339          9.3194         0.72215 
        5.85911         9.24543        0.717323 
        5.87484         9.19061        0.712542 
        5.89053         9.10929        0.707813 
        5.90623         9.04351        0.703126 
        5.92195         9.00236        0.698474 
        5.93767         8.93505        0.693866 
        5.95336         8.86978        0.689308 
        5.96905         8.82538        0.684793 
        5.98476         8.76599        0.680312 
        6.00048         8.71228         0.67587 
        6.01617         8.64683        0.671474 
        6.03185         8.58147        0.667123 
        6.04756         8.51848          0.6628 
        6.06331         8.47154        0.658506 
        6.07903           8.425         0.65426 
        6.09473         8.36134        0.650055 
        6.11044         8.30911        0.645884 
        6.12616         8.26324        0.641751 
        6.14186         8.19699        0.637658 
        6.15755         8.13605        0.633601 
        6.17326         8.07938        0.629577 
        6.18898         8.03322        0.625585 
        6.20467         7.97339        0.621636 
        6.22036         7.91898        0.617722 
         6.2361         7.87412        0.613831 
         6.2518         7.80521         0.60998 
        6.26748         7.77035         0.60617 
        6.28319         7.72304        0.602383 
        6.29893         7.67283        0.598626 
        6.31463          7.6168        0.594907 
        6.33033         7.56135        0.591221 
        6.34604         7.51659        0.587563 
        6.36177         7.47502        0.583934 
        6.37747         7.41796        0.580342 
