# k  (h/Mpc)    Pcb(k)  (Mpc/h)^3    Pcb_linear(k) (Mpc/h)^3   ShotnoiseSubtracted = true
      0.0200456         1759.66         1784.66 
      0.0350414         1244.97         1225.38 
      0.0492313         847.352         843.463 
      0.0637834          697.85         704.148 
      0.0800726         567.889          578.73 
       0.096163         416.559         408.824 
       0.111083         320.782         311.473 
       0.126058         278.113         279.252 
       0.142273          244.37         247.147 
       0.158546         195.502         193.616 
        0.17375          161.07         156.337 
       0.188953         144.636         141.378 
       0.204907         128.099         129.931 
       0.220756          112.86         110.981 
        0.23588         96.2789         93.8062 
         0.2514         86.2576         84.0875 
       0.267535         80.6384         77.8291 
       0.283568         71.7831         69.7586 
       0.299022         64.4999         61.3657 
       0.314451         59.8327         55.3182 
       0.330372         54.0357         51.1818 
       0.346141           49.74         47.1081 
       0.361624         45.4316         42.7449 
       0.377134         41.3473         38.9794 
       0.392932         39.7929         36.0943 
       0.408854         36.3217         33.5553 
       0.424564         34.6243         31.0219 
       0.440253         31.5234         28.6534 
       0.455999         28.7913          26.664 
       0.471626         27.2111         24.9623 
        0.48727         26.3281         23.3502 
       0.502856         24.6362         21.8258 
       0.518488         22.8279         20.4494 
       0.534347         21.4212         19.2198 
       0.550082         20.5802         18.0982 
       0.565732          19.731         17.0506 
       0.581496         18.5628         16.0727 
       0.597222         17.5057          15.188 
       0.612804         16.5629         14.3825 
       0.628434         16.1583           13.63 
       0.644267         15.3041         12.9173 
       0.660051         14.4985         12.2595 
       0.675724         13.7572         11.6558 
       0.691403          13.387         11.0934 
       0.707174          12.766         10.5649 
       0.722871         12.4017          10.073 
        0.73838         11.6685         9.61775 
       0.754018         11.1033         9.18726 
       0.769845         10.6923         8.77852 
        0.78569         10.4042         8.39439 
       0.801365         9.96024         8.03719 
       0.817031         9.61489          7.7012 
       0.832809         9.20258          7.3825 
       0.848511         8.94505         7.08351 
       0.864097         8.61731         6.80338 
       0.879701         8.42996         6.53836 
       0.895507         8.10494         6.28453 
       0.911279         7.77907         6.04489 
        0.92691         7.57492         5.81992 
       0.942635         7.32013         5.60531 
       0.958396         7.07515         5.40122 
       0.974128         6.90569          5.2078 
       0.989692         6.57594         5.02589 
        1.00528         6.49544         4.85252 
        1.02113         6.27961         4.68471 
        1.03692          6.1285         4.52555 
        1.05264         5.91792         4.37461 
        1.06832          5.7774         4.23087 
        1.08405         5.62464         4.09328 
        1.09979         5.48024          3.9618 
        1.11537         5.33073         3.83747 
        1.13105         5.18404         3.71779 
        1.14679         5.06239         3.60281 
        1.16256         4.91269         3.49252 
        1.17828         4.83944         3.38727 
        1.19395         4.67739         3.28676 
         1.2097         4.54224         3.18987 
        1.22537         4.42323         3.09739 
          1.241         4.32432          3.0089 
        1.25666         4.28808         2.92369 
        1.27241         4.19019         2.84141 
        1.28819         4.01924          2.7622 
        1.30392         3.94267         2.68627 
        1.31957          3.8772         2.61357 
        1.33529         3.76286         2.54332 
        1.35108         3.69192         2.47541 
        1.36674         3.59529         2.41049 
         1.3824         3.55636         2.34798 
        1.39811         3.46682         2.28751 
        1.41389         3.38058         2.22896 
        1.42964         3.32345         2.17258 
        1.44531         3.26325         2.11844 
        1.46101         3.20982         2.06606 
        1.47667         3.13946         2.01562 
        1.49229         3.03946         1.96702 
        1.50793         2.97397         1.91999 
        1.52367         2.92387          1.8742 
        1.53953         2.86206         1.82962 
        1.55526         2.86126         1.78686 
        1.57092         2.78245         1.74566 
        1.58662         2.74999         1.70567 
        1.60235         2.67505         1.66687 
        1.61809         2.63063         1.62927 
        1.63369         2.58212         1.59317 
        1.64941         2.53767         1.55792 
        1.66519         2.50652         1.52362 
        1.68085         2.44979         1.49061 
        1.69652         2.41003         1.45858 
        1.71228         2.36736         1.42731 
        1.72806         2.33529         1.39695 
        1.74368         2.29443         1.36778 
        1.75933          2.2601          1.3394 
        1.77505          2.2181          1.3117 
        1.79081         2.17957         1.28474 
         1.8065         2.15255         1.25865 
        1.82218         2.10591         1.23333 
        1.83797         2.07241         1.20853 
        1.85367          2.0415         1.18456 
        1.86928         2.01392         1.16139 
        1.88497         1.97511         1.13872 
        1.90073         1.95911         1.11658 
        1.91647         1.91874         1.09505 
        1.93218         1.89345         1.07413 
        1.94787         1.86747         1.05381 
        1.96363         1.84153         1.03393 
        1.97935         1.81074         1.01461 
        1.99499         1.78533        0.995895 
        2.01064         1.76225        0.977633 
         2.0264         1.73217        0.959717 
        2.04216         1.71211        0.942264 
        2.05781         1.68295        0.925359 
        2.07353         1.67164        0.908812 
        2.08928         1.64208        0.892637 
        2.10499         1.61465        0.876904 
        2.12065         1.60046          0.8616 
        2.13633         1.57667        0.846651 
        2.15211          1.5485        0.831964 
        2.16785         1.53493         0.81767 
        2.18349         1.51006        0.803804 
        2.19916         1.49929        0.790233 
        2.21489         1.48081        0.776934 
        2.23063         1.45035        0.763934 
         2.2463         1.42972        0.751293 
        2.26194         1.41924        0.738973 
        2.27765         1.39141        0.726867 
        2.29341         1.37976        0.715004 
        2.30914         1.35869        0.703433 
        2.32486         1.35222        0.692126 
        2.34061         1.33232        0.681051 
        2.35635         1.31577        0.670231 
        2.37203         1.29977        0.659685 
        2.38768         1.28364         0.64939 
        2.40339         1.27096        0.639279 
        2.41914         1.25714        0.629362 
        2.43483         1.24263        0.619693 
         2.4505         1.22452        0.610244 
        2.46622         1.20873        0.600961 
        2.48195         1.19892        0.591873 
        2.49759         1.18195        0.583023 
        2.51328         1.16972        0.574332 
        2.52906          1.1606        0.565765 
        2.54479         1.14311        0.557406 
        2.56049         1.13333        0.549234 
        2.57618         1.11954        0.541234 
        2.59189         1.11034        0.533383 
        2.60758         1.09533        0.525701 
        2.62325         1.08288        0.518181 
        2.63898         1.07271        0.510783 
        2.65468         1.05518        0.503546 
        2.67044         1.05222         0.49642 
        2.68618         1.04221        0.489449 
        2.70184         1.02914        0.482641 
        2.71755         1.02239        0.475947 
        2.73329         1.00618        0.469371 
        2.74897        0.996408        0.462941 
        2.76462        0.987065        0.456647 
        2.78034        0.982084        0.450444 
        2.79607        0.968553        0.444352 
        2.81179        0.957951         0.43838 
        2.82749         0.94832        0.432525 
        2.84321        0.940163        0.426772 
        2.85893        0.929363        0.421126 
        2.87462        0.922498        0.415593 
        2.89033        0.914682        0.410154 
        2.90605        0.907461         0.40481 
        2.92176        0.898079        0.399563 
        2.93747        0.890136        0.394414 
        2.95318        0.879708        0.389355 
        2.96891        0.876641        0.384382 
        2.98456        0.861916         0.37952 
        3.00023        0.855917        0.374735 
        3.01596        0.847839        0.370018 
        3.03164        0.841895        0.365397 
        3.04738        0.835099        0.360842 
         3.0631        0.824197        0.356366 
        3.07883        0.819911        0.351967 
        3.09456        0.812412        0.347644 
        3.11026        0.806853          0.3434 
        3.12596        0.798722        0.339228 
        3.14163        0.794706        0.335136 
        3.15734        0.785371        0.331102 
        3.17308        0.779989        0.327126 
        3.18879        0.775469        0.323226 
        3.20447        0.768512        0.319396 
         3.2202        0.757425        0.315616 
         3.2359        0.753572        0.311905 
        3.25157        0.746806        0.308263 
        3.26729        0.742647        0.304668 
        3.28304         0.73811        0.301125 
        3.29877        0.730258        0.297642 
        3.31446        0.727901        0.294223 
        3.33014        0.716515        0.290861 
        3.34585        0.713369        0.287547 
        3.36158         0.70849         0.28428 
        3.37727        0.705279        0.281074 
        3.39294        0.697766        0.277921 
        3.40867        0.693625        0.274805 
        3.42439        0.689529        0.271739 
        3.44008        0.682527        0.268726 
        3.45578        0.678017        0.265758 
        3.47153          0.6745        0.262827 
        3.48724        0.668375        0.259947 
        3.50292        0.662365        0.257116 
        3.51859        0.662252         0.25433 
        3.53431        0.653486        0.251576 
        3.55007        0.650788        0.248857 
        3.56577        0.647271        0.246189 
        3.58146        0.641975        0.243562 
        3.59719        0.637866        0.240967 
        3.61292        0.631349        0.238411 
        3.62859        0.628439        0.235902 
        3.64429         0.62312        0.233425 
        3.66003        0.618677        0.230976 
        3.67578        0.615338        0.228563 
        3.69146        0.612475        0.226194 
        3.70712        0.608502        0.223863 
        3.72284        0.604382        0.221557 
        3.73853        0.598856        0.219287 
        3.75422        0.596671        0.217049 
        3.76993        0.591506         0.21484 
        3.78564        0.587978        0.212663 
        3.80137        0.584415        0.210513 
        3.81707        0.579333        0.208397 
        3.83279         0.57625        0.206309 
        3.84853        0.572412        0.204247 
        3.86424        0.567837        0.202217 
        3.87992        0.566734        0.200217 
        3.89561        0.562838        0.198245 
        3.91134        0.556458        0.196296 
        3.92704        0.554127        0.194375 
        3.94273        0.550373        0.192482 
        3.95845         0.54782        0.190611 
        3.97418        0.544549        0.188764 
        3.98988        0.541876        0.186945 
        4.00554        0.535681        0.185155 
        4.02125        0.533488        0.183383 
        4.03698        0.528215        0.181632 
        4.05268        0.523981        0.179908 
        4.06839        0.519397        0.178205 
         4.0841        0.514091        0.176525 
        4.09983        0.511567        0.174865 
        4.11555        0.507291        0.173226 
        4.13124        0.502443        0.171614 
        4.14693        0.500606         0.17002 
        4.16266        0.493333        0.168443 
        4.17839        0.489902        0.166888 
        4.19408        0.488693        0.165355 
        4.20977        0.484594        0.163842 
        4.22551         0.48153        0.162344 
        4.24123        0.477407        0.160866 
        4.25691        0.474096        0.159411 
        4.27259        0.470958        0.157973 
        4.28831        0.467867        0.156551 
        4.30404        0.465577        0.155145 
        4.31974        0.462055        0.153759 
        4.33543        0.458298        0.152391 
        4.35116        0.455888        0.151037 
        4.36688        0.452452        0.149699 
        4.38255        0.450464        0.148383 
        4.39825        0.447771         0.14708 
        4.41398        0.444439         0.14579 
         4.4297        0.443752        0.144518 
        4.44541        0.440143         0.14326 
        4.46111        0.437513        0.142019 
        4.47683        0.435485        0.140792 
        4.49251        0.433744        0.139582 
        4.50819        0.432015        0.138386 
         4.5239        0.429165        0.137203 
        4.53962        0.425934        0.136032 
        4.55535        0.425815        0.134874 
        4.57106        0.423501        0.133732 
        4.58678        0.421607        0.132603 
         4.6025        0.420418        0.131487 
        4.61821        0.417821        0.130383 
        4.63391        0.418339        0.129294 
         4.6496        0.414964        0.128218 
        4.66532        0.413308        0.127153 
        4.68103        0.411989          0.1261 
        4.69673         0.40993         0.12506 
        4.71241        0.409803        0.124034 
        4.72811         0.40858        0.123017 
        4.74384        0.406682         0.12201 
        4.75955        0.405747        0.121016 
        4.77525        0.403882        0.120034 
        4.79096          0.4038        0.119061 
        4.80669        0.402262        0.118099 
         4.8224        0.400818        0.117149 
        4.83809        0.399631         0.11621 
        4.85379        0.400019        0.115282 
         4.8695        0.399164        0.114362 
        4.88521        0.398519        0.113453 
        4.90093        0.397318        0.112554 
        4.91663        0.397426        0.111666 
        4.93234        0.395241        0.110786 
        4.94807        0.395284        0.109915 
        4.96377         0.39619        0.109055 
        4.97943        0.394121        0.108207 
        4.99514        0.393879        0.107365 
        5.01086        0.393862        0.106532 
        5.02654        0.393843        0.105709 
        5.04227        0.392648        0.104893 
          5.058        0.393448        0.104085 
        5.07371        0.392293        0.103288 
        5.08942        0.394087        0.102499 
        5.10513        0.393005        0.101718 
        5.12084        0.392357        0.100944 
        5.13656        0.392985        0.100179 
        5.15225        0.393006       0.0994237 
        5.16796        0.393069       0.0986747 
        5.18369        0.391815       0.0979327 
         5.1994        0.393445       0.0971998 
        5.21509        0.394364        0.096475 
        5.23079        0.393006       0.0957569 
        5.24649         0.39465       0.0950467 
        5.26217        0.393737       0.0943442 
        5.27788        0.395371       0.0936479 
        5.29359        0.395522       0.0929586 
        5.30933        0.395355       0.0922753 
        5.32504        0.396436          0.0916 
        5.34073         0.39698       0.0909322 
        5.35646        0.397166       0.0902699 
        5.37218        0.397706        0.089614 
        5.38789        0.396981       0.0889658 
        5.40357        0.399043       0.0883247 
        5.41929        0.399799       0.0876886 
        5.43502        0.400726       0.0870588 
         5.4507        0.401604       0.0864367 
        5.46639        0.401658       0.0858206 
        5.48212        0.402781       0.0852091 
        5.49786        0.403969       0.0846029 
        5.51353        0.404992       0.0840057 
        5.52921        0.404709       0.0834136 
        5.54495         0.40656       0.0828256 
        5.56066        0.407876       0.0822439 
        5.57637        0.407886       0.0816679 
        5.59207        0.409744        0.081098 
        5.60778        0.411213       0.0805333 
        5.62346        0.411385       0.0799749 
        5.63916        0.412268       0.0794212 
        5.65487        0.413319       0.0788726 
         5.6706        0.413838       0.0783285 
        5.68633         0.41628       0.0777894 
        5.70203        0.417223       0.0772565 
        5.71773        0.417946       0.0767287 
        5.73344        0.419885       0.0762056 
        5.74916        0.421047        0.075687 
        5.76486        0.422128       0.0751739 
        5.78054        0.423307       0.0746664 
        5.79626        0.423233       0.0741622 
          5.812        0.426658       0.0736621 
         5.8277        0.427335       0.0731682 
        5.84339        0.428057       0.0726789 
        5.85911        0.430435       0.0721931 
        5.87484        0.430497       0.0717118 
        5.89053        0.434105        0.071236 
        5.90623        0.434867       0.0707643 
        5.92195        0.434855        0.070296 
        5.93767        0.436738       0.0698323 
        5.95336         0.43804       0.0693735 
        5.96905        0.438632       0.0689191 
        5.98476        0.439769       0.0684682 
        6.00048        0.440825       0.0680211 
        6.01617        0.442764       0.0675787 
        6.03185        0.445273       0.0671408 
        6.04756        0.445227       0.0667057 
        6.06331        0.447453       0.0662736 
        6.07903        0.448362       0.0658463 
        6.09473        0.449737       0.0654231 
        6.11044        0.449865       0.0650033 
        6.12616        0.452632       0.0645873 
        6.14186        0.452326       0.0641754 
        6.15755        0.455499       0.0637671 
        6.17326        0.456383        0.063362 
        6.18898        0.457693       0.0629604 
        6.20467        0.460301       0.0625629 
        6.22036         0.45937        0.062169 
         6.2361        0.461904       0.0617773 
         6.2518        0.462951       0.0613898 
        6.26748        0.464061       0.0610064 
        6.28319        0.466565       0.0606253 
        6.29893        0.467502       0.0602471 
        6.31463            0.47       0.0598728 
        6.33033         0.46962       0.0595018 
        6.34604        0.471827       0.0591338 
        6.36177        0.472021       0.0587685 
        6.37747        0.474113        0.058407 
