# k  (h/Mpc)    Pcb(k)  (Mpc/h)^3    Pcb_linear(k) (Mpc/h)^3   ShotnoiseSubtracted = true
      0.0200456         3109.69         3154.44 
      0.0350414         2207.33         2165.88 
      0.0492313         1495.73         1490.84 
      0.0637834         1228.34          1244.6 
      0.0800726         998.768         1022.92 
       0.096163         739.548         722.606 
       0.111083         571.274         550.536 
       0.126058          491.58         493.585 
       0.142273         432.425         436.839 
       0.158546         347.843         342.221 
        0.17375         288.235          276.33 
       0.188953          259.82          249.89 
       0.204907         228.334         229.657 
       0.220756         202.655         196.161 
        0.23588         173.755         165.805 
         0.2514         155.367         148.627 
       0.267535         146.681         137.565 
       0.283568         129.946           123.3 
       0.299022         118.387         108.465 
       0.314451         111.103         97.7763 
       0.330372         99.2125         90.4652 
       0.346141         91.5152         83.2647 
       0.361624         84.3676         75.5527 
       0.377134         76.7622          68.897 
       0.392932         74.3334         63.7975 
       0.408854          68.569         59.3098 
       0.424564          65.424          54.832 
       0.440253         59.5552         50.6456 
       0.455999         54.4708         47.1293 
       0.471626         51.8654         44.1215 
        0.48727          50.395          41.272 
       0.502856         46.9023         38.5776 
       0.518488         44.1544         36.1448 
       0.534347         41.5941         33.9714 
       0.550082         40.0486          31.989 
       0.565732         38.5808         30.1374 
       0.581496         36.1076         28.4088 
       0.597222         34.3122         26.8451 
       0.612804         32.7562         25.4215 
       0.628434          32.168         24.0914 
       0.644267         30.4036         22.8317 
       0.660051         28.9544          21.669 
       0.675724         27.6534         20.6019 
       0.691403         27.1492         19.6078 
       0.707174         26.0499         18.6737 
       0.722871         25.1971         17.8043 
        0.73838         23.9251         16.9996 
       0.754018         22.6858         16.2387 
       0.769845         22.1954         15.5162 
        0.78569         21.4791         14.8373 
       0.801365         20.7119         14.2059 
       0.817031         19.9249         13.6121 
       0.832809          19.399         13.0487 
       0.848511          18.771         12.5203 
       0.864097         18.1693         12.0251 
       0.879701         17.8875         11.5567 
       0.895507         17.2158         11.1081 
       0.911279         16.5232         10.6845 
        0.92691         16.2248         10.2869 
       0.942635         15.8313         9.90753 
       0.958396         15.3122          9.5468 
       0.974128         14.9289         9.20492 
       0.989692         14.2594         8.88339 
        1.00528         14.1639         8.57695 
        1.02113         13.6983         8.28034 
        1.03692         13.4014         7.99903 
        1.05264          13.106         7.73223 
        1.06832           12.83         7.47817 
        1.08405         12.4748         7.23498 
        1.09979         12.1791         7.00258 
        1.11537         11.8613         6.78282 
        1.13105         11.6654         6.57128 
        1.14679         11.4031         6.36805 
        1.16256         11.1553         6.17312 
        1.17828         10.9255         5.98709 
        1.19395         10.7295         5.80944 
         1.2097         10.3996         5.63817 
        1.22537         10.2258         5.47472 
          1.241          9.9617         5.31831 
        1.25666         9.91112         5.16769 
        1.27241         9.70025         5.02227 
        1.28819         9.31189         4.88226 
        1.30392         9.30456         4.74805 
        1.31957         9.05167         4.61955 
        1.33529         8.94116         4.49539 
        1.35108         8.76083         4.37535 
        1.36674         8.54725          4.2606 
         1.3824          8.4412         4.15012 
        1.39811         8.29889         4.04323 
        1.41389         8.12182         3.93974 
        1.42964         8.00253         3.84008 
        1.44531         7.86182          3.7444 
        1.46101         7.77394         3.65181 
        1.47667         7.61451         3.56266 
        1.49229         7.41876         3.47676 
        1.50793         7.34723         3.39362 
        1.52367           7.216          3.3127 
        1.53953         7.09323          3.2339 
        1.55526         7.00725         3.15832 
        1.57092         6.89933         3.08549 
        1.58662         6.77982         3.01481 
        1.60235         6.70811         2.94623 
        1.61809         6.60514         2.87977 
        1.63369         6.46908         2.81597 
        1.64941         6.37259         2.75367 
        1.66519         6.30141         2.69304 
        1.68085         6.18972         2.63469 
        1.69652         6.13247         2.57807 
        1.71228          6.0671         2.52281 
        1.72806         5.94977         2.46915 
        1.74368         5.88581         2.41759 
        1.75933         5.80073         2.36742 
        1.77505          5.6903         2.31846 
        1.79081         5.64651          2.2708 
         1.8065         5.59675          2.2247 
        1.82218         5.50525         2.17994 
        1.83797         5.40473         2.13611 
        1.85367         5.33962         2.09374 
        1.86928         5.29937         2.05279 
        1.88497          5.2114         2.01271 
        1.90073         5.14971         1.97357 
        1.91647         5.05612         1.93552 
        1.93218         5.01755         1.89856 
        1.94787         4.95564         1.86263 
        1.96363         4.90507         1.82749 
        1.97935         4.86053         1.79334 
        1.99499         4.79511         1.76027 
        2.01064         4.73288         1.72799 
         2.0264          4.6879         1.69632 
        2.04216          4.6271         1.66547 
        2.05781         4.57552         1.63559 
        2.07353         4.53063         1.60635 
        2.08928         4.45195         1.57776 
        2.10499         4.41083         1.54995 
        2.12065         4.41419          1.5229 
        2.13633          4.3498         1.49648 
        2.15211         4.27511         1.47052 
        2.16785         4.22737         1.44525 
        2.18349         4.21084         1.42074 
        2.19916         4.15401         1.39676 
        2.21489         4.11443         1.37325 
        2.23063         4.06341         1.35027 
         2.2463         4.01484         1.32793 
        2.26194         3.96727         1.30615 
        2.27765         3.91155         1.28476 
        2.29341         3.87475         1.26379 
        2.30914         3.84466         1.24334 
        2.32486         3.81713         1.22335 
        2.34061         3.78143         1.20378 
        2.35635         3.73856         1.18465 
        2.37203         3.72094         1.16601 
        2.38768         3.69023         1.14781 
        2.40339         3.62918         1.12994 
        2.41914         3.59944         1.11241 
        2.43483         3.55675         1.09532 
         2.4505         3.52756         1.07862 
        2.46622         3.50077         1.06221 
        2.48195         3.48099         1.04615 
        2.49759         3.42935         1.03051 
        2.51328         3.40663         1.01515 
        2.52906         3.36988               1 
        2.54479         3.34411         0.98523 
        2.56049         3.31135        0.970785 
        2.57618         3.28176        0.956645 
        2.59189          3.2799        0.942767 
        2.60758         3.24429        0.929189 
        2.62325         3.18291        0.915898 
        2.63898         3.16957        0.902822 
        2.65468         3.13844        0.890031 
        2.67044         3.12938        0.877435 
        2.68618         3.10457        0.865114 
        2.70184          3.0748        0.853081 
        2.71755         3.03477        0.841248 
        2.73329         3.01527        0.829624 
        2.74897         2.98989        0.818259 
        2.76462         2.96124        0.807134 
        2.78034         2.94771        0.796172 
        2.79607         2.91928        0.785403 
        2.81179          2.8955        0.774848 
        2.82749         2.86285          0.7645 
        2.84321         2.84784         0.75433 
        2.85893         2.81905        0.744351 
        2.87462         2.80615         0.73457 
        2.89033         2.79117        0.724958 
        2.90605         2.76467        0.715511 
        2.92176         2.73279        0.706238 
        2.93747         2.72032        0.697136 
        2.95318         2.69577        0.688194 
        2.96891         2.68367        0.679405 
        2.98456         2.66034        0.670811 
        3.00023         2.64483        0.662353 
        3.01596         2.61391        0.654017 
        3.03164         2.59762        0.645849 
        3.04738         2.58481        0.637797 
         3.0631         2.56483        0.629887 
        3.07883         2.54472        0.622111 
        3.09456         2.51988        0.614469 
        3.11026         2.50689        0.606968 
        3.12596         2.49044        0.599595 
        3.14163         2.47952        0.592361 
        3.15734         2.45358        0.585232 
        3.17308          2.4406        0.578203 
        3.18879         2.42864         0.57131 
        3.20447         2.40276         0.56454 
         3.2202         2.39446         0.55786 
         3.2359         2.37814          0.5513 
        3.25157         2.35682        0.544863 
        3.26729         2.33828        0.538509 
        3.28304          2.3255        0.532245 
        3.29877         2.30315         0.52609 
        3.31446         2.29242        0.520047 
        3.33014         2.28183        0.514104 
        3.34585         2.26368        0.508246 
        3.36158         2.24228        0.502471 
        3.37727         2.24031        0.496805 
        3.39294         2.22035        0.491232 
        3.40867          2.2102        0.485725 
        3.42439         2.18958        0.480306 
        3.44008         2.17409        0.474981 
        3.45578         2.16239        0.469733 
        3.47153         2.15307        0.464554 
        3.48724         2.13803        0.459462 
        3.50292         2.11897         0.45446 
        3.51859         2.11131        0.449534 
        3.53431         2.09116        0.444667 
        3.55007            2.09        0.439861 
        3.56577         2.06954        0.435145 
        3.58146         2.05887        0.430501 
        3.59719         2.04866        0.425915 
        3.61292         2.03368        0.421397 
        3.62859         2.02277        0.416963 
        3.64429          2.0102        0.412584 
        3.66003         1.99629        0.408255 
        3.67578         1.98468        0.403991 
        3.69146         1.96811        0.399804 
        3.70712          1.9609        0.395684 
        3.72284         1.94583        0.391607 
        3.73853         1.93583        0.387596 
        3.75422         1.92365        0.383639 
        3.76993         1.91101        0.379735 
        3.78564         1.89604        0.375887 
        3.80137         1.88674        0.372087 
        3.81707         1.87469        0.368348 
        3.83279         1.87244        0.364657 
        3.84853         1.85542        0.361011 
        3.86424         1.84323        0.357423 
        3.87992         1.83351        0.353889 
        3.89561          1.8227        0.350403 
        3.91134         1.81254        0.346957 
        3.92704         1.80011        0.343562 
        3.94273         1.79371        0.340216 
        3.95845         1.77815        0.336909 
        3.97418         1.76789        0.333645 
        3.98988         1.76219         0.33043 
        4.00554         1.75219        0.327266 
        4.02125         1.73977        0.324134 
        4.03698          1.7311        0.321039 
        4.05268         1.71695        0.317992 
        4.06839         1.70719        0.314982 
         4.0841         1.69371        0.312013 
        4.09983          1.6805        0.309078 
        4.11555         1.67156        0.306182 
        4.13124         1.66141        0.303331 
        4.14693         1.65014        0.300515 
        4.16266         1.64318        0.297728 
        4.17839         1.63258        0.294978 
        4.19408         1.62077         0.29227 
        4.20977         1.61135        0.289595 
        4.22551         1.60582        0.286947 
        4.24123         1.59287        0.284335 
        4.25691         1.58128        0.281763 
        4.27259         1.57107        0.279222 
        4.28831         1.56783        0.276708 
        4.30404         1.55392        0.274222 
        4.31974         1.54469        0.271773 
        4.33543         1.53392        0.269355 
        4.35116         1.52852        0.266961 
        4.36688         1.51941        0.264597 
        4.38255         1.51414        0.262271 
        4.39825         1.50273        0.259968 
        4.41398         1.49333        0.257688 
         4.4297         1.48665        0.255439 
        4.44541         1.47326        0.253216 
        4.46111         1.46839        0.251022 
        4.47683         1.46269        0.248853 
        4.49251         1.45192        0.246714 
        4.50819         1.44692        0.244601 
         4.5239         1.43689        0.242509 
        4.53962         1.42922         0.24044 
        4.55535          1.4245        0.238394 
        4.57106         1.41546        0.236375 
        4.58678         1.40943        0.234379 
         4.6025         1.40218        0.232406 
        4.61821         1.39809        0.230456 
        4.63391         1.39103        0.228531 
         4.6496         1.37837        0.226629 
        4.66532         1.37782        0.224746 
        4.68103         1.36605        0.222885 
        4.69673         1.36344        0.221047 
        4.71241         1.35485        0.219232 
        4.72811         1.35225        0.217435 
        4.74384          1.3447        0.215655 
        4.75955         1.34063        0.213899 
        4.77525         1.33081        0.212163 
        4.79096         1.32324        0.210444 
        4.80669         1.31904        0.208744 
         4.8224         1.31458        0.207064 
        4.83809         1.30942        0.205405 
        4.85379           1.305        0.203763 
         4.8695         1.29357        0.202138 
        4.88521         1.29286        0.200532 
        4.90093          1.2897        0.198942 
        4.91663         1.28276        0.197372 
        4.93234         1.27734        0.195817 
        4.94807         1.26906        0.194278 
        4.96377          1.2635        0.192758 
        4.97943         1.26159        0.191258 
        4.99514         1.25767         0.18977 
        5.01086         1.24996        0.188297 
        5.02654          1.2444        0.186844 
        5.04227         1.23962        0.185401 
          5.058         1.23614        0.183974 
        5.07371         1.23265        0.182564 
        5.08942         1.22797        0.181169 
        5.10513         1.22434        0.179788 
        5.12084         1.21741        0.178422 
        5.13656         1.21407         0.17707 
        5.15225         1.20818        0.175734 
        5.16796         1.20415         0.17441 
        5.18369         1.20147        0.173098 
         5.1994         1.19771        0.171803 
        5.21509         1.18956        0.170522 
        5.23079         1.18703        0.169253 
        5.24649         1.18372        0.167997 
        5.26217         1.17934        0.166756 
        5.27788         1.17196        0.165525 
        5.29359         1.17002        0.164307 
        5.30933         1.16765        0.163099 
        5.32504         1.16109        0.161905 
        5.34073         1.15948        0.160725 
        5.35646         1.15397        0.159554 
        5.37218         1.15128        0.158395 
        5.38789         1.14832        0.157249 
        5.40357         1.14396        0.156116 
        5.41929         1.14336        0.154992 
        5.43502         1.13562        0.153879 
         5.4507         1.13078        0.152779 
        5.46639         1.13062         0.15169 
        5.48212         1.12446        0.150609 
        5.49786         1.12143        0.149538 
        5.51353         1.11872        0.148482 
        5.52921         1.11284        0.147436 
        5.54495         1.11152        0.146396 
        5.56066         1.10888        0.145368 
        5.57637         1.10636         0.14435 
        5.59207         1.10125        0.143343 
        5.60778         1.09974        0.142345 
        5.62346         1.09487        0.141358 
        5.63916         1.09364        0.140379 
        5.65487          1.0884        0.139409 
         5.6706         1.08501        0.138448 
        5.68633         1.08247        0.137495 
        5.70203         1.08023        0.136553 
        5.71773         1.07677         0.13562 
        5.73344         1.07373        0.134695 
        5.74916         1.07025        0.133779 
        5.76486         1.06621        0.132872 
        5.78054         1.06602        0.131975 
        5.79626         1.06231        0.131083 
          5.812         1.05832          0.1302 
         5.8277         1.05463        0.129327 
        5.84339         1.05579        0.128462 
        5.85911         1.05015        0.127603 
        5.87484         1.04766        0.126752 
        5.89053         1.04364        0.125911 
        5.90623         1.04247        0.125078 
        5.92195         1.03998         0.12425 
        5.93767         1.03683         0.12343 
        5.95336         1.03258        0.122619 
        5.96905         1.02925        0.121816 
        5.98476         1.02848        0.121019 
        6.00048         1.02783        0.120229 
        6.01617          1.0215        0.119447 
        6.03185         1.02134        0.118673 
        6.04756         1.02028        0.117904 
        6.06331         1.01494         0.11714 
        6.07903         1.01347        0.116385 
        6.09473         1.01083        0.115637 
        6.11044         1.00994        0.114895 
        6.12616         1.00531         0.11416 
        6.14186         1.00312        0.113432 
        6.15755          1.0012         0.11271 
        6.17326        0.998917        0.111994 
        6.18898        0.996875        0.111284 
        6.20467        0.991429        0.110582 
        6.22036        0.990793        0.109885 
         6.2361        0.987815        0.109193 
         6.2518        0.987641        0.108508 
        6.26748        0.983768         0.10783 
        6.28319        0.982413        0.107157 
        6.29893        0.977004        0.106488 
        6.31463        0.977306        0.105827 
        6.33033        0.974204        0.105171 
        6.34604        0.971759         0.10452 
        6.36177        0.969608        0.103875 
        6.37747        0.968274        0.103236 
