# k  (h/Mpc)    Pcb(k)  (Mpc/h)^3    Pcb_linear(k) (Mpc/h)^3   ShotnoiseSubtracted = true
      0.0200456         9046.33         9216.77 
      0.0350414         6177.02         6328.37 
      0.0492313         4345.53         4356.01 
      0.0637834         3723.12         3636.53 
      0.0800726         3027.85         2988.81 
       0.096163         2076.77         2111.34 
       0.111083         1589.17         1608.58 
       0.126058          1470.2         1442.18 
       0.142273         1310.74         1276.38 
       0.158546         1075.52         999.915 
        0.17375         841.198         807.392 
       0.188953         804.783         730.138 
       0.204907         768.716         671.022 
       0.220756         651.379         573.152 
        0.23588         564.832         484.456 
         0.2514         491.755         434.264 
       0.267535         476.284         401.943 
       0.283568         433.912         360.263 
       0.299022         400.471         316.919 
       0.314451         369.691         285.687 
       0.330372         342.207         264.325 
       0.346141         308.671         243.286 
       0.361624         296.239         220.753 
       0.377134         275.991         201.306 
       0.392932         256.353         186.406 
       0.408854         245.871         173.294 
       0.424564         235.216          160.21 
       0.440253         224.038         147.978 
       0.455999         210.446         137.704 
       0.471626         195.325         128.916 
        0.48727         189.259          120.59 
       0.502856         182.116         112.718 
       0.518488         178.407         105.609 
       0.534347         169.467         99.2592 
       0.550082         157.569         93.4668 
       0.565732         153.124         88.0567 
       0.581496         146.288         83.0062 
       0.597222         141.812         78.4373 
       0.612804         135.825         74.2776 
       0.628434         132.346         70.3912 
       0.644267          127.72         66.7107 
       0.660051         125.662         63.3135 
       0.675724         121.885         60.1957 
       0.691403         118.131          57.291 
       0.707174         113.326         54.5617 
       0.722871         111.888         52.0213 
        0.73838          109.66         49.6702 
       0.754018         104.796          47.447 
       0.769845         102.647          45.336 
        0.78569         100.242         43.3523 
       0.801365         97.3235         41.5075 
       0.817031         93.8593         39.7723 
       0.832809         92.8257         38.1264 
       0.848511         89.5615         36.5823 
       0.864097         87.3945         35.1356 
       0.879701          86.097         33.7669 
       0.895507         84.2395          32.456 
       0.911279          82.864         31.2184 
        0.92691         81.0822         30.0566 
       0.942635         78.6931         28.9483 
       0.958396         78.3925         27.8942 
       0.974128         76.2483         26.8953 
       0.989692         74.5344         25.9559 
        1.00528         72.8935         25.0605 
        1.02113         71.8695         24.1938 
        1.03692           69.57         23.3719 
        1.05264         69.5132         22.5924 
        1.06832         67.4236           21.85 
        1.08405         66.6159         21.1395 
        1.09979         66.1183         20.4604 
        1.11537         63.6778         19.8183 
        1.13105         64.0695         19.2002 
        1.14679         62.6795         18.6065 
        1.16256         61.6324         18.0369 
        1.17828         60.1737         17.4933 
        1.19395         59.5621         16.9743 
         1.2097         58.1429         16.4739 
        1.22537         58.2681         15.9963 
          1.241         56.7142         15.5393 
        1.25666         55.6263         15.0992 
        1.27241         55.0515         14.6743 
        1.28819         53.9254         14.2652 
        1.30392         53.2448         13.8731 
        1.31957         52.7295         13.4976 
        1.33529         51.7575         13.1348 
        1.35108          51.481         12.7841 
        1.36674         50.7662         12.4488 
         1.3824         49.4468          12.126 
        1.39811          49.228         11.8137 
        1.41389          48.495         11.5113 
        1.42964         47.7652         11.2201 
        1.44531         47.0485         10.9406 
        1.46101         46.2224           10.67 
        1.47667         46.1166         10.4095 
        1.49229         45.5084         10.1585 
        1.50793         44.8163         9.91564 
        1.52367         44.1002         9.67919 
        1.53953         43.8389         9.44894 
        1.55526         43.1185         9.22811 
        1.57092         42.7497         9.01532 
        1.58662         42.1597          8.8088 
        1.60235          41.694         8.60841 
        1.61809          40.999         8.41423 
        1.63369         40.4401         8.22782 
        1.64941         39.9501         8.04578 
        1.66519         39.3838         7.86865 
        1.68085          39.142         7.69816 
        1.69652         38.5598         7.53273 
        1.71228          38.331         7.37127 
        1.72806         37.8477         7.21446 
        1.74368         37.2623         7.06383 
        1.75933         36.8299         6.91724 
        1.77505         36.6076         6.77417 
        1.79081         36.0224         6.63493 
         1.8065         35.6692         6.50024 
        1.82218         35.3329         6.36944 
        1.83797         34.8107         6.24138 
        1.85367         34.3329         6.11758 
        1.86928         34.0728         5.99792 
        1.88497         33.7865         5.88084 
        1.90073         33.4085         5.76648 
        1.91647         32.9859         5.65529 
        1.93218         32.7314         5.54729 
        1.94787         32.2693         5.44231 
        1.96363         32.0648         5.33965 
        1.97935         31.5932         5.23987 
        1.99499         31.3071         5.14323 
        2.01064         31.0582         5.04892 
         2.0264         30.5394         4.95639 
        2.04216         30.2178         4.86626 
        2.05781         29.8433         4.77895 
        2.07353         29.6271          4.6935 
        2.08928         29.5949         4.60996 
        2.10499           29.16         4.52871 
        2.12065         28.7046         4.44967 
        2.13633         28.5997         4.37247 
        2.15211         28.1013         4.29662 
        2.16785         27.8073          4.2228 
        2.18349         27.6397         4.15119 
        2.19916         27.4046          4.0811 
        2.21489         27.0103         4.01242 
        2.23063         26.7702         3.94529 
         2.2463         26.5515            3.88 
        2.26194         26.3547         3.81637 
        2.27765         26.0687         3.75386 
        2.29341         25.7813         3.69259 
        2.30914         25.6186         3.63283 
        2.32486         25.2342         3.57444 
        2.34061         25.0686         3.51724 
        2.35635         24.8035         3.46136 
        2.37203         24.6158          3.4069 
        2.38768         24.2777         3.35373 
        2.40339         24.2126         3.30151 
        2.41914         23.9002          3.2503 
        2.43483         23.6409         3.20036 
         2.4505         23.4164         3.15156 
        2.46622         23.1908         3.10362 
        2.48195         22.9785         3.05669 
        2.49759         22.7439         3.01098 
        2.51328         22.4935          2.9661 
        2.52906         22.3972         2.92186 
        2.54479         22.0853         2.87869 
        2.56049         21.8288         2.83648 
        2.57618         21.6106         2.79517 
        2.59189         21.5232         2.75462 
        2.60758         21.3357         2.71495 
        2.62325         21.0632         2.67611 
        2.63898          20.994          2.6379 
        2.65468         20.7076         2.60053 
        2.67044         20.5398         2.56373 
        2.68618         20.2821         2.52773 
        2.70184         20.1708         2.49257 
        2.71755         20.0113           2.458 
        2.73329         19.7895         2.42403 
        2.74897         19.5465         2.39083 
        2.76462          19.521         2.35832 
        2.78034         19.3006         2.32629 
        2.79607         19.1175         2.29483 
        2.81179         18.9308         2.26398 
        2.82749          18.768         2.23375 
        2.84321         18.6651         2.20404 
        2.85893         18.3911         2.17488 
        2.87462         18.2434          2.1463 
        2.89033         18.1484         2.11821 
        2.90605         18.0214         2.09061 
        2.92176         17.7254         2.06352 
        2.93747         17.6691         2.03692 
        2.95318         17.4534         2.01079 
        2.96891         17.3276         1.98512 
        2.98456         17.1812            1.96 
        3.00023         16.9629         1.93529 
        3.01596         16.9383         1.91093 
        3.03164         16.7608         1.88707 
        3.04738         16.5479         1.86354 
         3.0631         16.4059         1.84043 
        3.07883         16.2747         1.81771 
        3.09456          16.134         1.79538 
        3.11026         16.0264         1.77347 
        3.12596         15.8454         1.75192 
        3.14163         15.7471         1.73079 
        3.15734         15.5689         1.70995 
        3.17308           15.45         1.68942 
        3.18879         15.3098         1.66928 
        3.20447         15.1871          1.6495 
         3.2202         15.0175         1.62998 
         3.2359         14.9262         1.61081 
        3.25157         14.8143           1.592 
        3.26729         14.7049         1.57344 
        3.28304         14.5447         1.55514 
        3.29877         14.3837         1.53715 
        3.31446         14.2792         1.51949 
        3.33014         14.1667         1.50213 
        3.34585         14.0201         1.48502 
        3.36158         13.9301         1.46814 
        3.37727         13.7565         1.45159 
        3.39294         13.6455          1.4353 
        3.40867         13.5508         1.41921 
        3.42439          13.443         1.40338 
        3.44008         13.3548         1.38782 
        3.45578          13.218         1.37249 
        3.47153         13.1495         1.35735 
        3.48724         13.0162         1.34248 
        3.50292         12.8945         1.32786 
        3.51859         12.8101         1.31347 
        3.53431         12.7135         1.29925 
        3.55007         12.5914         1.28521 
        3.56577         12.4893         1.27143 
        3.58146         12.4233         1.25786 
        3.59719         12.2729         1.24446 
        3.61292         12.1778         1.23126 
        3.62859         12.0636          1.2183 
        3.64429         11.9687         1.20551 
        3.66003         11.8931         1.19286 
        3.67578         11.8131          1.1804 
        3.69146         11.6731         1.16816 
        3.70712         11.5921         1.15613 
        3.72284         11.5042         1.14422 
        3.73853         11.3754         1.13249 
        3.75422         11.3109         1.12093 
        3.76993         11.2428         1.10953 
        3.78564         11.1023         1.09828 
        3.80137         11.0369         1.08718 
        3.81707          10.961         1.07625 
        3.83279         10.8277         1.06547 
        3.84853         10.7727         1.05482 
        3.86424         10.6366         1.04433 
        3.87992         10.5889         1.03401 
        3.89561         10.5007         1.02382 
        3.91134         10.4215         1.01375 
        3.92704         10.3193         1.00383 
        3.94273         10.2468        0.994058 
        3.95845         10.1732        0.984395 
        3.97418         10.1046         0.97486 
        3.98988         9.98869        0.965464 
        4.00554         9.95949        0.956219 
        4.02125          9.8257         0.94707 
        4.03698         9.78446        0.938026 
        4.05268         9.69356        0.929123 
        4.06839         9.61181        0.920329 
         4.0841         9.52365        0.911652 
        4.09983         9.47329        0.903077 
        4.11555         9.38897        0.894615 
        4.13124         9.31022        0.886286 
        4.14693         9.24003        0.878057 
        4.16266         9.18527        0.869914 
        4.17839         9.08544        0.861881 
        4.19408         9.03485        0.853967 
        4.20977         8.94813         0.84615 
        4.22551         8.90022        0.838413 
        4.24123         8.82104        0.830782 
        4.25691         8.77459        0.823267 
        4.27259          8.6629        0.815843 
        4.28831         8.61334        0.808496 
        4.30404         8.55023        0.801234 
        4.31974         8.50776        0.794078 
        4.33543         8.41442        0.787013 
        4.35116         8.34725        0.780018 
        4.36688         8.27925        0.773112 
        4.38255         8.21979        0.766315 
        4.39825         8.16763        0.759586 
        4.41398         8.10092        0.752925 
         4.4297         8.04202        0.746352 
        4.44541         7.97789        0.739858 
        4.46111         7.92582        0.733448 
        4.47683         7.85644        0.727109 
        4.49251         7.80339        0.720859 
        4.50819         7.72741        0.714685 
         4.5239         7.69066        0.708574 
        4.53962         7.63401        0.702528 
        4.55535         7.55895         0.69655 
        4.57106         7.50001         0.69065 
        4.58678         7.45174        0.684819 
         4.6025         7.38659        0.679053 
        4.61821         7.33622        0.673356 
        4.63391         7.30541        0.667732 
         4.6496         7.22999        0.662174 
        4.66532         7.18215        0.656672 
        4.68103         7.10649        0.651236 
        4.69673         7.07478        0.645866 
        4.71241         7.01504        0.640563 
        4.72811         6.95231        0.635311 
        4.74384         6.91821        0.630111 
        4.75955         6.85451        0.624979 
        4.77525         6.80361        0.619906 
        4.79096         6.76828        0.614884 
        4.80669         6.71104        0.609916 
         4.8224         6.66725        0.605009 
        4.83809          6.6037        0.600161 
        4.85379         6.54522        0.595364 
         4.8695         6.51403        0.590616 
        4.88521          6.4754        0.585922 
        4.90093         6.39943        0.581278 
        4.91663          6.3638         0.57669 
        4.93234         6.33407        0.572146 
        4.94807         6.28216        0.567649 
        4.96377         6.24314        0.563209 
        4.97943         6.18916        0.558826 
        4.99514         6.14069        0.554479 
        5.01086         6.09862        0.550175 
        5.02654         6.05926        0.545928 
        5.04227         6.00849        0.541714 
          5.058         5.98316        0.537542 
        5.07371         5.93655        0.533423 
        5.08942         5.88282        0.529347 
        5.10513         5.85761        0.525314 
        5.12084         5.79532         0.52132 
        5.13656         5.76437         0.51737 
        5.15225         5.73597        0.513467 
        5.16796         5.69195        0.509598 
        5.18369         5.64036        0.505767 
         5.1994         5.60583        0.501981 
        5.21509         5.57021        0.498239 
        5.23079          5.5311         0.49453 
        5.24649         5.49864        0.490862 
        5.26217         5.46557        0.487234 
        5.27788         5.42228        0.483638 
        5.29359         5.38701        0.480078 
        5.30933         5.35139        0.476549 
        5.32504         5.31453        0.473062 
        5.34073         5.27481        0.469613 
        5.35646         5.23811        0.466192 
        5.37218          5.1959        0.462805 
        5.38789         5.17542        0.459458 
        5.40357         5.13389        0.456147 
        5.41929         5.09841        0.452862 
        5.43502         5.06158        0.449609 
         5.4507         5.02803        0.446396 
        5.46639         4.98953        0.443215 
        5.48212         4.95109        0.440057 
        5.49786         4.93428        0.436926 
        5.51353         4.89357        0.433841 
        5.52921         4.85948        0.430784 
        5.54495         4.83015        0.427747 
        5.56066         4.79313        0.424743 
        5.57637         4.76461        0.421768 
        5.59207         4.73265        0.418825 
        5.60778         4.70555        0.415909 
        5.62346         4.68137        0.413025 
        5.63916         4.64534        0.410165 
        5.65487         4.60569        0.407332 
         5.6706          4.5875        0.404522 
        5.68633         4.54606        0.401738 
        5.70203         4.52592        0.398986 
        5.71773         4.49631         0.39626 
        5.73344         4.46056        0.393559 
        5.74916         4.44349         0.39088 
        5.76486         4.40888         0.38823 
        5.78054         4.38012        0.385609 
        5.79626         4.34085        0.383005 
          5.812         4.32787        0.380423 
         5.8277         4.29041        0.377872 
        5.84339         4.27779        0.375345 
        5.85911         4.25378        0.372836 
        5.87484         4.21847        0.370351 
        5.89053         4.18545        0.367893 
        5.90623         4.17244        0.365457 
        5.92195         4.13382        0.363039 
        5.93767           4.112        0.360644 
        5.95336         4.09115        0.358275 
        5.96905         4.05688        0.355928 
        5.98476         4.03316        0.353599 
        6.00048         4.00469         0.35129 
        6.01617         3.98461        0.349006 
        6.03185         3.96382        0.346744 
        6.04756         3.93578        0.344497 
        6.06331          3.9093        0.342265 
        6.07903         3.88251        0.340058 
        6.09473         3.86226        0.337873 
        6.11044         3.83983        0.335705 
        6.12616         3.82222        0.333557 
        6.14186         3.79084        0.331429 
        6.15755         3.77098        0.329321 
        6.17326          3.7466        0.327229 
        6.18898         3.72802        0.325154 
        6.20467         3.70612        0.323102 
        6.22036         3.68265        0.321067 
         6.2361         3.65432        0.319045 
         6.2518         3.64113        0.317043 
        6.26748         3.61916        0.315063 
        6.28319         3.59286        0.313095 
        6.29893         3.57088        0.311142 
        6.31463         3.54944        0.309209 
        6.33033         3.53175        0.307293 
        6.34604         3.50565        0.305392 
        6.36177         3.48265        0.303506 
        6.37747         3.46529        0.301639 
