# k  (h/Mpc)    Pcb(k)  (Mpc/h)^3    Pcb_linear(k) (Mpc/h)^3   ShotnoiseSubtracted = true
      0.0200456         3496.86         3554.38 
      0.0350414         2411.55         2440.49 
      0.0492313         1685.32         1679.86 
      0.0637834         1427.53          1402.4 
      0.0800726         1163.11         1152.61 
       0.096163         807.232         814.223 
       0.111083         615.089         620.337 
       0.126058         562.993         556.166 
       0.142273         500.438         492.225 
       0.158546         399.528          385.61 
        0.17375         315.634         311.365 
       0.188953         294.264         281.573 
       0.204907         279.578         258.775 
       0.220756         234.865         221.032 
        0.23588         200.996         186.827 
         0.2514         177.045         167.471 
       0.267535         166.849         155.006 
       0.283568         151.255         138.933 
       0.299022         136.765         122.218 
       0.314451         121.999         110.173 
       0.330372          113.93         101.935 
       0.346141         103.716         93.8216 
       0.361624         96.7816         85.1318 
       0.377134         90.6223         77.6323 
       0.392932         80.7768         71.8862 
       0.408854         78.0249         66.8296 
       0.424564         73.9842          61.784 
       0.440253          68.338         57.0668 
       0.455999         64.2517         53.1047 
       0.471626         60.0098         49.7155 
        0.48727         57.4984         46.5048 
       0.502856         54.1983         43.4687 
       0.518488         51.8512         40.7275 
       0.534347         49.8728         38.2786 
       0.550082         45.6708         36.0448 
       0.565732         42.8837         33.9584 
       0.581496         41.8258         32.0107 
       0.597222         40.4421         30.2488 
       0.612804         37.8698         28.6446 
       0.628434         36.6125         27.1458 
       0.644267         35.6298         25.7265 
       0.660051         33.9499         24.4164 
       0.675724         32.2283          23.214 
       0.691403         31.2376         22.0939 
       0.707174          30.221         21.0413 
       0.722871         29.0598         20.0616 
        0.73838         28.0377         19.1549 
       0.754018         26.8933         18.2976 
       0.769845         26.1377         17.4835 
        0.78569         25.2952         16.7185 
       0.801365         24.3684         16.0071 
       0.817031         23.7717         15.3379 
       0.832809         23.2808         14.7032 
       0.848511         21.8747         14.1077 
       0.864097         21.5272         13.5498 
       0.879701         20.9824          13.022 
       0.895507         20.3708         12.5164 
       0.911279         19.7882         12.0392 
        0.92691         19.2958         11.5911 
       0.942635         18.5033         11.1637 
       0.958396         18.1592         10.7572 
       0.974128         17.6325          10.372 
       0.989692         17.4516         10.0097 
        1.00528         17.0068          9.6644 
        1.02113         16.3025         9.33018 
        1.03692         15.9475          9.0132 
        1.05264         15.6779         8.71258 
        1.06832         15.2713         8.42631 
        1.08405          14.835         8.15228 
        1.09979          14.536         7.89042 
        1.11537         14.2858         7.64279 
        1.13105         13.9878         7.40444 
        1.14679         13.7627         7.17544 
        1.16256         13.2535          6.9558 
        1.17828         13.2306         6.74618 
        1.19395         12.7378           6.546 
         1.2097         12.5998         6.35302 
        1.22537         12.2647         6.16884 
          1.241         12.0817          5.9926 
        1.25666         11.8274         5.82289 
        1.27241         11.5355         5.65903 
        1.28819         11.3149         5.50127 
        1.30392         11.2144         5.35005 
        1.31957         11.0086         5.20525 
        1.33529          10.808         5.06535 
        1.35108         10.5396         4.93009 
        1.36674         10.4729         4.80079 
         1.3824         10.1754          4.6763 
        1.39811          10.027         4.55586 
        1.41389         9.87689         4.43925 
        1.42964         9.74676         4.32696 
        1.44531         9.60748         4.21914 
        1.46101         9.35809         4.11482 
        1.47667         9.25911         4.01436 
        1.49229         9.13821         3.91757 
        1.50793         8.96241         3.82389 
        1.52367         8.81997         3.73271 
        1.53953         8.68317         3.64392 
        1.55526         8.56472         3.55875 
        1.57092         8.45173         3.47669 
        1.58662         8.33951         3.39705 
        1.60235         8.19836         3.31977 
        1.61809         8.08239         3.24489 
        1.63369         7.96121           3.173 
        1.64941           7.838          3.1028 
        1.66519         7.77728         3.03449 
        1.68085         7.63617         2.96874 
        1.69652         7.51753         2.90494 
        1.71228         7.41802         2.84268 
        1.72806         7.35178          2.7822 
        1.74368         7.21449         2.72411 
        1.75933         7.15141         2.66758 
        1.77505         7.05194         2.61241 
        1.79081         6.91963         2.55871 
         1.8065          6.8801         2.50677 
        1.82218         6.77144         2.45633 
        1.83797         6.71819         2.40694 
        1.85367         6.59846          2.3592 
        1.86928         6.57992         2.31305 
        1.88497         6.43181          2.2679 
        1.90073         6.36821          2.2238 
        1.91647          6.3216         2.18092 
        1.93218         6.24035         2.13927 
        1.94787         6.15774         2.09879 
        1.96363         6.09291          2.0592 
        1.97935         5.99788         2.02072 
        1.99499         5.92437         1.98345 
        2.01064          5.8724         1.94708 
         2.0264          5.8119          1.9114 
        2.04216         5.74872         1.87664 
        2.05781         5.67074         1.84297 
        2.07353         5.62543         1.81001 
        2.08928         5.57585          1.7778 
        2.10499         5.52644         1.74646 
        2.12065         5.44638         1.71598 
        2.13633         5.40358         1.68621 
        2.15211         5.32359         1.65696 
        2.16785         5.27426         1.62849 
        2.18349         5.21558         1.60088 
        2.19916         5.15238         1.57385 
        2.21489         5.10962         1.54736 
        2.23063         5.05927         1.52147 
         2.2463         5.00679         1.49629 
        2.26194         4.94144         1.47176 
        2.27765         4.92431         1.44765 
        2.29341         4.86546         1.42402 
        2.30914         4.80842         1.40097 
        2.32486         4.75447         1.37846 
        2.34061         4.73148          1.3564 
        2.35635         4.68441         1.33485 
        2.37203         4.65018         1.31385 
        2.38768         4.59066         1.29334 
        2.40339         4.54696         1.27321 
        2.41914         4.48941         1.25345 
        2.43483         4.48189          1.2342 
         2.4505         4.41942         1.21538 
        2.46622         4.38595         1.19689 
        2.48195         4.33474         1.17879 
        2.49759         4.31918         1.16116 
        2.51328          4.2679         1.14385 
        2.52906         4.25349         1.12679 
        2.54479         4.19068         1.11014 
        2.56049         4.16516         1.09387 
        2.57618         4.11579         1.07794 
        2.59189         4.09337          1.0623 
        2.60758         4.07112           1.047 
        2.62325         4.02286         1.03202 
        2.63898         3.96999         1.01729 
        2.65468          3.9476         1.00288 
        2.67044         3.91699        0.988683 
        2.68618         3.89319          0.9748 
        2.70184         3.84996        0.961241 
        2.71755         3.82242        0.947908 
        2.73329         3.79683         0.93481 
        2.74897         3.78042        0.922004 
        2.76462         3.74196        0.909469 
        2.78034         3.68646        0.897116 
        2.79607         3.67031        0.884983 
        2.81179         3.65259        0.873089 
        2.82749         3.59631        0.861429 
        2.84321          3.5965         0.84997 
        2.85893         3.56131        0.838725 
        2.87462         3.53558        0.827705 
        2.89033         3.51035        0.816874 
        2.90605         3.48071        0.806229 
        2.92176         3.44294        0.795781 
        2.93747         3.42022        0.785524 
        2.95318         3.39719        0.775448 
        2.96891         3.38677        0.765546 
        2.98456           3.355        0.755861 
        3.00023         3.31879        0.746332 
        3.01596         3.29908        0.736938 
        3.03164         3.28408        0.727734 
        3.04738         3.25339        0.718662 
         3.0631         3.22495        0.709748 
        3.07883          3.2092        0.700987 
        3.09456         3.18422        0.692376 
        3.11026         3.16335        0.683924 
        3.12596         3.13231        0.675616 
        3.14163         3.11431        0.667465 
        3.15734         3.08715        0.659432 
        3.17308         3.07497        0.651512 
        3.18879         3.05334        0.643745 
        3.20447          3.0401        0.636116 
         3.2202         2.99935        0.628589 
         3.2359         2.99688        0.621198 
        3.25157         2.97121        0.613944 
        3.26729         2.94894        0.606785 
        3.28304         2.93404        0.599728 
        3.29877         2.91646        0.592792 
        3.31446         2.88806        0.585982 
        3.33014          2.8775        0.579286 
        3.34585         2.85742        0.572685 
        3.36158         2.84183        0.566178 
        3.37727         2.80553        0.559793 
        3.39294         2.80367        0.553514 
        3.40867         2.77578        0.547309 
        3.42439         2.76172        0.541203 
        3.44008         2.74398        0.535202 
        3.45578         2.72802        0.529289 
        3.47153         2.70837        0.523454 
        3.48724         2.69458        0.517717 
        3.50292         2.68542         0.51208 
        3.51859         2.65844         0.50653 
        3.53431         2.64277        0.501046 
        3.55007         2.62972         0.49563 
        3.56577         2.61127        0.490316 
        3.58146         2.59714        0.485084 
        3.59719         2.58295        0.479916 
        3.61292         2.56532        0.474825 
        3.62859         2.54574        0.469828 
        3.64429         2.52535        0.464895 
        3.66003         2.52502        0.460017 
        3.67578         2.50425        0.455212 
        3.69146         2.48731        0.450494 
        3.70712          2.4722        0.445852 
        3.72284         2.45431        0.441258 
        3.73853         2.44281        0.436738 
        3.75422         2.42853         0.43228 
        3.76993         2.40138        0.427881 
        3.78564         2.39896        0.423545 
        3.80137         2.38517        0.419263 
        3.81707         2.36104         0.41505 
        3.83279         2.35111        0.410891 
        3.84853         2.34352        0.406783 
        3.86424         2.32458         0.40274 
        3.87992         2.31177        0.398758 
        3.89561         2.29559         0.39483 
        3.91134         2.29018        0.390947 
        3.92704         2.27453        0.387122 
        3.94273         2.25867        0.383351 
        3.95845          2.2453        0.379625 
        3.97418         2.22733        0.375948 
        3.98988           2.213        0.372324 
        4.00554          2.1968        0.368759 
        4.02125         2.18697         0.36523 
        4.03698         2.17625        0.361743 
        4.05268         2.16353        0.358309 
        4.06839         2.15108        0.354918 
         4.0841         2.13741        0.351572 
        4.09983         2.11867        0.348265 
        4.11555         2.11017        0.345002 
        4.13124         2.09545         0.34179 
        4.14693         2.08035        0.338616 
        4.16266         2.06822        0.335476 
        4.17839         2.05544        0.332378 
        4.19408         2.04384        0.329326 
        4.20977         2.02475        0.326312 
        4.22551         2.02034        0.323328 
        4.24123         2.00564        0.320385 
        4.25691         1.99251        0.317487 
        4.27259         1.98112        0.314624 
        4.28831         1.97148        0.311791 
        4.30404         1.95777         0.30899 
        4.31974         1.94935         0.30623 
        4.33543         1.93332        0.303506 
        4.35116         1.92579        0.300808 
        4.36688         1.91434        0.298145 
        4.38255         1.89913        0.295524 
        4.39825         1.89338        0.292929 
        4.41398         1.87739         0.29036 
         4.4297         1.86791        0.287825 
        4.44541         1.85698        0.285321 
        4.46111          1.8488        0.282849 
        4.47683         1.83615        0.280404 
        4.49251         1.82961        0.277994 
        4.50819         1.82016        0.275613 
         4.5239         1.80884        0.273256 
        4.53962         1.80143        0.270925 
        4.55535         1.78981        0.268619 
        4.57106         1.77867        0.266344 
        4.58678         1.77427        0.264095 
         4.6025         1.76328        0.261872 
        4.61821         1.75114        0.259675 
        4.63391         1.74301        0.257506 
         4.6496         1.73346        0.255363 
        4.66532          1.7266        0.253241 
        4.68103         1.71956        0.251144 
        4.69673         1.71086        0.249073 
        4.71241         1.70044        0.247028 
        4.72811         1.69191        0.245003 
        4.74384         1.68625        0.242998 
        4.75955         1.67563        0.241018 
        4.77525         1.66883        0.239062 
        4.79096         1.65962        0.237126 
        4.80669         1.65188         0.23521 
         4.8224         1.64498        0.233317 
        4.83809         1.63865        0.231448 
        4.85379         1.62855        0.229598 
         4.8695         1.62169        0.227767 
        4.88521         1.61367        0.225956 
        4.90093         1.60382        0.224166 
        4.91663         1.59851        0.222396 
        4.93234         1.59293        0.220644 
        4.94807         1.58397         0.21891 
        4.96377         1.57742        0.217197 
        4.97943         1.57048        0.215507 
        4.99514         1.55972        0.213831 
        5.01086         1.55605        0.212171 
        5.02654         1.54815        0.210533 
        5.04227         1.54471        0.208908 
          5.058         1.53817        0.207299 
        5.07371         1.52661        0.205711 
        5.08942         1.52194        0.204139 
        5.10513         1.51565        0.202583 
        5.12084         1.51015        0.201043 
        5.13656         1.50051         0.19952 
        5.15225         1.49729        0.198015 
        5.16796          1.4922        0.196523 
        5.18369         1.48185        0.195045 
         5.1994         1.47817        0.193585 
        5.21509         1.47283        0.192142 
        5.23079          1.4661        0.190712 
        5.24649         1.46064        0.189297 
        5.26217         1.45542        0.187898 
        5.27788         1.44647        0.186512 
        5.29359         1.44338        0.185139 
        5.30933         1.44027        0.183778 
        5.32504         1.43311        0.182433 
        5.34073          1.4274        0.181103 
        5.35646         1.42287        0.179784 
        5.37218         1.41557        0.178478 
        5.38789         1.41137        0.177186 
        5.40357         1.40468         0.17591 
        5.41929         1.39672        0.174643 
        5.43502         1.39376        0.173388 
         5.4507         1.38506        0.172149 
        5.46639         1.38431        0.170922 
        5.48212         1.37764        0.169705 
        5.49786         1.37256        0.168497 
        5.51353         1.36441        0.167308 
        5.52921         1.35975        0.166129 
        5.54495         1.35544        0.164957 
        5.56066         1.35204        0.163799 
        5.57637         1.34498        0.162652 
        5.59207         1.33959        0.161517 
        5.60778         1.33564        0.160392 
        5.62346         1.33096         0.15928 
        5.63916         1.32983        0.158177 
        5.65487         1.32281        0.157085 
         5.6706         1.32042        0.156001 
        5.68633         1.31231        0.154927 
        5.70203         1.30646        0.153866 
        5.71773         1.30329        0.152815 
        5.73344         1.29718        0.151773 
        5.74916         1.29235         0.15074 
        5.76486         1.28804        0.149718 
        5.78054         1.28782        0.148707 
        5.79626         1.28047        0.147703 
          5.812         1.27669        0.146707 
         5.8277         1.27057        0.145724 
        5.84339         1.26799        0.144749 
        5.85911         1.26615        0.143782 
        5.87484         1.26022        0.142823 
        5.89053         1.25507        0.141875 
        5.90623         1.25067        0.140936 
        5.92195         1.24704        0.140003 
        5.93767         1.24321         0.13908 
        5.95336         1.23552        0.138166 
        5.96905         1.23299        0.137261 
        5.98476         1.23037        0.136363 
        6.00048         1.22617        0.135473 
        6.01617         1.22217        0.134591 
        6.03185         1.21732        0.133719 
        6.04756         1.21424        0.132853 
        6.06331         1.20971        0.131992 
        6.07903         1.20749        0.131141 
        6.09473         1.20352        0.130298 
        6.11044         1.20135        0.129462 
        6.12616         1.19494        0.128634 
        6.14186         1.18923        0.127813 
        6.15755          1.1894           0.127 
        6.17326         1.18486        0.126193 
        6.18898         1.18109        0.125393 
        6.20467          1.1799        0.124602 
        6.22036         1.17272        0.123817 
         6.2361          1.1702        0.123037 
         6.2518         1.16406        0.122265 
        6.26748         1.16369        0.121502 
        6.28319         1.15934        0.120743 
        6.29893         1.15569         0.11999 
        6.31463         1.14913        0.119244 
        6.33033         1.14978        0.118505 
        6.34604          1.1447        0.117772 
        6.36177         1.14037        0.117045 
        6.37747         1.13844        0.116325 
