#  k  (h/Mpc)          P(k)  (Mpc/h)^3     P_linear(k) (Mpc/h)^3
      0.0200456         24718.4         25337.3 
      0.0350414         17497.5         18419.4 
      0.0492313           13052         13383.2 
      0.0637834         11335.9         11125.3 
      0.0800726         8937.13         8829.88 
       0.096163         6187.27         6406.85 
       0.111083         4994.29         5110.27 
       0.126058         4591.54         4528.74 
       0.142273         3978.66         3836.84 
       0.158546         3522.17          3030.3 
        0.17375         2824.73         2553.02 
       0.188953         2767.52          2311.7 
       0.204907         2599.71         2045.39 
       0.220756         2261.85         1730.52 
        0.23588          2032.3          1505.4 
         0.2514         1774.59         1367.64 
       0.267535         1779.72         1237.48 
       0.283568         1614.68         1091.29 
       0.299022         1532.99         972.286 
       0.314451          1460.9         888.603 
       0.330372         1337.59         815.194 
       0.346141         1299.92         739.913 
       0.361624         1249.65         672.479 
       0.377134         1167.35         618.787 
       0.392932         1117.32         572.551 
       0.408854         1102.07         527.782 
       0.424564         1015.52         486.464 
       0.440253         996.473         451.009 
       0.455999         972.356         420.179 
       0.471626         937.789         391.846 
        0.48727         900.108         365.343 
       0.502856         871.734         341.533 
       0.518488         867.739         320.289 
       0.534347         814.878          300.54 
       0.550082         799.932          282.33 
       0.565732         791.892          265.67 
       0.581496         752.372         250.412 
       0.597222          735.39         236.418 
       0.612804         725.531         223.551 
       0.628434         706.151         211.558 
       0.644267         688.334         200.345 
       0.660051          671.96          190.01 
       0.675724         663.723         180.468 
       0.691403         643.515         171.573 
       0.707174         622.744         163.227 
       0.722871         613.175         155.469 
        0.73838         602.009         148.299 
       0.754018         591.641         141.527 
       0.769845         582.035         135.104 
        0.78569         571.589         129.074 
       0.801365         556.674         123.472 
       0.817031         545.088         118.208 
       0.832809         538.993         113.219 
       0.848511         527.625         108.542 
       0.864097           510.9         104.162 
       0.879701         504.107         100.021 
       0.895507         502.818          96.057 
       0.911279         490.427         92.3173 
        0.92691         483.479         88.8085 
       0.942635         470.437         85.4636 
       0.958396         459.532         82.2846 
       0.974128         454.358         79.2738 
       0.989692         451.875         76.4441 
        1.00528         437.494         73.7489 
        1.02113         435.325         71.1419 
        1.03692         424.752         68.6711 
        1.05264         420.068         66.3295 
        1.06832         409.412         64.1011 
        1.08405         404.526         61.9697 
        1.09979         398.643         59.9342 
        1.11537         391.664         58.0108 
        1.13105         385.797         56.1605 
        1.14679         375.051         54.3842 
        1.16256         367.821         52.6815 
        1.17828         367.554         51.0576 
        1.19395         359.412         49.5079 
         1.2097         350.942         48.0148 
        1.22537         345.292         46.5907 
          1.241          340.26          45.229 
        1.25666         336.687         43.9184 
        1.27241           330.8         42.6538 
        1.28819         324.661          41.437 
        1.30392         318.788         40.2714 
        1.31957         315.597         39.1559 
        1.33529         312.024         38.0788 
        1.35108          305.06          37.038 
        1.36674         299.749         36.0437 
         1.3824         297.115         35.0869 
        1.39811         291.899         34.1618 
        1.41389         288.683         33.2665 
        1.42964         284.712          32.405 
        1.44531         281.352         31.5783 
        1.46101          274.86         30.7787 
        1.47667         271.617         30.0093 
        1.49229         268.536         29.2683 
        1.50793         261.964         28.5515 
        1.52367          260.71         27.8542 
        1.53953          255.77         27.1756 
        1.55526         252.441         26.5251 
        1.57092         249.713         25.8986 
        1.58662         246.848         25.2908 
        1.60235         242.509         24.7015 
        1.61809         239.164         24.1307 
        1.63369         236.733          23.583 
        1.64941         232.178         23.0485 
        1.66519         230.165         22.5286 
        1.68085         227.302         22.0285 
        1.69652         223.909         21.5434 
        1.71228         218.186         21.0703 
        1.72806          215.84          20.611 
        1.74368         212.808           20.17 
        1.75933         210.285         19.7411 
        1.77505         208.218         19.3227 
        1.79081         205.531         18.9157 
         1.8065         201.022         18.5221 
        1.82218         198.926         18.1402 
        1.83797         198.074         17.7664 
        1.85367         194.521         17.4052 
        1.86928         191.032         17.0562 
        1.88497         189.044          16.715 
        1.90073          186.35         16.3818 
        1.91647         185.241          16.058 
        1.93218         181.916         15.7437 
        1.94787          178.21         15.4382 
        1.96363         176.271         15.1397 
        1.97935         174.245         14.8497 
        1.99499         172.405         14.5689 
        2.01064         169.945          14.295 
         2.0264         168.697         14.0264 
        2.04216         166.244         13.7649 
        2.05781         163.778         13.5117 
        2.07353         162.192         13.2639 
        2.08928         159.041         13.0219 
        2.10499         158.002         12.7865 
        2.12065         155.674         12.5577 
        2.13633         153.167         12.3343 
        2.15211         151.289         12.1149 
        2.16785         150.039         11.9014 
        2.18349         148.296         11.6944 
        2.19916         146.205          11.492 
        2.21489         144.788         11.2936 
        2.23063          142.59         11.0998 
         2.2463         140.637         10.9114 
        2.26194          138.47         10.7279 
        2.27765         137.309         10.5477 
        2.29341         135.727         10.3711 
        2.30914         134.319         10.1989 
        2.32486         132.328         10.0308 
        2.34061         130.775         9.86614 
        2.35635         129.088         9.70535 
        2.37203         127.869          9.5487 
        2.38768         125.861         9.39583 
        2.40339         124.606         9.24576 
        2.41914         123.098         9.09863 
        2.43483         121.593         8.95521 
         2.4505          120.37         8.81513 
        2.46622          118.83         8.67757 
        2.48195         116.907         8.54293 
        2.49759          115.83         8.41187 
        2.51328         114.894         8.28323 
        2.52906         113.246         8.15646 
        2.54479         111.919         8.03282 
        2.56049         110.145         7.91198 
        2.57618         109.449         7.79373 
        2.59189         108.491         7.67772 
        2.60758         107.152         7.56426 
        2.62325         105.497         7.45323 
        2.63898         104.291         7.34405 
        2.65468         103.078         7.23728 
        2.67044         102.133         7.13217 
        2.68618          101.25          7.0294 
        2.70184         100.241         6.92907 
        2.71755          98.619         6.83044 
        2.73329         97.7493         6.73358 
        2.74897          96.728         6.63892 
        2.76462         95.6898         6.54628 
        2.78034         94.4155         6.45504 
        2.79607         93.2267         6.36543 
        2.81179          92.593         6.27763 
        2.82749         91.5196         6.19159 
        2.84321         90.3048         6.10706 
        2.85893         89.4023         6.02414 
        2.87462         88.4771          5.9429 
        2.89033         87.4137         5.86308 
        2.90605         86.5269         5.78466 
        2.92176         85.4769         5.70771 
        2.93747         84.6591         5.63221 
        2.95318         83.8537         5.55805 
        2.96891         83.1155         5.48519 
        2.98456         82.0134         5.41397 
        3.00023         81.1704          5.3439 
        3.01596          80.048         5.27486 
        3.03164         79.3815         5.20723 
        3.04738         78.3172          5.1406 
         3.0631         77.5772         5.07515 
        3.07883          76.818         5.01083 
        3.09456         76.2853         4.94765 
        3.11026         75.3281         4.88565 
        3.12596         74.4231         4.82471 
        3.14163         73.9162         4.76496 
        3.15734           72.96         4.70608 
        3.17308         72.1587         4.64806 
        3.18879         71.5748         4.59117 
        3.20447         70.6248         4.53531 
         3.2202         70.0848         4.48022 
         3.2359         69.1686         4.42613 
        3.25157         68.7699         4.37307 
        3.26729         67.9519         4.32071 
        3.28304         67.4313         4.26911 
        3.29877         66.5685         4.21842 
        3.31446         65.7392         4.16867 
        3.33014         65.0669         4.11976 
        3.34585         64.3363         4.07156 
        3.36158         63.9122         4.02406 
        3.37727         63.3581         3.97746 
        3.39294         62.4035         3.93165 
        3.40867         62.0113         3.88639 
        3.42439         61.4582         3.84187 
        3.44008         60.6833         3.79813 
        3.45578         60.1082         3.75504 
        3.47153         59.4843         3.71253 
        3.48724         59.1054         3.67075 
        3.50292         58.5768         3.62971 
        3.51859         57.8326         3.58931 
        3.53431          57.399         3.54941 
        3.55007         56.9179         3.51001 
        3.56577         56.4453         3.47137 
        3.58146         55.8359         3.43332 
        3.59719         55.2271         3.39576 
        3.61292         54.7067         3.35877 
        3.62859         54.0821         3.32247 
        3.64429         53.7137         3.28664 
        3.66003         53.2615         3.25123 
        3.67578         52.6172         3.21635 
        3.69146         52.1503         3.18211 
        3.70712         51.6483         3.14844 
        3.72284         51.2194         3.11513 
        3.73853         50.6803         3.08235 
        3.75422          50.085         3.05004 
        3.76993         49.6576         3.01816 
        3.78564         49.2469         2.98675 
        3.80137         48.8065         2.95574 
        3.81707         48.2375         2.92523 
        3.83279         47.8599         2.89512 
        3.84853          47.505          2.8654 
        3.86424         47.0904         2.83614 
        3.87992         46.5718         2.80734 
        3.89561         46.2491         2.77894 
        3.91134         45.8371         2.75087 
        3.92704         45.2617         2.72322 
        3.94273         44.8728         2.69598 
        3.95845         44.5322         2.66906 
        3.97418         44.1467         2.64251 
        3.98988         43.6266         2.61635 
        4.00554         43.3701         2.59061 
        4.02125         42.8704         2.56515 
        4.03698         42.4893         2.53999 
        4.05268         42.1109         2.51523 
        4.06839          41.657         2.49077 
         4.0841         41.3954         2.46665 
        4.09983         41.1538         2.44282 
        4.11555         40.5981         2.41931 
        4.13124         40.2533         2.39617 
        4.14693         40.0172         2.37331 
        4.16266         39.6434         2.35071 
        4.17839         39.3117         2.32841 
        4.19408         38.7783         2.30644 
        4.20977         38.5652         2.28476 
        4.22551         38.2434         2.26329 
        4.24123         37.9279         2.24213 
        4.25691         37.5513          2.2213 
        4.27259         37.1589         2.20072 
        4.28831          36.985         2.18036 
        4.30404         36.6354         2.16024 
        4.31974         36.2847         2.14042 
        4.33543         35.9333         2.12086 
        4.35116         35.7732         2.10149 
        4.36688         35.3712         2.08237 
        4.38255          35.014         2.06357 
        4.39825         34.7243         2.04495 
        4.41398         34.4542         2.02653 
         4.4297         34.1632         2.00835 
        4.44541         33.9092          1.9904 
        4.46111         33.5979         1.97268 
        4.47683         33.2922         1.95517 
        4.49251         33.0312          1.9379 
        4.50819         32.7514         1.92085 
         4.5239         32.5542         1.90397 
        4.53962         32.2363         1.88728 
        4.55535         31.9506         1.87078 
        4.57106          31.656          1.8545 
        4.58678         31.3827         1.83841 
         4.6025         31.0994         1.82251 
        4.61821         30.8672          1.8068 
        4.63391         30.6188         1.79129 
         4.6496         30.3712         1.77598 
        4.66532         30.1544         1.76081 
        4.68103          29.901         1.74584 
        4.69673         29.6231         1.73105 
        4.71241         29.4335         1.71644 
        4.72811         29.2237         1.70198 
        4.74384         28.9567         1.68767 
        4.75955         28.6275         1.67354 
        4.77525         28.5026         1.65959 
        4.79096         28.2345         1.64577 
        4.80669         28.0137         1.63211 
         4.8224         27.7581         1.61862 
        4.83809         27.5766         1.60529 
        4.85379         27.3978          1.5921 
         4.8695         27.1124         1.57906 
        4.88521         26.9024         1.56616 
        4.90093         26.6888         1.55341 
        4.91663         26.4346         1.54081 
        4.93234         26.1978         1.52833 
        4.94807         26.0762         1.51599 
        4.96377         25.8782          1.5038 
        4.97943         25.6705         1.49178 
        4.99514         25.4164         1.47985 
        5.01086         25.2678         1.46805 
        5.02654         25.0171          1.4564 
        5.04227         24.8213         1.44485 
          5.058         24.7342         1.43342 
        5.07371          24.438         1.42213 
        5.08942         24.2099         1.41096 
        5.10513         24.0596         1.39991 
        5.12084         23.9232         1.38898 
        5.13656         23.7233         1.37816 
        5.15225         23.5212         1.36748 
        5.16796         23.3169         1.35689 
        5.18369         23.1649          1.3464 
         5.1994         22.9578         1.33605 
        5.21509         22.8065         1.32581 
        5.23079         22.5714         1.31567 
        5.24649         22.4647         1.30564 
        5.26217         22.2718         1.29572 
        5.27788         22.1078          1.2859 
        5.29359         21.9622         1.27617 
        5.30933         21.7336         1.26653 
        5.32504         21.5711           1.257 
        5.34073         21.4643         1.24758 
        5.35646         21.3124         1.23824 
        5.37218         21.1261           1.229 
        5.38789         20.9713         1.21986 
        5.40357         20.8193         1.21083 
        5.41929          20.606         1.20187 
        5.43502         20.5412         1.19299 
         5.4507         20.3674         1.18423 
        5.46639         20.2047         1.17556 
        5.48212         20.0793         1.16695 
        5.49786         19.8929         1.15842 
        5.51353         19.7393         1.15001 
        5.52921         19.5827         1.14168 
        5.54495         19.4458         1.13341 
        5.56066         19.3157         1.12523 
        5.57637         19.1566         1.11713 
        5.59207         19.0215         1.10911 
        5.60778          18.871         1.10118 
        5.62346         18.7456         1.09333 
        5.63916         18.5989         1.08555 
        5.65487          18.496         1.07784 
         5.6706         18.3283          1.0702 
        5.68633         18.2005         1.06263 
        5.70203         18.0494         1.05515 
        5.71773         17.9365         1.04774 
        5.73344          17.848          1.0404 
        5.74916         17.6474         1.03312 
        5.76486         17.5484         1.02592 
        5.78054         17.4795          1.0188 
        5.79626         17.3134         1.01173 
          5.812         17.1807         1.00472 
         5.8277         17.0569        0.997794 
        5.84339          16.974        0.990935 
        5.85911         16.8469        0.984126 
        5.87484         16.6769        0.977383 
        5.89053         16.5687        0.970717 
        5.90623         16.4496         0.96411 
        5.92195         16.3298        0.957552 
        5.93767         16.2276         0.95106 
        5.95336         16.1126        0.944637 
        5.96905         15.9914        0.938277 
        5.98476         15.8815        0.931966 
        6.00048         15.7645        0.925712 
        6.01617         15.6342        0.919523 
        6.03185          15.565        0.913398 
        6.04756         15.3957        0.907314 
        6.06331         15.3124        0.901272 
        6.07903         15.2287        0.895298 
        6.09473         15.0882        0.889384 
        6.11044         14.9768        0.883518 
        6.12616         14.8693        0.877705 
        6.14186         14.7758        0.871951 
        6.15755         14.6865        0.866249 
        6.17326         14.5871        0.860593 
        6.18898         14.4716        0.854985 
        6.20467         14.3797        0.849437 
        6.22036         14.2688        0.843938 
         6.2361         14.1608        0.838473 
         6.2518            14.1        0.833066 
        6.26748         13.9928        0.827718 
        6.28319          13.864        0.822402 
        6.29893         13.7832        0.817128 
        6.31463         13.6821         0.81191 
        6.33033         13.6104        0.806739 
        6.34604         13.5106        0.801609 
        6.36177         13.4109        0.796518 
        6.37747         13.3077        0.791482 
