# k  (h/Mpc)    Pcb(k)  (Mpc/h)^3    Pcb_linear(k) (Mpc/h)^3   ShotnoiseSubtracted = true
      0.0200456         6242.37          6327.5 
      0.0350414         4699.85         4599.88 
      0.0492313         3332.84         3342.18 
      0.0637834          2708.7         2778.33 
      0.0800726         2138.98         2205.09 
       0.096163         1646.06         1599.98 
       0.111083         1332.21         1276.19 
       0.126058         1123.05         1130.96 
       0.142273         958.492         958.175 
       0.158546         782.478         756.757 
        0.17375         676.819         637.567 
       0.188953         617.302         577.303 
       0.204907         525.393         510.795 
       0.220756         467.807         432.164 
        0.23588         412.456         375.945 
         0.2514          370.36         341.542 
       0.267535         352.944         309.037 
       0.283568         307.783         272.529 
       0.299022         288.836         242.809 
       0.314451         280.937         221.911 
       0.330372         244.375         203.579 
       0.346141          225.73         184.779 
       0.361624         212.353         167.939 
       0.377134         194.597          154.53 
       0.392932          189.46         142.984 
       0.408854         178.137         131.803 
       0.424564         170.017         121.485 
       0.440253         153.952         112.631 
       0.455999         144.009         104.931 
       0.471626         139.708         97.8559 
        0.48727         134.842         91.2372 
       0.502856         123.425         85.2913 
       0.518488         120.834          79.986 
       0.534347         113.412         75.0539 
       0.550082         110.413         70.5063 
       0.565732         107.692         66.3459 
       0.581496          99.296         62.5355 
       0.597222         96.7034         59.0409 
       0.612804         93.4388         55.8275 
       0.628434         91.0835         52.8324 
       0.644267         86.2503         50.0322 
       0.660051         83.3589         47.4514 
       0.675724         81.4034         45.0683 
       0.691403         79.7488         42.8469 
       0.707174         76.9583         40.7627 
       0.722871         75.1543         38.8254 
        0.73838          72.525         37.0348 
       0.754018         68.5255         35.3435 
       0.769845         67.9292         33.7395 
        0.78569         65.6812         32.2337 
       0.801365         63.8471         30.8348 
       0.817031         61.5796         29.5202 
       0.832809         60.5143         28.2742 
       0.848511         58.9805         27.1062 
       0.864097          57.847         26.0124 
       0.879701         56.6394         24.9782 
       0.895507         54.5683         23.9884 
       0.911279         53.6249         23.0544 
        0.92691         52.1711         22.1782 
       0.942635         51.1161         21.3429 
       0.958396         50.8015          20.549 
       0.974128           49.48         19.7971 
       0.989692         48.0502         19.0904 
        1.00528         47.2807         18.4173 
        1.02113         46.2175         17.7663 
        1.03692         45.8391         17.1493 
        1.05264         44.7433         16.5645 
        1.06832         43.7612          16.008 
        1.08405         42.8388         15.4757 
        1.09979         42.6485         14.9674 
        1.11537         41.3829          14.487 
        1.13105         40.4234          14.025 
        1.14679         39.8875         13.5814 
        1.16256         39.3529         13.1562 
        1.17828         38.8308         12.7506 
        1.19395         37.8721         12.3636 
         1.2097         37.6743         11.9908 
        1.22537         36.8362         11.6351 
          1.241         36.2171          11.295 
        1.25666         35.6149         10.9678 
        1.27241         35.3623         10.6519 
        1.28819         34.2374         10.3481 
        1.30392          34.221          10.057 
        1.31957         33.7354         9.77842 
        1.33529          33.075         9.50943 
        1.35108          32.558         9.24951 
        1.36674          32.236          9.0012 
         1.3824         31.6799         8.76226 
        1.39811         31.0307         8.53123 
        1.41389         30.7098         8.30767 
        1.42964         30.4899         8.09251 
        1.44531         29.8319         7.88605 
        1.46101         29.6309         7.68638 
        1.47667         29.2611         7.49423 
        1.49229         28.6872         7.30918 
        1.50793          28.463         7.13019 
        1.52367         27.9791         6.95605 
        1.53953         27.8292         6.78658 
        1.55526         27.3468         6.62412 
        1.57092         27.0919         6.46766 
        1.58662         26.6877         6.31589 
        1.60235         26.3341         6.16872 
        1.61809         26.0804         6.02617 
        1.63369          25.842         5.88939 
        1.64941         25.4876          5.7559 
        1.66519         25.0747         5.62607 
        1.68085         24.6878         5.50118 
        1.69652         24.5697         5.38005 
        1.71228         24.3355         5.26189 
        1.72806           23.93         5.14719 
        1.74368          23.676         5.03707 
        1.75933          23.473         4.92995 
        1.77505         23.2519         4.82546 
        1.79081         22.9862         4.72381 
         1.8065         22.6931         4.62554 
        1.82218         22.4612         4.53015 
        1.83797         22.3261          4.4368 
        1.85367         22.0984          4.3466 
        1.86928           21.96         4.25946 
        1.88497         21.5908         4.17423 
        1.90073         21.3692         4.09103 
        1.91647         21.0779         4.01017 
        1.93218         21.1565         3.93167 
        1.94787         20.7815         3.85539 
        1.96363         20.6055         3.78084 
        1.97935         20.2896         3.70841 
        1.99499         20.1265          3.6383 
        2.01064          19.902         3.56989 
         2.0264         19.7308         3.50282 
        2.04216          19.631         3.43751 
        2.05781         19.3747         3.37428 
        2.07353          19.214         3.31241 
        2.08928          18.903         3.25196 
        2.10499         18.7568         3.19319 
        2.12065         18.6056         3.13604 
        2.13633         18.4883         3.08025 
        2.15211         18.2049         3.02545 
        2.16785         18.1807         2.97214 
        2.18349         17.9138         2.92046 
        2.19916          17.754         2.86989 
        2.21489         17.5409         2.82036 
        2.23063         17.4893         2.77196 
         2.2463         17.2396         2.72492 
        2.26194         17.1174         2.67908 
        2.27765         16.8337         2.63407 
        2.29341         16.7699         2.58998 
        2.30914         16.5728         2.54698 
        2.32486          16.524         2.50499 
        2.34061         16.3491         2.46387 
        2.35635         16.1455         2.42372 
        2.37203         16.0292          2.3846 
        2.38768         15.8582         2.34643 
        2.40339         15.8113         2.30895 
        2.41914         15.6068          2.2722 
        2.43483         15.4276         2.23639 
         2.4505         15.2737         2.20141 
        2.46622         15.2381         2.16705 
        2.48195         15.0583         2.13343 
        2.49759         14.8399          2.1007 
        2.51328         14.8568         2.06857 
        2.52906         14.6707         2.03692 
        2.54479         14.5162         2.00604 
        2.56049         14.3606         1.97586 
        2.57618         14.3506         1.94633 
        2.59189         14.2018         1.91736 
        2.60758         13.9991         1.88903 
        2.62325         13.9156          1.8613 
        2.63898         13.8617         1.83403 
        2.65468         13.6195         1.80737 
        2.67044         13.5894         1.78112 
        2.68618         13.4981         1.75546 
        2.70184         13.3432          1.7304 
        2.71755         13.2368         1.70577 
        2.73329         13.1169         1.68158 
        2.74897         13.0206         1.65794 
        2.76462         12.9269         1.63481 
        2.78034         12.7882         1.61202 
        2.79607         12.7127         1.58964 
        2.81179          12.595         1.56772 
        2.82749         12.5032         1.54623 
        2.84321          12.396         1.52512 
        2.85893         12.2633         1.50441 
        2.87462         12.2243         1.48412 
        2.89033         12.0746         1.46419 
        2.90605         12.0117          1.4446 
        2.92176         11.8958         1.42539 
        2.93747         11.7944         1.40653 
        2.95318         11.6965         1.38801 
        2.96891         11.6315         1.36982 
        2.98456         11.5015         1.35203 
        3.00023          11.433         1.33453 
        3.01596         11.3425         1.31729 
        3.03164         11.2802          1.3004 
        3.04738         11.1683         1.28376 
         3.0631         11.0176         1.26742 
        3.07883         10.9658         1.25136 
        3.09456         10.8984         1.23558 
        3.11026         10.8388         1.22009 
        3.12596         10.7329         1.20488 
        3.14163         10.6661         1.18996 
        3.15734         10.5542         1.17525 
        3.17308         10.4957         1.16076 
        3.18879         10.4078         1.14655 
        3.20447         10.3191         1.13261 
         3.2202          10.236         1.11885 
         3.2359         10.1231         1.10534 
        3.25157          10.103         1.09209 
        3.26729          9.9956         1.07901 
        3.28304         9.88865         1.06613 
        3.29877         9.85546         1.05347 
        3.31446          9.7711         1.04104 
        3.33014         9.69308         1.02883 
        3.34585         9.61962         1.01679 
        3.36158         9.55978         1.00493 
        3.37727         9.50993        0.993293 
        3.39294         9.41721        0.981852 
        3.40867          9.3559         0.97055 
        3.42439         9.25839        0.959432 
        3.44008         9.19748        0.948509 
        3.45578         9.12497        0.937749 
        3.47153          9.0576        0.927132 
        3.48724         8.97862        0.916697 
        3.50292         8.89665        0.906448 
        3.51859         8.85654         0.89636 
        3.53431         8.76422        0.886394 
        3.55007         8.68714        0.876556 
        3.56577         8.63571        0.866905 
        3.58146         8.58105        0.857404 
        3.59719         8.49981        0.848024 
        3.61292         8.47379        0.838787 
        3.62859         8.42142        0.829722 
        3.64429         8.33016        0.820774 
        3.66003         8.29143         0.81193 
        3.67578         8.19779         0.80322 
        3.69146         8.18121         0.79467 
        3.70712         8.09873        0.786261 
        3.72284         8.02195        0.777942 
        3.73853         7.98835        0.769757 
        3.75422         7.91972        0.761687 
        3.76993         7.84951        0.753727 
        3.78564         7.79402        0.745883 
        3.80137          7.7631        0.738137 
        3.81707         7.67693        0.730518 
        3.83279         7.61071        0.723001 
        3.84853         7.56096        0.715577 
        3.86424          7.5327        0.708271 
        3.87992         7.47515        0.701079 
        3.89561         7.40189        0.693986 
        3.91134         7.32848        0.686976 
        3.92704         7.29569        0.680071 
        3.94273         7.23736        0.673269 
        3.95845         7.20708        0.666546 
        3.97418         7.14066        0.659914 
        3.98988         7.10139        0.653381 
        4.00554         7.04174        0.646955 
        4.02125         7.00605        0.640596 
        4.03698         6.93291        0.634313 
        4.05268         6.87568        0.628128 
        4.06839         6.81164        0.622022 
         4.0841         6.78765        0.615998 
        4.09983         6.72933        0.610046 
        4.11555         6.67169        0.604174 
        4.13124         6.63222        0.598396 
        4.14693          6.5758        0.592689 
        4.16266         6.54316        0.587043 
        4.17839         6.50075        0.581474 
        4.19408         6.44575        0.575989 
        4.20977         6.40205        0.570573 
        4.22551         6.36558        0.565214 
        4.24123         6.30811        0.559928 
        4.25691         6.26358        0.554725 
        4.27259         6.20465        0.549586 
        4.28831         6.17433        0.544502 
        4.30404         6.11587        0.539478 
        4.31974         6.08101        0.534528 
        4.33543         6.03355        0.529642 
        4.35116          5.9931        0.524806 
        4.36688         5.94924        0.520032 
        4.38255         5.91274        0.515336 
        4.39825         5.87132        0.510687 
        4.41398          5.8196        0.506086 
         4.4297         5.79991        0.501546 
        4.44541         5.74441        0.497063 
        4.46111         5.70684        0.492639 
        4.47683         5.68085        0.488265 
        4.49251         5.63833        0.483953 
        4.50819         5.60459        0.479694 
         4.5239         5.55144         0.47548 
        4.53962         5.51361        0.471311 
        4.55535          5.4799        0.467191 
        4.57106         5.43876        0.463126 
        4.58678         5.40446        0.459108 
         4.6025         5.36993        0.455137 
        4.61821         5.33317        0.451213 
        4.63391         5.28515        0.447341 
         4.6496          5.2533        0.443515 
        4.66532         5.21511        0.439729 
        4.68103         5.18153        0.435988 
        4.69673         5.15429        0.432295 
        4.71241          5.1221        0.428647 
        4.72811         5.07146        0.425036 
        4.74384         5.05895        0.421462 
        4.75955         5.01098        0.417935 
        4.77525         4.97107        0.414449 
        4.79096          4.9548        0.410999 
        4.80669         4.91975        0.407587 
         4.8224         4.87731        0.404217 
        4.83809         4.84842        0.400889 
        4.85379         4.80251        0.397597 
         4.8695         4.78758        0.394338 
        4.88521         4.75524        0.391118 
        4.90093         4.71249        0.387933 
        4.91663         4.69696        0.384786 
        4.93234         4.65913        0.381671 
        4.94807         4.63042        0.378588 
        4.96377         4.60352        0.375545 
        4.97943         4.56594        0.372542 
        4.99514         4.53828        0.369564 
        5.01086         4.51406        0.366616 
        5.02654         4.48464        0.363708 
        5.04227         4.45571        0.360823 
          5.058         4.41723        0.357968 
        5.07371         4.39429        0.355149 
        5.08942         4.36515         0.35236 
        5.10513          4.3341        0.349601 
        5.12084         4.31235         0.34687 
        5.13656         4.28424        0.344168 
        5.15225         4.25475          0.3415 
        5.16796         4.23584        0.338856 
        5.18369         4.19687        0.336238 
         5.1994         4.17439        0.333652 
        5.21509         4.14318        0.331095 
        5.23079         4.11592        0.328562 
        5.24649         4.09406        0.326058 
        5.26217         4.06321        0.323581 
        5.27788         4.05248        0.321127 
        5.29359         4.02619        0.318698 
        5.30933         4.00166         0.31629 
        5.32504         3.97043        0.313911 
        5.34073         3.95019         0.31156 
        5.35646         3.92247        0.309227 
        5.37218          3.8996        0.306918 
        5.38789         3.88055        0.304636 
        5.40357         3.85332         0.30238 
        5.41929         3.82196        0.300142 
        5.43502         3.80214        0.297927 
         5.4507         3.78193        0.295739 
        5.46639         3.74978        0.293572 
        5.48212         3.73228        0.291422 
        5.49786         3.71155        0.289292 
        5.51353          3.6813        0.287193 
        5.52921         3.66715        0.285112 
        5.54495         3.64519        0.283046 
        5.56066         3.62749        0.281003 
        5.57637         3.59715        0.278981 
        5.59207         3.57643         0.27698 
        5.60778         3.55975        0.274998 
        5.62346         3.54002        0.273038 
        5.63916         3.51338        0.271095 
        5.65487           3.492         0.26917 
         5.6706         3.46481        0.267262 
        5.68633         3.45588        0.265371 
        5.70203         3.43692        0.263502 
        5.71773         3.40624        0.261652 
        5.73344         3.39007        0.259819 
        5.74916         3.36911        0.258001 
        5.76486         3.35169        0.256203 
        5.78054         3.33131        0.254426 
        5.79626         3.31109         0.25266 
          5.812         3.28537        0.250909 
         5.8277         3.27041        0.249179 
        5.84339         3.25864        0.247466 
        5.85911         3.23541        0.245766 
        5.87484         3.21154        0.244082 
        5.89053         3.19572        0.242418 
        5.90623         3.18345        0.240767 
        5.92195         3.16397         0.23913 
        5.93767         3.14137        0.237508 
        5.95336         3.12282        0.235905 
        5.96905          3.1051        0.234316 
        5.98476         3.08494         0.23274 
        6.00048         3.07114        0.231178 
        6.01617         3.05377        0.229633 
        6.03185         3.03689        0.228103 
        6.04756         3.01195        0.226584 
        6.06331         3.00022        0.225075 
        6.07903         2.98399        0.223583 
        6.09473          2.9638        0.222106 
        6.11044         2.94585        0.220641 
        6.12616         2.93604         0.21919 
        6.14186         2.91709        0.217753 
        6.15755         2.90386        0.216329 
        6.17326         2.88772        0.214916 
        6.18898         2.86312        0.213516 
        6.20467         2.85121         0.21213 
        6.22036         2.83906        0.210757 
         6.2361         2.82064        0.209392 
         6.2518         2.80632        0.208042 
        6.26748         2.79007        0.206706 
        6.28319         2.77471        0.205379 
        6.29893         2.75911        0.204062 
        6.31463          2.7475        0.202759 
        6.33033         2.73605        0.201467 
        6.34604         2.71376        0.200186 
        6.36177         2.70532        0.198915 
        6.37747         2.68696        0.197657 
