# k  (h/Mpc)    Pcb(k)  (Mpc/h)^3    Pcb_linear(k) (Mpc/h)^3   ShotnoiseSubtracted = true
      0.0200456         702.638          711.66 
      0.0350414         522.836         517.353 
      0.0492313         377.278         375.899 
      0.0637834         309.969         312.481 
      0.0800726         245.438         248.009 
       0.096163         182.402         179.952 
       0.111083         146.147         143.534 
       0.126058           126.6         127.201 
       0.142273         106.984         107.767 
       0.158546         85.6234         85.1132 
        0.17375         72.8399         71.7078 
       0.188953         65.3969         64.9298 
       0.204907          56.605         57.4496 
       0.220756         48.9814         48.6059 
        0.23588         42.6705         42.2829 
         0.2514         38.7248         38.4136 
       0.267535         35.2569         34.7577 
       0.283568         31.0619         30.6516 
       0.299022         27.8622          27.309 
       0.314451         25.8867         24.9586 
       0.330372         23.4368         22.8967 
       0.346141         21.3114         20.7822 
       0.361624         19.3643         18.8882 
       0.377134         17.7479         17.3801 
       0.392932         16.9066         16.0815 
       0.408854         15.2787          14.824 
       0.424564         14.4279         13.6635 
       0.440253         13.2031         12.6677 
       0.455999         12.1261         11.8017 
       0.471626         11.3501         11.0059 
        0.48727           10.85         10.2615 
       0.502856         10.1622          9.5928 
       0.518488         9.36219          8.9961 
       0.534347         8.74912         8.44139 
       0.550082         8.37112         7.92992 
       0.565732         7.98538         7.46199 
       0.581496           7.488         7.03342 
       0.597222         7.05181         6.64039 
       0.612804         6.64548         6.27898 
       0.628434         6.37203         5.94211 
       0.644267         6.05674         5.62717 
       0.660051         5.73661          5.3369 
       0.675724         5.41003         5.06888 
       0.691403         5.19263         4.81903 
       0.707174         4.93689         4.58462 
       0.722871         4.81149         4.36673 
        0.73838         4.48729         4.16533 
       0.754018         4.28626         3.97512 
       0.769845         4.06262         3.79472 
        0.78569         3.95274         3.62536 
       0.801365          3.7796         3.46802 
       0.817031         3.64318         3.32016 
       0.832809         3.45256         3.18003 
       0.848511         3.34478         3.04866 
       0.864097         3.22337         2.92564 
       0.879701         3.12667         2.80933 
       0.895507         2.97622         2.69799 
       0.911279         2.87822         2.59295 
        0.92691         2.79357          2.4944 
       0.942635         2.65607         2.40045 
       0.958396         2.57168         2.31116 
       0.974128          2.4939          2.2266 
       0.989692         2.39074         2.14712 
        1.00528          2.3182         2.07142 
        1.02113         2.25493         1.99819 
        1.03692         2.19237         1.92879 
        1.05264         2.09288         1.86302 
        1.06832         2.03733         1.80044 
        1.08405         1.96432         1.74057 
        1.09979         1.91739          1.6834 
        1.11537          1.8518         1.62937 
        1.13105         1.78191          1.5774 
        1.14679         1.73943         1.52751 
        1.16256          1.6832         1.47969 
        1.17828         1.65201         1.43408 
        1.19395         1.59181         1.39055 
         1.2097         1.54433         1.34861 
        1.22537         1.49226         1.30861 
          1.241         1.45958         1.27036 
        1.25666         1.43163         1.23355 
        1.27241         1.38932         1.19803 
        1.28819         1.33829         1.16386 
        1.30392         1.30619         1.13112 
        1.31957         1.27921         1.09979 
        1.33529         1.22964         1.06953 
        1.35108         1.20488          1.0403 
        1.36674         1.17044         1.01237 
         1.3824         1.15439          0.9855 
        1.39811         1.11881        0.959516 
        1.41389         1.09072        0.934371 
        1.42964         1.06302        0.910173 
        1.44531         1.04084        0.886952 
        1.46101         1.00922        0.864494 
        1.47667        0.991461        0.842883 
        1.49229        0.957562        0.822071 
        1.50793        0.937776        0.801939 
        1.52367        0.913909        0.782354 
        1.53953        0.892061        0.763293 
        1.55526        0.879909        0.745021 
        1.57092        0.864999        0.727424 
        1.58662        0.848892        0.710355 
        1.60235        0.821118        0.693802 
        1.61809        0.803903        0.677769 
        1.63369        0.780604        0.662386 
        1.64941        0.769089        0.647372 
        1.66519        0.755775         0.63277 
        1.68085        0.734717        0.618723 
        1.69652        0.720073          0.6051 
        1.71228        0.703451         0.59181 
        1.72806        0.690265         0.57891 
        1.74368        0.676904        0.566524 
        1.75933        0.664605        0.554477 
        1.77505         0.65305        0.542724 
        1.79081        0.631809        0.531292 
         1.8065         0.62681        0.520239 
        1.82218        0.609287         0.50951 
        1.83797        0.594201        0.499011 
        1.85367        0.588507        0.488867 
        1.86928        0.576141        0.479065 
        1.88497        0.561469         0.46948 
        1.90073        0.555851        0.460122 
        1.91647        0.541378        0.451028 
        1.93218         0.53286        0.442199 
        1.94787         0.52277         0.43362 
        1.96363        0.514122        0.425235 
        1.97935        0.503002        0.417089 
        1.99499        0.494895        0.409203 
        2.01064        0.486189        0.401509 
         2.0264        0.473883        0.393966 
        2.04216        0.467083         0.38662 
        2.05781        0.460203        0.379508 
        2.07353        0.451098         0.37255 
        2.08928        0.444192        0.365751 
        2.10499        0.435145        0.359141 
        2.12065        0.427912        0.352714 
        2.13633        0.421341        0.346438 
        2.15211        0.412248        0.340276 
        2.16785        0.407004         0.33428 
        2.18349        0.400358        0.328467 
        2.19916        0.392959         0.32278 
        2.21489        0.385396        0.317208 
        2.23063        0.378706        0.311765 
         2.2463        0.373574        0.306474 
        2.26194         0.36835        0.301319 
        2.27765        0.361239        0.296257 
        2.29341        0.355624        0.291297 
        2.30914        0.348103        0.286462 
        2.32486        0.343384        0.281739 
        2.34061        0.336917        0.277114 
        2.35635         0.33241        0.272598 
        2.37203        0.329386        0.268198 
        2.38768        0.323025        0.263905 
        2.40339        0.317756         0.25969 
        2.41914        0.313428        0.255557 
        2.43483        0.307819        0.251529 
         2.4505        0.303318        0.247594 
        2.46622        0.299038         0.24373 
        2.48195        0.293157        0.239949 
        2.49759        0.292117        0.236268 
        2.51328        0.284928        0.232655 
        2.52906        0.280446        0.229094 
        2.54479        0.276726        0.225621 
        2.56049        0.271966        0.222227 
        2.57618        0.269733        0.218906 
        2.59189        0.264136        0.215647 
        2.60758        0.262176        0.212461 
        2.62325         0.25799        0.209342 
        2.63898        0.255158        0.206275 
        2.65468         0.24919        0.203276 
        2.67044        0.246625        0.200324 
        2.68618        0.243293        0.197438 
        2.70184        0.239849         0.19462 
        2.71755        0.235796        0.191849 
        2.73329        0.234661        0.189129 
        2.74897        0.229318         0.18647 
        2.76462        0.227329        0.183868 
        2.78034        0.223491        0.181305 
        2.79607        0.221458        0.178789 
        2.81179        0.216646        0.176323 
        2.82749        0.215147        0.173906 
        2.84321        0.212436        0.171532 
        2.85893        0.209132        0.169203 
        2.87462        0.206054        0.166921 
        2.89033        0.203667        0.164679 
        2.90605        0.201288        0.162476 
        2.92176        0.199671        0.160315 
        2.93747        0.195935        0.158194 
        2.95318         0.19377        0.156111 
        2.96891        0.191541        0.154065 
        2.98456        0.189692        0.152064 
        3.00023        0.186642        0.150096 
        3.01596        0.184212        0.148157 
        3.03164        0.181842        0.146258 
        3.04738         0.18026        0.144386 
         3.0631        0.178076        0.142548 
        3.07883        0.175737        0.140741 
        3.09456        0.173684        0.138967 
        3.11026        0.171059        0.137225 
        3.12596        0.168777        0.135514 
        3.14163        0.167454        0.133836 
        3.15734        0.165782        0.132182 
        3.17308        0.163588        0.130552 
        3.18879        0.161601        0.128954 
        3.20447        0.159413        0.127385 
         3.2202        0.158328        0.125838 
         3.2359        0.156047        0.124319 
        3.25157        0.153902        0.122828 
        3.26729        0.152849        0.121358 
        3.28304        0.151204        0.119908 
        3.29877        0.149073        0.118485 
        3.31446        0.148107        0.117087 
        3.33014        0.146291        0.115713 
        3.34585        0.144064         0.11436 
        3.36158         0.14286        0.113025 
        3.37727        0.141845        0.111717 
        3.39294        0.140321         0.11043 
        3.40867        0.138369        0.109159 
        3.42439        0.137383        0.107908 
        3.44008        0.136107         0.10668 
        3.45578        0.134446         0.10547 
        3.47153        0.133405        0.104275 
        3.48724        0.132014        0.103102 
        3.50292        0.131024        0.101949 
        3.51859        0.129395        0.100814 
        3.53431        0.127959       0.0996936 
        3.55007        0.126919       0.0985871 
        3.56577        0.126142       0.0975017 
        3.58146        0.124587       0.0964331 
        3.59719         0.12335        0.095378 
        3.61292        0.122329       0.0943392 
        3.62859        0.121387       0.0933196 
        3.64429        0.119681       0.0923132 
        3.66003         0.11921       0.0913186 
        3.67578        0.117909       0.0903389 
        3.69146        0.116913       0.0893773 
        3.70712        0.115858       0.0884315 
        3.72284        0.115166       0.0874958 
        3.73853        0.114188       0.0865753 
        3.75422        0.112885       0.0856677 
        3.76993        0.111959       0.0847724 
        3.78564        0.111139       0.0838901 
        3.80137        0.110515        0.083019 
        3.81707        0.108862       0.0821621 
        3.83279        0.108261       0.0813166 
        3.84853        0.107352       0.0804816 
        3.86424        0.106396         0.07966 
        3.87992        0.105526        0.078851 
        3.89561        0.104735       0.0780532 
        3.91134        0.103727       0.0772649 
        3.92704        0.102795       0.0764883 
        3.94273        0.101924       0.0757232 
        3.95845        0.100813       0.0749671 
        3.97418        0.100249       0.0742212 
        3.98988       0.0987845       0.0734864 
        4.00554       0.0982804       0.0727636 
        4.02125       0.0971357       0.0720485 
        4.03698       0.0956809       0.0713418 
        4.05268       0.0949926       0.0706462 
        4.06839       0.0935341       0.0699594 
         4.0841       0.0923141       0.0692819 
        4.09983       0.0912613       0.0686124 
        4.11555        0.089995       0.0679521 
        4.13124       0.0889379       0.0673022 
        4.14693       0.0878715       0.0666603 
        4.16266       0.0867537       0.0660253 
        4.17839       0.0857927       0.0653989 
        4.19408       0.0846406       0.0647821 
        4.20977       0.0838692       0.0641729 
        4.22551       0.0830673       0.0635701 
        4.24123       0.0819821       0.0629757 
        4.25691       0.0812216       0.0623905 
        4.27259       0.0804115       0.0618125 
        4.28831       0.0799342       0.0612407 
        4.30404       0.0785991       0.0606756 
        4.31974       0.0781489       0.0601188 
        4.33543       0.0774442       0.0595694 
        4.35116       0.0769399       0.0590255 
        4.36688       0.0761225       0.0584885 
        4.38255       0.0755734       0.0579603 
        4.39825       0.0751669       0.0574374 
        4.41398       0.0744604       0.0569199 
         4.4297       0.0740661       0.0564094 
        4.44541       0.0734912       0.0559052 
        4.46111       0.0729427       0.0554076 
        4.47683       0.0724859       0.0549156 
        4.49251       0.0721388       0.0544306 
        4.50819       0.0719284       0.0539516 
         4.5239       0.0713765       0.0534777 
        4.53962       0.0710266       0.0530089 
        4.55535       0.0709545       0.0525454 
        4.57106       0.0705251       0.0520882 
        4.58678        0.070346       0.0516363 
         4.6025       0.0701431       0.0511896 
        4.61821       0.0700181       0.0507484 
        4.63391       0.0698138       0.0503128 
         4.6496       0.0696384       0.0498826 
        4.66532       0.0695522       0.0494567 
        4.68103       0.0695087        0.049036 
        4.69673       0.0693552       0.0486206 
        4.71241         0.06966       0.0482104 
        4.72811        0.069375       0.0478042 
        4.74384       0.0692039       0.0474023 
        4.75955       0.0692992       0.0470055 
        4.77525       0.0695271       0.0466135 
        4.79096        0.069563       0.0462255 
        4.80669       0.0693799       0.0458417 
         4.8224       0.0697794       0.0454627 
        4.83809       0.0698626       0.0450884 
        4.85379       0.0700172       0.0447181 
         4.8695       0.0702897       0.0443516 
        4.88521       0.0705025       0.0439894 
        4.90093       0.0709906       0.0436312 
        4.91663       0.0710981       0.0432773 
        4.93234       0.0712834       0.0429269 
        4.94807       0.0716476       0.0425802 
        4.96377       0.0720588       0.0422379 
        4.97943       0.0727871       0.0419002 
        4.99514        0.072923       0.0415652 
        5.01086       0.0731449       0.0412337 
        5.02654       0.0739931       0.0409066 
        5.04227       0.0743942       0.0405821 
          5.058       0.0747114        0.040261 
        5.07371       0.0753667       0.0399439 
        5.08942       0.0762122       0.0396303 
        5.10513       0.0768266       0.0393199 
        5.12084       0.0773669       0.0390128 
        5.13656       0.0779246        0.038709 
        5.15225       0.0788814       0.0384089 
        5.16796        0.079604       0.0381115 
        5.18369       0.0802641        0.037817 
         5.1994       0.0810257       0.0375261 
        5.21509       0.0819811       0.0372386 
        5.23079       0.0827296       0.0369537 
        5.24649        0.083707       0.0366721 
        5.26217       0.0846787       0.0363935 
        5.27788       0.0856748       0.0361175 
        5.29359       0.0866805       0.0358443 
        5.30933       0.0876338       0.0355735 
        5.32504       0.0887882       0.0353059 
        5.34073       0.0895493       0.0350414 
        5.35646       0.0909996       0.0347791 
        5.37218       0.0921919       0.0345194 
        5.38789       0.0934324       0.0342627 
        5.40357       0.0943447        0.034009 
        5.41929       0.0956143       0.0337573 
        5.43502       0.0973883       0.0335081 
         5.4507       0.0987779        0.033262 
        5.46639       0.0999214       0.0330184 
        5.48212        0.101252       0.0327766 
        5.49786        0.103013       0.0325369 
        5.51353        0.105187       0.0323008 
        5.52921        0.105683       0.0320669 
        5.54495        0.108237       0.0318345 
        5.56066        0.109567       0.0316047 
        5.57637        0.111154       0.0313772 
        5.59207        0.112352       0.0311522 
        5.60778        0.114609       0.0309292 
        5.62346        0.116204       0.0307088 
        5.63916         0.11817       0.0304903 
        5.65487        0.120625       0.0302738 
         5.6706        0.121741       0.0300592 
        5.68633        0.124363       0.0298465 
        5.70203        0.126431       0.0296364 
        5.71773        0.128658       0.0294283 
        5.73344        0.131092       0.0292221 
        5.74916        0.133529       0.0290176 
        5.76486        0.135496       0.0288155 
        5.78054         0.13744       0.0286155 
        5.79626        0.140439       0.0284169 
          5.812        0.142244       0.0282199 
         5.8277        0.144764       0.0280255 
        5.84339        0.147517       0.0278328 
        5.85911        0.149686       0.0276416 
        5.87484        0.152384       0.0274522 
        5.89053        0.154616       0.0272649 
        5.90623        0.159115       0.0270794 
        5.92195        0.160531       0.0268952 
        5.93767        0.163423       0.0267128 
        5.95336        0.166531       0.0265324 
        5.96905        0.169793       0.0263538 
        5.98476        0.171817       0.0261765 
        6.00048        0.175595       0.0260009 
        6.01617        0.178457        0.025827 
        6.03185        0.181499        0.025655 
        6.04756        0.184273       0.0254841 
        6.06331        0.188878       0.0253144 
        6.07903        0.192274       0.0251466 
        6.09473        0.194297       0.0249805 
        6.11044        0.199938       0.0248157 
        6.12616        0.200458       0.0246525 
        6.14186        0.205028       0.0244909 
        6.15755         0.20911       0.0243307 
        6.17326        0.213129       0.0241718 
        6.18898        0.215855       0.0240143 
        6.20467        0.219532       0.0238585 
        6.22036        0.222773        0.023704 
         6.2361         0.22511       0.0235506 
         6.2518        0.230389       0.0233987 
        6.26748        0.235065       0.0232485 
        6.28319        0.239575       0.0230992 
        6.29893        0.243685        0.022951 
        6.31463        0.247406       0.0228045 
        6.33033        0.250044       0.0226592 
        6.34604         0.25544       0.0225151 
        6.36177           0.259       0.0223721 
        6.37747        0.263002       0.0222307 
