# k  (h/Mpc)    Pcb(k)  (Mpc/h)^3    Pcb_linear(k) (Mpc/h)^3   ShotnoiseSubtracted = true
      0.0200456         24895.6         25520.3 
      0.0350414         17620.3         18552.4 
      0.0492313         13144.2         13479.8 
      0.0637834         11418.1         11205.6 
      0.0800726         9001.57         8893.64 
       0.096163         6231.68         6453.11 
       0.111083         5031.38         5147.17 
       0.126058         4625.16         4561.44 
       0.142273         4007.96         3864.54 
       0.158546         3550.22         3052.18 
        0.17375         2847.75         2571.46 
       0.188953         2790.25          2328.4 
       0.204907         2620.96         2060.16 
       0.220756         2280.75         1743.02 
        0.23588         2049.88         1516.27 
         0.2514         1790.32         1377.52 
       0.267535         1795.57         1246.42 
       0.283568         1629.08         1099.17 
       0.299022         1546.94         979.307 
       0.314451         1474.07          895.02 
       0.330372         1349.44          821.08 
       0.346141         1312.46         745.255 
       0.361624         1261.67         677.335 
       0.377134         1178.78         623.255 
       0.392932         1128.01         576.686 
       0.408854         1112.79         531.593 
       0.424564          1025.2         489.977 
       0.440253         1005.86         454.265 
       0.455999         982.083         423.213 
       0.471626         947.117         394.676 
        0.48727          909.12         367.981 
       0.502856         880.172             344 
       0.518488          876.46         322.602 
       0.534347         823.067          302.71 
       0.550082         808.253         284.368 
       0.565732          799.82         267.588 
       0.581496         760.162          252.22 
       0.597222         742.806         238.126 
       0.612804         732.974         225.165 
       0.628434         713.429         213.085 
       0.644267         695.434         201.791 
       0.660051         679.146         191.382 
       0.675724         670.678         181.771 
       0.691403         650.415         172.811 
       0.707174         629.351         164.405 
       0.722871         619.466         156.592 
        0.73838          608.27          149.37 
       0.754018         597.859         142.549 
       0.769845         588.169         136.079 
        0.78569         577.729         130.006 
       0.801365         562.535         124.364 
       0.817031         551.053         119.062 
       0.832809         544.746         114.037 
       0.848511         533.286         109.325 
       0.864097         516.326         104.914 
       0.879701         509.421         100.743 
       0.895507         508.171         96.7506 
       0.911279         495.791         92.9839 
        0.92691         488.716         89.4498 
       0.942635         475.471         86.0807 
       0.958396         464.563         82.8788 
       0.974128         459.402         79.8463 
       0.989692         456.837         76.9961 
        1.00528         442.228         74.2814 
        1.02113         439.989         71.6556 
        1.03692         429.519          69.167 
        1.05264         424.586         66.8084 
        1.06832         413.936          64.564 
        1.08405         408.948         62.4171 
        1.09979         403.011          60.367 
        1.11537         396.068         58.4296 
        1.13105         390.113         56.5661 
        1.14679         379.246         54.7769 
        1.16256         371.951         53.0619 
        1.17828           371.6         51.4263 
        1.19395         363.484         49.8654 
         1.2097         354.724         48.3615 
        1.22537         349.121         46.9272 
          1.241         343.914         45.5555 
        1.25666          340.45         44.2355 
        1.27241         334.412         42.9618 
        1.28819         328.129         41.7362 
        1.30392         322.309         40.5622 
        1.31957         318.886         39.4387 
        1.33529         315.463         38.3537 
        1.35108         308.382         37.3054 
        1.36674         303.048          36.304 
         1.3824         300.267         35.3403 
        1.39811         295.004         34.4084 
        1.41389          291.75         33.5068 
        1.42964         287.665          32.639 
        1.44531         284.391         31.8063 
        1.46101          277.71          31.001 
        1.47667         274.384          30.226 
        1.49229         271.292         29.4796 
        1.50793         264.659         28.7577 
        1.52367         263.387         28.0554 
        1.53953         258.309         27.3718 
        1.55526         255.073         26.7166 
        1.57092         252.261         26.0856 
        1.58662          249.33         25.4735 
        1.60235         244.977         24.8799 
        1.61809         241.526         24.3049 
        1.63369         239.112         23.7533 
        1.64941         234.516         23.2149 
        1.66519         232.499         22.6913 
        1.68085         229.642         22.1876 
        1.69652         226.216          21.699 
        1.71228         220.422         21.2224 
        1.72806         218.002         20.7598 
        1.74368          214.94         20.3157 
        1.75933          212.49         19.8837 
        1.77505         210.324         19.4622 
        1.79081         207.585         19.0522 
         1.8065         202.991         18.6559 
        1.82218         200.833         18.2711 
        1.83797         200.031         17.8946 
        1.85367         196.436         17.5309 
        1.86928         192.882         17.1794 
        1.88497         190.919         16.8357 
        1.90073         188.154         16.5001 
        1.91647         187.021         16.1739 
        1.93218         183.631         15.8573 
        1.94787         179.986         15.5497 
        1.96363         178.016          15.249 
        1.97935         175.863         14.9569 
        1.99499          174.06         14.6741 
        2.01064         171.568         14.3982 
         2.0264         170.313         14.1277 
        2.04216         167.853         13.8643 
        2.05781         165.373         13.6092 
        2.07353         163.744         13.3597 
        2.08928         160.518         13.1159 
        2.10499         159.519         12.8789 
        2.12065         157.201         12.6484 
        2.13633         154.632         12.4234 
        2.15211         152.754         12.2024 
        2.16785          151.51         11.9874 
        2.18349         149.723         11.7789 
        2.19916         147.616         11.5749 
        2.21489         146.165         11.3752 
        2.23063          143.99           11.18 
         2.2463         141.988         10.9902 
        2.26194         139.795         10.8054 
        2.27765         138.641         10.6238 
        2.29341         136.997          10.446 
        2.30914         135.616         10.2726 
        2.32486         133.637         10.1032 
        2.34061         132.056         9.93738 
        2.35635         130.363         9.77543 
        2.37203         129.101         9.61765 
        2.38768         127.099         9.46368 
        2.40339         125.828         9.31253 
        2.41914         124.318         9.16433 
        2.43483         122.782         9.01988 
         2.4505         121.568         8.87878 
        2.46622         120.002         8.74023 
        2.48195         118.059         8.60462 
        2.49759         117.001         8.47262 
        2.51328         116.056         8.34304 
        2.52906         114.388         8.21536 
        2.54479         112.979         8.09082 
        2.56049         111.194         7.96911 
        2.57618         110.499         7.85001 
        2.59189         109.542         7.73316 
        2.60758         108.193         7.61888 
        2.62325         106.553         7.50705 
        2.63898         105.342         7.39708 
        2.65468         104.103         7.28954 
        2.67044         103.104         7.18367 
        2.68618         102.246         7.08016 
        2.70184         101.226          6.9791 
        2.71755         99.6174         6.87976 
        2.73329         98.7291          6.7822 
        2.74897         97.6795         6.68686 
        2.76462         96.6482         6.59355 
        2.78034         95.3484         6.50165 
        2.79607          94.175          6.4114 
        2.81179         93.5733         6.32296 
        2.82749         92.4643          6.2363 
        2.84321         91.2268         6.15116 
        2.85893         90.3201         6.06764 
        2.87462         89.3884         5.98581 
        2.89033         88.3247         5.90541 
        2.90605         87.4384         5.82643 
        2.92176          86.383         5.74893 
        2.93747         85.5592         5.67288 
        2.95318         84.7848         5.59818 
        2.96891         84.0229          5.5248 
        2.98456         82.9135         5.45306 
        3.00023         82.0545         5.38249 
        3.01596         80.9285         5.31295 
        3.03164          80.249         5.24483 
        3.04738         79.1943         5.17772 
         3.0631         78.4513         5.11179 
        3.07883         77.6536         5.04702 
        3.09456         77.1005         4.98337 
        3.11026         76.1735         4.92092 
        3.12596         75.2788         4.85955 
        3.14163         74.7297         4.79937 
        3.15734         73.8192         4.74007 
        3.17308          72.996         4.68162 
        3.18879         72.3985         4.62432 
        3.20447         71.4348         4.56806 
         3.2202         70.8955         4.51257 
         3.2359         69.9793         4.45809 
        3.25157         69.5973         4.40464 
        3.26729         68.7501         4.35191 
        3.28304         68.2327         4.29994 
        3.29877         67.3523         4.24888 
        3.31446         66.5569         4.19877 
        3.33014         65.8533         4.14951 
        3.34585         65.1088         4.10096 
        3.36158         64.6931         4.05311 
        3.37727          64.126         4.00618 
        3.39294         63.1731         3.96004 
        3.40867         62.7831         3.91445 
        3.42439         62.2205         3.86961 
        3.44008         61.4351         3.82556 
        3.45578         60.8686         3.78216 
        3.47153          60.229         3.73934 
        3.48724         59.8503         3.69725 
        3.50292          59.316         3.65592 
        3.51859           58.57         3.61523 
        3.53431         58.1199         3.57504 
        3.55007         57.6463         3.53535 
        3.56577         57.1622         3.49643 
        3.58146         56.5573         3.45811 
        3.59719          55.964         3.42028 
        3.61292         55.4372         3.38302 
        3.62859         54.8217         3.34646 
        3.64429         54.4509         3.31037 
        3.66003         53.9878          3.2747 
        3.67578         53.3148         3.23957 
        3.69146         52.8848         3.20509 
        3.70712         52.3865         3.17117 
        3.72284         51.9385         3.13762 
        3.73853         51.4023         3.10461 
        3.75422         50.7879         3.07206 
        3.76993         50.3868         3.03996 
        3.78564         49.9468         3.00832 
        3.80137         49.5103         2.97708 
        3.81707         48.9503         2.94635 
        3.83279         48.5606         2.91603 
        3.84853         48.1902         2.88609 
        3.86424         47.7913         2.85662 
        3.87992          47.286         2.82761 
        3.89561         46.9463         2.79901 
        3.91134         46.5271         2.77073 
        3.92704         45.9563         2.74289 
        3.94273         45.5747         2.71545 
        3.95845         45.2189         2.68834 
        3.97418         44.8336         2.66159 
        3.98988         44.2987         2.63524 
        4.00554         44.0459         2.60932 
        4.02125         43.5422         2.58367 
        4.03698         43.1621         2.55833 
        4.05268         42.7855         2.53339 
        4.06839         42.3279         2.50876 
         4.0841         42.0669         2.48446 
        4.09983         41.8249         2.46046 
        4.11555         41.2557         2.43678 
        4.13124         40.9163         2.41347 
        4.14693          40.679         2.39045 
        4.16266         40.2935         2.36768 
        4.17839         39.9812         2.34522 
        4.19408         39.4343          2.3231 
        4.20977         39.2176         2.30125 
        4.22551         38.9021         2.27964 
        4.24123         38.5751         2.25832 
        4.25691         38.1943         2.23734 
        4.27259         37.7951         2.21661 
        4.28831         37.6345         2.19611 
        4.30404         37.2803         2.17584 
        4.31974         36.9265         2.15587 
        4.33543         36.5746         2.13617 
        4.35116         36.4123         2.11667 
        4.36688         36.0244         2.09741 
        4.38255         35.6497         2.07847 
        4.39825          35.351         2.05972 
        4.41398         35.0741         2.04116 
         4.4297         34.7913         2.02285 
        4.44541          34.529         2.00477 
        4.46111         34.2259         1.98693 
        4.47683         33.9224         1.96929 
        4.49251         33.6534         1.95189 
        4.50819         33.3661         1.93472 
         4.5239         33.1711         1.91772 
        4.53962         32.8512         1.90091 
        4.55535         32.5734         1.88429 
        4.57106         32.2717         1.86789 
        4.58678         31.9814         1.85169 
         4.6025         31.7206         1.83567 
        4.61821         31.4689         1.81985 
        4.63391         31.2198         1.80423 
         4.6496         30.9666          1.7888 
        4.66532         30.7517         1.77353 
        4.68103         30.4928         1.75844 
        4.69673         30.2225         1.74354 
        4.71241         30.0267         1.72884 
        4.72811         29.8165         1.71427 
        4.74384          29.539         1.69986 
        4.75955         29.2181         1.68563 
        4.77525         29.0871         1.67157 
        4.79096         28.8162         1.65766 
        4.80669         28.6008         1.64389 
         4.8224         28.3516          1.6303 
        4.83809         28.1494         1.61688 
        4.85379         27.9687          1.6036 
         4.8695         27.6981         1.59046 
        4.88521         27.4825         1.57747 
        4.90093         27.2684         1.56462 
        4.91663         27.0111         1.55193 
        4.93234         26.7756         1.53937 
        4.94807         26.6437         1.52693 
        4.96377         26.4432         1.51466 
        4.97943         26.2451         1.50255 
        4.99514         25.9858         1.49054 
        5.01086         25.8395         1.47865 
        5.02654         25.5882         1.46692 
        5.04227         25.3887         1.45528 
          5.058         25.3024         1.44377 
        5.07371         25.0101          1.4324 
        5.08942         24.7766         1.42115 
        5.10513         24.6242         1.41002 
        5.12084         24.4832         1.39901 
        5.13656         24.2735         1.38811 
        5.15225         24.0799         1.37735 
        5.16796         23.8838         1.36669 
        5.18369         23.7227         1.35613 
         5.1994         23.5209          1.3457 
        5.21509         23.3616         1.33538 
        5.23079         23.1237         1.32517 
        5.24649         23.0086         1.31507 
        5.26217         22.8243         1.30508 
        5.27788         22.6568         1.29518 
        5.29359         22.5152         1.28538 
        5.30933          22.283         1.27567 
        5.32504         22.1214         1.26608 
        5.34073         22.0025         1.25659 
        5.35646         21.8625         1.24719 
        5.37218         21.6725         1.23787 
        5.38789         21.5122         1.22867 
        5.40357         21.3561         1.21957 
        5.41929         21.1512         1.21054 
        5.43502          21.084         1.20161 
         5.4507         20.9138         1.19278 
        5.46639         20.7409         1.18405 
        5.48212         20.6234         1.17537 
        5.49786          20.429         1.16678 
        5.51353         20.2857         1.15831 
        5.52921         20.1237         1.14992 
        5.54495         19.9746         1.14159 
        5.56066         19.8587         1.13335 
        5.57637         19.6929         1.12519 
        5.59207         19.5548         1.11712 
        5.60778         19.4122         1.10913 
        5.62346          19.284         1.10122 
        5.63916         19.1349         1.09339 
        5.65487         19.0284         1.08563 
         5.6706         18.8579         1.07793 
        5.68633         18.7372          1.0703 
        5.70203         18.5816         1.06277 
        5.71773         18.4596          1.0553 
        5.73344         18.3771         1.04791 
        5.74916         18.1798         1.04058 
        5.76486         18.0782         1.03333 
        5.78054         18.0156         1.02616 
        5.79626         17.8459         1.01904 
          5.812         17.7072         1.01197 
         5.8277         17.5894           1.005 
        5.84339         17.5043         0.99809 
        5.85911          17.375        0.991233 
        5.87484         17.2066        0.984441 
        5.89053         17.1015        0.977727 
        5.90623         16.9856        0.971071 
        5.92195         16.8597        0.964467 
        5.93767          16.754        0.957927 
        5.95336         16.6328        0.951459 
        5.96905         16.5217        0.945052 
        5.98476         16.4099        0.938696 
        6.00048         16.2904        0.932396 
        6.01617         16.1587        0.926162 
        6.03185         16.0903        0.919993 
        6.04756         15.9213        0.913865 
        6.06331         15.8365         0.90778 
        6.07903         15.7501        0.901763 
        6.09473         15.6103        0.895806 
        6.11044         15.5023        0.889898 
        6.12616         15.3921        0.884043 
        6.14186         15.2993        0.878247 
        6.15755         15.2079        0.872504 
        6.17326           15.11        0.866807 
        6.18898         14.9914        0.861158 
        6.20467         14.8977         0.85557 
        6.22036         14.7866        0.850032 
         6.2361          14.682        0.844528 
         6.2518         14.6211        0.839081 
        6.26748         14.5149        0.833695 
        6.28319         14.3862        0.828341 
        6.29893         14.2999        0.823029 
        6.31463         14.2037        0.817773 
        6.33033         14.1268        0.812564 
        6.34604         14.0276        0.807397 
        6.36177         13.9294         0.80227 
        6.37747         13.8204        0.797197 
