# k  (h/Mpc)    Pcb(k)  (Mpc/h)^3    Pcb_linear(k) (Mpc/h)^3   ShotnoiseSubtracted = true
      0.0200456         20854.8         21343.2 
      0.0350414         14819.1         15515.8 
      0.0492313         11043.6         11273.5 
      0.0637834         9554.22         9371.52 
      0.0800726         7539.76         7437.94 
       0.096163         5228.11         5396.88 
       0.111083         4199.57         4304.69 
       0.126058         3868.22         3814.83 
       0.142273         3349.54            3232 
       0.158546         2924.19          2552.6 
        0.17375         2338.81         2150.57 
       0.188953         2286.19         1947.29 
       0.204907         2148.53         1722.95 
       0.220756         1860.68         1457.72 
        0.23588         1661.39         1268.09 
         0.2514         1446.02         1152.05 
       0.267535         1444.94         1042.41 
       0.283568         1310.11         919.262 
       0.299022         1238.61         819.015 
       0.314451         1180.63         748.524 
       0.330372         1083.95         686.687 
       0.346141         1033.19         623.273 
       0.361624         992.996          566.47 
       0.377134         924.126         521.242 
       0.392932         887.788         482.295 
       0.408854         869.509         444.583 
       0.424564         805.422         409.778 
       0.440253         791.668         379.912 
       0.455999         760.833         353.942 
       0.471626         732.139         330.076 
        0.48727         702.139          307.75 
       0.502856         682.941         287.694 
       0.518488         675.655         269.799 
       0.534347         632.909         253.163 
       0.550082         615.686         237.823 
       0.565732         613.624          223.79 
       0.581496         578.836         210.937 
       0.597222         568.339          199.15 
       0.612804         556.866         188.311 
       0.628434          540.59         178.208 
       0.644267         526.526         168.763 
       0.660051         510.265         160.057 
       0.675724         505.603         152.019 
       0.691403         488.662         144.526 
       0.707174         472.607         137.496 
       0.722871         467.293         130.961 
        0.73838         459.039         124.921 
       0.754018         447.968         119.217 
       0.769845         439.262         113.806 
        0.78569         432.208         108.727 
       0.801365         420.995         104.008 
       0.817031         408.633          99.574 
       0.832809         405.777         95.3713 
       0.848511         396.477         91.4312 
       0.864097         385.425         87.7419 
       0.879701         380.391         84.2536 
       0.895507         377.122         80.9146 
       0.911279         365.521         77.7644 
        0.92691         360.882         74.8088 
       0.942635         352.362         71.9911 
       0.958396         343.963         69.3133 
       0.974128         338.565         66.7772 
       0.989692         335.805         64.3935 
        1.00528         327.412         62.1231 
        1.02113         325.664         59.9271 
        1.03692         316.217         57.8458 
        1.05264         314.323         55.8733 
        1.06832         305.894         53.9963 
        1.08405         301.561         52.2008 
        1.09979         296.017         50.4862 
        1.11537         291.081          48.866 
        1.13105         285.617         47.3074 
        1.14679          279.97         45.8111 
        1.16256         274.916         44.3768 
        1.17828         273.291         43.0089 
        1.19395         266.456         41.7035 
         1.2097         264.113         40.4458 
        1.22537         258.176         39.2462 
          1.241         256.696         38.0991 
        1.25666         251.327         36.9951 
        1.27241         247.997         35.9299 
        1.28819         244.385         34.9049 
        1.30392         238.469          33.923 
        1.31957         238.698         32.9834 
        1.33529         233.515          32.076 
        1.35108         228.201         31.1993 
        1.36674         226.086         30.3618 
         1.3824         224.589         29.5558 
        1.39811          220.98         28.7765 
        1.41389         217.677         28.0224 
        1.42964          215.33         27.2967 
        1.44531         212.014         26.6003 
        1.46101         208.787         25.9268 
        1.47667         205.607         25.2786 
        1.49229         203.801         24.6544 
        1.50793         199.001         24.0507 
        1.52367         197.624         23.4633 
        1.53953         194.737         22.8917 
        1.55526         190.174         22.3437 
        1.57092         189.224         21.8159 
        1.58662         186.921          21.304 
        1.60235         183.465         20.8076 
        1.61809         182.213         20.3267 
        1.63369         178.733         19.8654 
        1.64941         175.104         19.4151 
        1.66519         174.416         18.9772 
        1.68085         171.923         18.5559 
        1.69652         169.298         18.1473 
        1.71228         165.974         17.7488 
        1.72806         164.402         17.3619 
        1.74368         162.347         16.9904 
        1.75933         159.413         16.6291 
        1.77505         158.299         16.2767 
        1.79081         156.795         15.9338 
         1.8065         154.378         15.6023 
        1.82218         152.182         15.2805 
        1.83797         150.965         14.9657 
        1.85367         148.599         14.6614 
        1.86928         146.035         14.3675 
        1.88497         144.304           14.08 
        1.90073         143.077         13.7994 
        1.91647         141.196         13.5266 
        1.93218         139.574         13.2618 
        1.94787          137.26         13.0045 
        1.96363         135.224         12.7531 
        1.97935          134.15         12.5088 
        1.99499         131.771         12.2723 
        2.01064         130.608         12.0415 
         2.0264         128.807         11.8153 
        2.04216         127.184          11.595 
        2.05781         126.098         11.3817 
        2.07353         124.741          11.173 
        2.08928         122.222         10.9691 
        2.10499         121.126         10.7709 
        2.12065         119.132         10.5781 
        2.13633         118.525         10.3899 
        2.15211         115.989         10.2051 
        2.16785         114.514         10.0253 
        2.18349         113.685         9.85094 
        2.19916         112.342         9.68037 
        2.21489         110.926         9.51329 
        2.23063         109.021         9.35004 
         2.2463         107.979         9.19136 
        2.26194         106.367         9.03676 
        2.27765         105.448         8.88493 
        2.29341         104.314          8.7362 
        2.30914         103.154         8.59117 
        2.32486         101.872         8.44953 
        2.34061          100.63         8.31085 
        2.35635         99.3352          8.1754 
        2.37203         98.0084         8.04345 
        2.38768         96.9602         7.91468 
        2.40339         95.9643         7.78827 
        2.41914           94.69         7.66432 
        2.43483         93.7721         7.54352 
         2.4505         92.5834         7.42552 
        2.46622         91.4687         7.30964 
        2.48195         90.2702         7.19623 
        2.49759         88.9775         7.08583 
        2.51328         88.7204         6.97746 
        2.52906         87.0334         6.87068 
        2.54479         86.1849         6.76653 
        2.56049         85.2275         6.66474 
        2.57618         84.2458         6.56513 
        2.59189         83.3041         6.46741 
        2.60758         82.5564         6.37184 
        2.62325         81.4184         6.27831 
        2.63898         80.1955         6.18633 
        2.65468         79.4681          6.0964 
        2.67044         78.6338         6.00786 
        2.68618         77.7343         5.92129 
        2.70184         77.3083         5.83677 
        2.71755         76.1337         5.75369 
        2.73329         75.3761          5.6721 
        2.74897         74.4525         5.59236 
        2.76462         73.4825         5.51433 
        2.78034         72.9269         5.43747 
        2.79607         71.5951         5.36199 
        2.81179         70.9799         5.28803 
        2.82749         70.1657         5.21555 
        2.84321         69.6894         5.14435 
        2.85893         68.8804          5.0745 
        2.87462         67.8893         5.00606 
        2.89033         67.1205         4.93883 
        2.90605         66.4835         4.87277 
        2.92176         65.7439         4.80795 
        2.93747         65.3367         4.74435 
        2.95318         64.4033         4.68188 
        2.96891          63.988         4.62051 
        2.98456         63.3006         4.56051 
        3.00023         62.3251         4.50149 
        3.01596         61.8621         4.44333 
        3.03164         60.9962         4.38637 
        3.04738         60.5734         4.33023 
         3.0631         59.8692          4.2751 
        3.07883         59.2764         4.22093 
        3.09456         58.6197          4.1677 
        3.11026         57.8986         4.11547 
        3.12596         57.3118         4.06415 
        3.14163         56.7929         4.01382 
        3.15734         56.3006         3.96422 
        3.17308         55.4617         3.91534 
        3.18879         55.2151         3.86742 
        3.20447         54.2905         3.82037 
         3.2202         54.0064         3.77396 
         3.2359         53.3152          3.7284 
        3.25157          52.761          3.6837 
        3.26729         52.3354          3.6396 
        3.28304         51.8416         3.59613 
        3.29877         51.2839         3.55343 
        3.31446         50.5281         3.51152 
        3.33014         50.2319         3.47032 
        3.34585         49.8318         3.42972 
        3.36158         49.2849         3.38971 
        3.37727         48.8951         3.35046 
        3.39294          48.395         3.31186 
        3.40867         47.8435         3.27374 
        3.42439         47.2864         3.23624 
        3.44008         46.9415          3.1994 
        3.45578         46.3779          3.1631 
        3.47153         45.9659         3.12729 
        3.48724         45.4695         3.09209 
        3.50292         45.1829         3.05752 
        3.51859         44.6592         3.02349 
        3.53431         44.2878         2.98988 
        3.55007         43.6835         2.95669 
        3.56577         43.4394         2.92414 
        3.58146         42.8996         2.89209 
        3.59719         42.5862         2.86045 
        3.61292         42.0102         2.82929 
        3.62859         41.7507         2.79872 
        3.64429         41.4005         2.76853 
        3.66003         40.9865          2.7387 
        3.67578         40.4619         2.70932 
        3.69146         40.1776         2.68049 
        3.70712          39.804         2.65212 
        3.72284         39.3162         2.62406 
        3.73853         39.0279         2.59645 
        3.75422         38.5171         2.56923 
        3.76993         38.3611         2.54238 
        3.78564         37.9932         2.51592 
        3.80137         37.6179          2.4898 
        3.81707         37.2798          2.4641 
        3.83279         37.0829         2.43874 
        3.84853         36.6086          2.4137 
        3.86424         36.2334         2.38906 
        3.87992         36.0441         2.36479 
        3.89561         35.6533         2.34087 
        3.91134         35.1906         2.31723 
        3.92704         35.0656         2.29394 
        3.94273         34.5927         2.27099 
        3.95845         34.4528         2.24831 
        3.97418         34.0836         2.22594 
        3.98988         33.8049         2.20391 
        4.00554         33.4585         2.18223 
        4.02125         33.1114         2.16078 
        4.03698         32.8504         2.13959 
        4.05268          32.578         2.11873 
        4.06839         32.2457         2.09813 
         4.0841         32.0032         2.07781 
        4.09983         31.7268         2.05773 
        4.11555         31.4309         2.03793 
        4.13124           31.22         2.01844 
        4.14693         30.8499         1.99919 
        4.16266         30.6201         1.98014 
        4.17839         30.2974         1.96136 
        4.19408         30.0731         1.94286 
        4.20977         29.8005         1.92459 
        4.22551         29.5101         1.90651 
        4.24123         29.3981         1.88868 
        4.25691         29.0963         1.87113 
        4.27259         28.8303          1.8538 
        4.28831         28.5565         1.83665 
        4.30404         28.3821          1.8197 
        4.31974         28.0374           1.803 
        4.33543         27.8204         1.78653 
        4.35116          27.703         1.77021 
        4.36688         27.3791         1.75411 
        4.38255          27.127         1.73827 
        4.39825         26.8901         1.72259 
        4.41398         26.7028         1.70707 
         4.4297         26.4814         1.69176 
        4.44541         26.2132         1.67663 
        4.46111         26.0254         1.66171 
        4.47683          25.854         1.64696 
        4.49251         25.5724         1.63241 
        4.50819         25.3956         1.61805 
         4.5239         25.1759         1.60383 
        4.53962         24.9752         1.58977 
        4.55535         24.7768         1.57587 
        4.57106         24.5486         1.56216 
        4.58678         24.3701         1.54861 
         4.6025         24.1618         1.53521 
        4.61821         23.9991         1.52198 
        4.63391         23.7874         1.50892 
         4.6496         23.5764         1.49601 
        4.66532         23.4141         1.48324 
        4.68103         23.1933         1.47062 
        4.69673           23.03         1.45816 
        4.71241         22.8771         1.44586 
        4.72811         22.6511         1.43368 
        4.74384         22.4857         1.42163 
        4.75955         22.3431         1.40973 
        4.77525         22.1023         1.39797 
        4.79096         21.9621         1.38633 
        4.80669         21.7775         1.37482 
         4.8224         21.6206         1.36346 
        4.83809         21.4367         1.35223 
        4.85379         21.1874         1.34113 
         4.8695          21.108         1.33013 
        4.88521         20.9296         1.31927 
        4.90093         20.6961         1.30853 
        4.91663         20.5472         1.29791 
        4.93234         20.4471         1.28741 
        4.94807          20.218         1.27701 
        4.96377         20.1298         1.26674 
        4.97943         20.0041         1.25661 
        4.99514         19.7905         1.24657 
        5.01086         19.6658         1.23663 
        5.02654         19.4697         1.22682 
        5.04227         19.3764         1.21708 
          5.058         19.1682         1.20745 
        5.07371         19.0426         1.19795 
        5.08942         18.8939         1.18854 
        5.10513         18.7737         1.17923 
        5.12084         18.6134         1.17002 
        5.13656         18.4095         1.16091 
        5.15225         18.3585         1.15191 
        5.16796         18.2347         1.14299 
        5.18369         18.0364         1.13416 
         5.1994         17.9718         1.12543 
        5.21509         17.7369         1.11681 
        5.23079         17.6582         1.10827 
        5.24649         17.5315         1.09982 
        5.26217         17.3952         1.09147 
        5.27788          17.244         1.08319 
        5.29359         17.1387         1.07499 
        5.30933         16.9682         1.06687 
        5.32504         16.8655         1.05885 
        5.34073          16.741         1.05091 
        5.35646         16.6412         1.04305 
        5.37218         16.4862         1.03526 
        5.38789         16.3694         1.02756 
        5.40357         16.2434         1.01995 
        5.41929         16.1718          1.0124 
        5.43502         16.0272         1.00493 
         5.4507         15.9207         0.99755 
        5.46639         15.8015        0.990242 
        5.48212         15.6662        0.982991 
        5.49786         15.5293        0.975803 
        5.51353         15.4418        0.968723 
        5.52921         15.3553        0.961706 
        5.54495         15.2608        0.954738 
        5.56066         15.1266        0.947847 
        5.57637         15.0166        0.941024 
        5.59207         14.8821        0.934275 
        5.60778         14.8161        0.927589 
        5.62346         14.7085        0.920978 
        5.63916         14.5848        0.914424 
        5.65487         14.4772        0.907932 
         5.6706         14.3635        0.901494 
        5.68633         14.2763        0.895117 
        5.70203         14.1775        0.888814 
        5.71773         14.0975        0.882574 
        5.73344         13.9821        0.876389 
        5.74916           13.89        0.870258 
        5.76486         13.7864        0.864195 
        5.78054         13.6892        0.858198 
        5.79626         13.5964        0.852241 
          5.812          13.479        0.846335 
         5.8277         13.3847        0.840502 
        5.84339          13.304        0.834724 
        5.85911         13.2123        0.828989 
        5.87484         13.1079        0.823309 
        5.89053         13.0231        0.817694 
        5.90623         12.9436        0.812128 
        5.92195         12.8443        0.806604 
        5.93767         12.7483        0.801135 
        5.95336         12.6555        0.795725 
        5.96905         12.5924        0.790368 
        5.98476         12.4899        0.785052 
        6.00048         12.3999        0.779783 
        6.01617          12.327        0.774569 
        6.03185         12.2416         0.76941 
        6.04756          12.171        0.764285 
        6.06331         12.0706        0.759196 
        6.07903         11.9895        0.754164 
        6.09473         11.8986        0.749182 
        6.11044         11.8324         0.74424 
        6.12616         11.7516        0.739344 
        6.14186         11.6826        0.734497 
        6.15755           11.59        0.729694 
        6.17326         11.4962        0.724929 
        6.18898         11.4531        0.720205 
        6.20467         11.3705        0.715532 
        6.22036         11.2706          0.7109 
         6.2361         11.2141        0.706297 
         6.2518         11.1525        0.701742 
        6.26748         11.0739        0.697237 
        6.28319         10.9818        0.692759 
        6.29893         10.9092        0.688317 
        6.31463         10.8334        0.683921 
        6.33033         10.7597        0.679565 
        6.34604         10.7203        0.675243 
        6.36177         10.6155        0.670956 
        6.37747         10.5617        0.666713 
