# k  (h/Mpc)    Pcb(k)  (Mpc/h)^3    Pcb_linear(k) (Mpc/h)^3   ShotnoiseSubtracted = true
      0.0200456         231.098         234.082 
      0.0350414         171.501          170.17 
      0.0492313         124.162         123.642 
      0.0637834         102.303         102.783 
      0.0800726         81.0352          81.576 
       0.096163         59.7943         59.1905 
       0.111083         47.8085         47.2119 
       0.126058         41.6885         41.8393 
       0.142273         35.2325         35.4471 
       0.158546         28.0883         27.9958 
        0.17375         23.7998         23.5864 
       0.188953         21.3795          21.357 
       0.204907          18.658         18.8966 
       0.220756         16.0101         15.9876 
        0.23588         13.9348         13.9079 
         0.2514         12.6486         12.6351 
       0.267535         11.4572         11.4326 
       0.283568         10.1071         10.0821 
       0.299022         9.02015         8.98259 
       0.314451         8.32072         8.20948 
       0.330372         7.57439         7.53127 
       0.346141         6.87881         6.83578 
       0.361624         6.24171         6.21278 
       0.377134         5.72689         5.71674 
       0.392932         5.39349         5.28959 
       0.408854         4.89605         4.87598 
       0.424564         4.57515         4.49426 
       0.440253         4.20873          4.1667 
       0.455999         3.88798         3.88187 
       0.471626         3.62683         3.62012 
        0.48727         3.42761         3.37527 
       0.502856         3.20885          3.1553 
       0.518488         2.96762         2.95903 
       0.534347         2.77246         2.77658 
       0.550082         2.63842         2.60834 
       0.565732         2.50621         2.45443 
       0.581496         2.34376         2.31346 
       0.597222         2.20983         2.18418 
       0.612804         2.08558         2.06531 
       0.628434         1.97647          1.9545 
       0.644267         1.88048         1.85091 
       0.660051         1.78376         1.75544 
       0.675724         1.68242         1.66728 
       0.691403          1.6023          1.5851 
       0.707174         1.52397         1.50799 
       0.722871         1.47556         1.43632 
        0.73838         1.38225         1.37008 
       0.754018         1.31889         1.30751 
       0.769845         1.24966         1.24817 
        0.78569         1.20712         1.19247 
       0.801365         1.15691         1.14072 
       0.817031         1.10975         1.09208 
       0.832809         1.05493         1.04599 
       0.848511         1.01497         1.00278 
       0.864097        0.978314        0.962313 
       0.879701        0.944267        0.924055 
       0.895507        0.895207        0.887435 
       0.911279        0.867189        0.852885 
        0.92691        0.840026        0.820469 
       0.942635        0.797705        0.789566 
       0.958396        0.771099        0.760197 
       0.974128        0.743695        0.732382 
       0.989692        0.716738        0.706238 
        1.00528         0.68762        0.681338 
        1.02113        0.670258        0.657253 
        1.03692        0.648673        0.634427 
        1.05264        0.620661        0.612793 
        1.06832        0.601811        0.592207 
        1.08405        0.578624        0.572515 
        1.09979        0.562498         0.55371 
        1.11537        0.540931         0.53594 
        1.13105         0.52111        0.518846 
        1.14679        0.508469        0.502435 
        1.16256        0.493576        0.486705 
        1.17828        0.479161        0.471702 
        1.19395        0.464217        0.457385 
         1.2097        0.448532        0.443591 
        1.22537        0.433525        0.430435 
          1.241        0.421713        0.417853 
        1.25666        0.411884        0.405746 
        1.27241        0.397993        0.394062 
        1.28819        0.385511        0.382821 
        1.30392        0.376323        0.372052 
        1.31957        0.364738        0.361747 
        1.33529        0.355383        0.351796 
        1.35108         0.34427         0.34218 
        1.36674        0.335293        0.332994 
         1.3824        0.327367        0.324155 
        1.39811        0.316616        0.315608 
        1.41389        0.310164        0.307337 
        1.42964        0.301519        0.299378 
        1.44531        0.292814         0.29174 
        1.46101        0.284401        0.284353 
        1.47667        0.278122        0.277244 
        1.49229        0.270567        0.270399 
        1.50793        0.264658        0.263777 
        1.52367         0.25693        0.257335 
        1.53953        0.250212        0.251065 
        1.55526        0.244549        0.245055 
        1.57092        0.240551        0.239267 
        1.58662        0.234134        0.233653 
        1.60235        0.228331        0.228208 
        1.61809        0.222064        0.222934 
        1.63369        0.216557        0.217875 
        1.64941        0.212226        0.212936 
        1.66519        0.207743        0.208133 
        1.68085        0.201952        0.203513 
        1.69652        0.197925        0.199032 
        1.71228        0.192799        0.194661 
        1.72806        0.189344        0.190417 
        1.74368        0.184656        0.186343 
        1.75933        0.181117        0.182381 
        1.77505        0.177469        0.178515 
        1.79081        0.172511        0.174755 
         1.8065        0.169684        0.171119 
        1.82218        0.165016         0.16759 
        1.83797         0.16131        0.164137 
        1.85367        0.158343          0.1608 
        1.86928        0.154423        0.157576 
        1.88497        0.151361        0.154423 
        1.90073        0.148089        0.151345 
        1.91647        0.145905        0.148354 
        1.93218        0.143575         0.14545 
        1.94787        0.139233        0.142628 
        1.96363         0.13679         0.13987 
        1.97935        0.133915        0.137191 
        1.99499        0.131178        0.134597 
        2.01064        0.128753        0.132066 
         2.0264        0.126583        0.129585 
        2.04216        0.123479        0.127169 
        2.05781        0.121043        0.124829 
        2.07353        0.119092        0.122541 
        2.08928        0.117049        0.120304 
        2.10499        0.114276         0.11813 
        2.12065        0.112371        0.116016 
        2.13633        0.110284        0.113952 
        2.15211        0.108475        0.111925 
        2.16785        0.105821        0.109953 
        2.18349        0.104156        0.108041 
        2.19916        0.101869         0.10617 
        2.21489        0.099971        0.104337 
        2.23063       0.0984501        0.102547 
         2.2463       0.0967628        0.100807 
        2.26194       0.0950656       0.0991111 
        2.27765       0.0933342       0.0974459 
        2.29341       0.0913405       0.0958146 
        2.30914       0.0897893       0.0942241 
        2.32486       0.0881457       0.0926706 
        2.34061        0.086609       0.0911496 
        2.35635       0.0851981       0.0896641 
        2.37203       0.0844172       0.0882169 
        2.38768       0.0825772       0.0868046 
        2.40339       0.0811158       0.0854182 
        2.41914       0.0795176       0.0840588 
        2.43483       0.0785083       0.0827339 
         2.4505       0.0769368       0.0814397 
        2.46622       0.0756754       0.0801688 
        2.48195       0.0744478        0.078925 
        2.49759       0.0732565       0.0777142 
        2.51328       0.0714721       0.0765257 
        2.52906       0.0707894       0.0753545 
        2.54479       0.0695828       0.0742122 
        2.56049       0.0682968       0.0730958 
        2.57618       0.0675292       0.0720034 
        2.59189       0.0660247       0.0709316 
        2.60758       0.0653562       0.0698834 
        2.62325       0.0640174       0.0688576 
        2.63898       0.0632755       0.0678489 
        2.65468       0.0620218       0.0668625 
        2.67044       0.0611153       0.0658915 
        2.68618       0.0601299        0.064942 
        2.70184       0.0594238        0.064015 
        2.71755       0.0583901       0.0631039 
        2.73329       0.0574842        0.062209 
        2.74897       0.0566893       0.0613345 
        2.76462       0.0556145       0.0604787 
        2.78034       0.0549482       0.0596357 
        2.79607       0.0542057       0.0588079 
        2.81179       0.0531753       0.0579967 
        2.82749       0.0525993       0.0572018 
        2.84321       0.0516739       0.0564209 
        2.85893       0.0508389       0.0556548 
        2.87462       0.0503105       0.0549042 
        2.89033       0.0494121       0.0541668 
        2.90605       0.0487681       0.0534423 
        2.92176        0.048226       0.0527314 
        2.93747       0.0473097       0.0520338 
        2.95318       0.0468574       0.0513487 
        2.96891       0.0461008       0.0506757 
        2.98456       0.0453954       0.0500176 
        3.00023       0.0449861       0.0493703 
        3.01596       0.0440259       0.0487325 
        3.03164       0.0435309       0.0481077 
        3.04738       0.0429442        0.047492 
         3.0631       0.0421191       0.0468874 
        3.07883       0.0417793       0.0462932 
        3.09456       0.0412511       0.0457095 
        3.11026       0.0405737       0.0451367 
        3.12596       0.0402895       0.0445737 
        3.14163       0.0395648       0.0440217 
        3.15734       0.0392067       0.0434777 
        3.17308       0.0386074       0.0429417 
        3.18879       0.0380601       0.0424161 
        3.20447        0.037465       0.0419001 
         3.2202       0.0371126        0.041391 
         3.2359        0.036684       0.0408914 
        3.25157       0.0361955       0.0404011 
        3.26729       0.0356993       0.0399175 
        3.28304        0.035369       0.0394407 
        3.29877       0.0348585       0.0389724 
        3.31446       0.0343519       0.0385128 
        3.33014       0.0340811       0.0380609 
        3.34585       0.0335748       0.0376156 
        3.36158        0.033163       0.0371768 
        3.37727       0.0327042       0.0367463 
        3.39294       0.0323536        0.036323 
        3.40867       0.0320906       0.0359049 
        3.42439       0.0316896       0.0354936 
        3.44008       0.0313584       0.0350895 
        3.45578       0.0310038       0.0346915 
        3.47153       0.0306802       0.0342987 
        3.48724       0.0302676       0.0339127 
        3.50292       0.0300854       0.0335335 
        3.51859       0.0296616       0.0331603 
        3.53431       0.0292282       0.0327916 
        3.55007       0.0290218       0.0324277 
        3.56577       0.0287027       0.0320707 
        3.58146       0.0283887       0.0317192 
        3.59719       0.0280982       0.0313721 
        3.61292       0.0277402       0.0310304 
        3.62859       0.0274219       0.0306951 
        3.64429       0.0272437        0.030364 
        3.66003       0.0269723       0.0300369 
        3.67578       0.0267284       0.0297146 
        3.69146       0.0264893       0.0293984 
        3.70712       0.0262127       0.0290872 
        3.72284       0.0258861       0.0287795 
        3.73853       0.0257417       0.0284767 
        3.75422       0.0253648       0.0281782 
        3.76993       0.0252115       0.0278837 
        3.78564        0.024943       0.0275935 
        3.80137       0.0247555        0.027307 
        3.81707       0.0244694       0.0270251 
        3.83279       0.0242279        0.026747 
        3.84853       0.0240049       0.0264723 
        3.86424       0.0238893       0.0262021 
        3.87992       0.0236814        0.025936 
        3.89561       0.0233456       0.0256736 
        3.91134       0.0232269       0.0254143 
        3.92704       0.0229302       0.0251588 
        3.94273       0.0227427       0.0249072 
        3.95845       0.0225527       0.0246585 
        3.97418       0.0223541       0.0244131 
        3.98988       0.0220404       0.0241715 
        4.00554       0.0219318       0.0239337 
        4.02125       0.0216163       0.0236985 
        4.03698       0.0213405        0.023466 
        4.05268       0.0211084       0.0232372 
        4.06839       0.0208005       0.0230113 
         4.0841       0.0204672       0.0227885 
        4.09983       0.0201463       0.0225683 
        4.11555        0.019909       0.0223511 
        4.13124       0.0196325       0.0221373 
        4.14693       0.0193866       0.0219262 
        4.16266       0.0191041       0.0217173 
        4.17839       0.0188613       0.0215113 
        4.19408       0.0186163       0.0213084 
        4.20977       0.0183868        0.021108 
        4.22551       0.0181827       0.0209097 
        4.24123       0.0179728       0.0207142 
        4.25691       0.0177918       0.0205217 
        4.27259       0.0175791       0.0203316 
        4.28831        0.017431       0.0201435 
        4.30404       0.0172152       0.0199577 
        4.31974        0.017062       0.0197745 
        4.33543       0.0168994       0.0195938 
        4.35116       0.0166941       0.0194149 
        4.36688       0.0166593       0.0192383 
        4.38255       0.0164379       0.0190645 
        4.39825       0.0164172       0.0188925 
        4.41398       0.0162837       0.0187223 
         4.4297       0.0161776       0.0185544 
        4.44541       0.0160515       0.0183886 
        4.46111       0.0158941       0.0182249 
        4.47683       0.0158936       0.0180631 
        4.49251       0.0157945       0.0179035 
        4.50819       0.0157782        0.017746 
         4.5239       0.0156403       0.0175901 
        4.53962       0.0156245       0.0174359 
        4.55535       0.0155382       0.0172835 
        4.57106       0.0155924       0.0171331 
        4.58678       0.0154859       0.0169844 
         4.6025       0.0154944       0.0168375 
        4.61821       0.0154988       0.0166924 
        4.63391       0.0154685       0.0165491 
         4.6496       0.0154417       0.0164076 
        4.66532       0.0154053       0.0162675 
        4.68103       0.0154808       0.0161291 
        4.69673       0.0154779       0.0159925 
        4.71241       0.0155636       0.0158576 
        4.72811       0.0155617        0.015724 
        4.74384       0.0155908       0.0155917 
        4.75955       0.0156515       0.0154612 
        4.77525       0.0157218       0.0153323 
        4.79096       0.0157756       0.0152047 
        4.80669        0.015889       0.0150784 
         4.8224       0.0159615       0.0149538 
        4.83809       0.0160428       0.0148307 
        4.85379        0.016196       0.0147089 
         4.8695       0.0162567       0.0145883 
        4.88521       0.0163256       0.0144692 
        4.90093       0.0164485       0.0143513 
        4.91663       0.0165719       0.0142349 
        4.93234       0.0167228       0.0141197 
        4.94807       0.0168877       0.0140056 
        4.96377       0.0170277       0.0138931 
        4.97943       0.0173004        0.013782 
        4.99514       0.0173707       0.0136718 
        5.01086       0.0175728       0.0135627 
        5.02654       0.0177688       0.0134552 
        5.04227       0.0179109       0.0133484 
          5.058        0.018149       0.0132428 
        5.07371       0.0182988       0.0131385 
        5.08942       0.0185749       0.0130353 
        5.10513       0.0188349       0.0129333 
        5.12084       0.0190874       0.0128322 
        5.13656       0.0193596       0.0127323 
        5.15225       0.0196251       0.0126336 
        5.16796       0.0198666       0.0125358 
        5.18369       0.0201084       0.0124389 
         5.1994       0.0204594       0.0123432 
        5.21509       0.0207515       0.0122487 
        5.23079       0.0211056        0.012155 
        5.24649       0.0214139       0.0120623 
        5.26217       0.0217399       0.0119707 
        5.27788       0.0221288       0.0118799 
        5.29359       0.0224282         0.01179 
        5.30933       0.0228248        0.011701 
        5.32504       0.0232166        0.011613 
        5.34073       0.0236769        0.011526 
        5.35646       0.0240611       0.0114397 
        5.37218       0.0244358       0.0113543 
        5.38789       0.0247591       0.0112698 
        5.40357       0.0254397       0.0111864 
        5.41929       0.0259084       0.0111036 
        5.43502        0.026305       0.0110216 
         5.4507         0.02677       0.0109407 
        5.46639       0.0273222       0.0108605 
        5.48212       0.0278576        0.010781 
        5.49786       0.0284401       0.0107022 
        5.51353       0.0291488       0.0106245 
        5.52921       0.0294501       0.0105476 
        5.54495       0.0302446       0.0104711 
        5.56066       0.0308776       0.0103956 
        5.57637       0.0314889       0.0103207 
        5.59207       0.0320663       0.0102467 
        5.60778       0.0326423       0.0101734 
        5.62346       0.0334379       0.0101009 
        5.63916       0.0341552        0.010029 
        5.65487       0.0349203      0.00995778 
         5.6706       0.0355866      0.00988718 
        5.68633        0.036464      0.00981724 
        5.70203       0.0371727      0.00974811 
        5.71773       0.0382002      0.00967967 
        5.73344       0.0387682      0.00961184 
        5.74916       0.0397744       0.0095446 
        5.76486       0.0408443      0.00947809 
        5.78054       0.0419115      0.00941232 
        5.79626       0.0424842      0.00934699 
          5.812       0.0437646      0.00928222 
         5.8277        0.044556      0.00921824 
        5.84339       0.0456893      0.00915487 
        5.85911       0.0468635      0.00909198 
        5.87484       0.0477308      0.00902968 
        5.89053       0.0492215      0.00896809 
        5.90623       0.0501299      0.00890705 
        5.92195       0.0515378      0.00884647 
        5.93767       0.0530378      0.00878648 
        5.95336       0.0536142      0.00872715 
        5.96905       0.0552426      0.00866839 
        5.98476       0.0562332      0.00861009 
        6.00048       0.0580133       0.0085523 
        6.01617       0.0594236      0.00849513 
        6.03185       0.0607141      0.00843854 
        6.04756        0.062409      0.00838233 
        6.06331       0.0643517      0.00832652 
        6.07903        0.065615      0.00827133 
        6.09473       0.0671079      0.00821669 
        6.11044       0.0690743      0.00816249 
        6.12616       0.0705495      0.00810879 
        6.14186       0.0725767      0.00805563 
        6.15755       0.0743548      0.00800295 
        6.17326       0.0762207       0.0079507 
        6.18898       0.0787136      0.00789888 
        6.20467       0.0806941      0.00784763 
        6.22036       0.0827651      0.00779683 
         6.2361        0.084931      0.00774634 
         6.2518       0.0875159      0.00769638 
        6.26748       0.0884733      0.00764698 
        6.28319        0.091813      0.00759787 
        6.29893       0.0935736      0.00754915 
        6.31463       0.0968469      0.00750093 
        6.33033       0.0991105      0.00745316 
        6.34604        0.102361      0.00740576 
        6.36177        0.103949      0.00735874 
        6.37747        0.106795       0.0073122 
