# k  (h/Mpc)    Pcb(k)  (Mpc/h)^3    Pcb_linear(k) (Mpc/h)^3   ShotnoiseSubtracted = true
      0.0200456         12039.9         12221.2 
      0.0350414         9121.46         8884.41 
      0.0492313         6391.02         6455.24 
      0.0637834         5170.48         5366.19 
      0.0800726         4072.56         4259.01 
       0.096163         3197.24         3090.28 
       0.111083         2598.26         2464.89 
       0.126058         2164.99         2184.39 
       0.142273         1868.21         1850.66 
       0.158546         1533.94         1461.63 
        0.17375          1342.9         1231.43 
       0.188953         1245.04         1115.03 
       0.204907         1063.69         986.572 
       0.220756         953.642           834.7 
        0.23588         847.532         726.117 
         0.2514         759.064          659.67 
       0.267535         735.904         596.888 
       0.283568         643.387         526.375 
       0.299022         613.263         468.973 
       0.314451         619.952         428.609 
       0.330372         532.908         393.201 
       0.346141         493.665          356.89 
       0.361624         471.545         324.364 
       0.377134         441.318         298.466 
       0.392932         427.892         276.165 
       0.408854         406.876         254.571 
       0.424564         393.197         234.641 
       0.440253         355.841          217.54 
       0.455999          340.55         202.669 
       0.471626         341.673         189.003 
        0.48727         324.141          176.22 
       0.502856         297.652         164.735 
       0.518488         298.712         154.489 
       0.534347         277.595         144.962 
       0.550082         269.542         136.179 
       0.565732         267.938         128.143 
       0.581496         253.938         120.784 
       0.597222          247.18         114.034 
       0.612804          240.43         107.828 
       0.628434         231.683         102.043 
       0.644267         221.454         96.6344 
       0.660051         217.587         91.6497 
       0.675724         215.105         87.0469 
       0.691403         209.317         82.7564 
       0.707174         202.049         78.7309 
       0.722871         198.924         74.9891 
        0.73838         197.089         71.5306 
       0.754018         186.479          68.264 
       0.769845         186.349          65.166 
        0.78569         181.516         62.2576 
       0.801365         176.411         59.5557 
       0.817031         172.292         57.0166 
       0.832809         169.447         54.6101 
       0.848511         165.325          52.354 
       0.864097         161.839         50.2415 
       0.879701         160.512         48.2441 
       0.895507         156.463         46.3322 
       0.911279         152.057         44.5283 
        0.92691         149.686         42.8359 
       0.942635         147.475         41.2225 
       0.958396         144.958         39.6892 
       0.974128         141.995          38.237 
       0.989692         138.218         36.8721 
        1.00528         137.066         35.5721 
        1.02113         133.681         34.3146 
        1.03692         132.395         33.1228 
        1.05264         130.664         31.9934 
        1.06832         127.909         30.9186 
        1.08405          125.87         29.8905 
        1.09979         125.066         28.9087 
        1.11537         121.987         27.9809 
        1.13105         120.772         27.0885 
        1.14679         118.662         26.2317 
        1.16256         116.529         25.4104 
        1.17828         115.326         24.6271 
        1.19395         112.505         23.8796 
         1.2097         111.824         23.1595 
        1.22537         109.595         22.4726 
          1.241         108.695         21.8157 
        1.25666          105.71         21.1836 
        1.27241         104.049         20.5736 
        1.28819         103.587         19.9867 
        1.30392         101.656         19.4245 
        1.31957         100.161         18.8865 
        1.33529         98.9864         18.3669 
        1.35108         98.2564         17.8649 
        1.36674         96.3141         17.3853 
         1.3824         95.9696         16.9238 
        1.39811          93.476         16.4776 
        1.41389         92.5656         16.0458 
        1.42964         90.8263         15.6302 
        1.44531         90.1537         15.2315 
        1.46101         88.9854         14.8458 
        1.47667         88.1954         14.4747 
        1.49229         87.2508         14.1173 
        1.50793         85.6649         13.7716 
        1.52367         84.9803         13.4352 
        1.53953         83.8435         13.1079 
        1.55526          82.413         12.7941 
        1.57092         82.1358         12.4919 
        1.58662         80.9699         12.1988 
        1.60235         79.6817         11.9145 
        1.61809         78.7907         11.6392 
        1.63369         77.5893          11.375 
        1.64941          77.602         11.1172 
        1.66519         75.7748         10.8664 
        1.68085         74.9955         10.6252 
        1.69652         73.6876         10.3913 
        1.71228          72.943          10.163 
        1.72806          72.573         9.94151 
        1.74368          71.345         9.72882 
        1.75933         70.6994         9.52193 
        1.77505         70.0648          9.3201 
        1.79081         68.8374         9.12378 
         1.8065         68.6214         8.93397 
        1.82218         66.9612         8.74973 
        1.83797          66.658         8.56943 
        1.85367         65.6822         8.39522 
        1.86928         65.0801         8.22691 
        1.88497         64.3495          8.0623 
        1.90073          63.483         7.90159 
        1.91647         62.7912         7.74542 
        1.93218         62.1876          7.5938 
        1.94787         61.3352         7.44648 
        1.96363         60.5727         7.30248 
        1.97935         59.9242         7.16259 
        1.99499          59.342         7.02717 
        2.01064          58.707         6.89505 
         2.0264         58.0578          6.7655 
        2.04216         57.3093         6.63936 
        2.05781         56.6148         6.51723 
        2.07353         55.9141         6.39773 
        2.08928         55.3732         6.28098 
        2.10499         54.8141         6.16746 
        2.12065         54.2769         6.05709 
        2.13633         53.8158         5.94933 
        2.15211         53.0123         5.84349 
        2.16785         52.2354         5.74053 
        2.18349         51.7144          5.6407 
        2.19916         51.1332         5.54304 
        2.21489         50.8475         5.44736 
        2.23063          50.024         5.35389 
         2.2463         49.6009         5.26302 
        2.26194         49.2932          5.1745 
        2.27765         48.5066         5.08756 
        2.29341         47.8323         5.00239 
        2.30914         47.3518         4.91935 
        2.32486         46.7764         4.83825 
        2.34061         46.4725         4.75884 
        2.35635         45.7397         4.68128 
        2.37203         45.3462         4.60572 
        2.38768         45.0258         4.53199 
        2.40339         44.5319          4.4596 
        2.41914           44.09         4.38863 
        2.43483         43.2819         4.31946 
         2.4505          43.126         4.25189 
        2.46622         42.6609         4.18554 
        2.48195         42.1218          4.1206 
        2.49759         41.6522         4.05739 
        2.51328         41.3022         3.99533 
        2.52906         40.8416         3.93419 
        2.54479         40.4846         3.87455 
        2.56049         39.8393         3.81627 
        2.57618         39.5937         3.75923 
        2.59189         39.1284         3.70328 
        2.60758         38.6014         3.64855 
        2.62325         38.5237         3.59499 
        2.63898         37.9531         3.54233 
        2.65468         37.5828         3.49083 
        2.67044         37.3034         3.44014 
        2.68618         36.9456         3.39056 
        2.70184         36.3661         3.34217 
        2.71755         36.1454          3.2946 
        2.73329         35.5553         3.24788 
        2.74897         35.3251         3.20222 
        2.76462         34.8617         3.15754 
        2.78034          34.638         3.11352 
        2.79607          34.182         3.07031 
        2.81179         33.9015         3.02796 
        2.82749         33.5608         2.98645 
        2.84321          33.144         2.94568 
        2.85893         32.8423         2.90568 
        2.87462         32.5519          2.8665 
        2.89033         32.2702           2.828 
        2.90605         31.9703         2.79017 
        2.92176         31.7578         2.75306 
        2.93747         31.3915         2.71664 
        2.95318         31.0332         2.68087 
        2.96891         30.7734         2.64573 
        2.98456         30.4592         2.61137 
        3.00023         30.0813         2.57758 
        3.01596         29.8543         2.54428 
        3.03164         29.4998         2.51166 
        3.04738         29.3089         2.47952 
         3.0631         29.0582         2.44795 
        3.07883         28.6404         2.41693 
        3.09456         28.3271         2.38645 
        3.11026         28.0682         2.35654 
        3.12596         27.7826         2.32715 
        3.14163         27.5235         2.29833 
        3.15734         27.2914         2.26993 
        3.17308         26.9596         2.24195 
        3.18879         26.7606         2.21451 
        3.20447         26.5168         2.18756 
         3.2202         26.1807         2.16099 
         3.2359         25.9491          2.1349 
        3.25157         25.7857         2.10931 
        3.26729         25.5479         2.08405 
        3.28304          25.166         2.05917 
        3.29877         24.9518         2.03472 
        3.31446         24.7491         2.01072 
        3.33014         24.5332         1.98713 
        3.34585         24.3187         1.96388 
        3.36158         24.0826         1.94096 
        3.37727         23.8133         1.91849 
        3.39294         23.6287         1.89639 
        3.40867         23.4184         1.87456 
        3.42439         23.1912         1.85309 
        3.44008         22.9338         1.83199 
        3.45578         22.8224         1.81121 
        3.47153         22.5155          1.7907 
        3.48724         22.3594         1.77055 
        3.50292         22.1334         1.75075 
        3.51859         21.9526         1.73127 
        3.53431         21.7549         1.71202 
        3.55007         21.5392         1.69302 
        3.56577          21.376         1.67438 
        3.58146         21.1406         1.65603 
        3.59719         20.9214         1.63791 
        3.61292         20.7582         1.62007 
        3.62859         20.5322         1.60256 
        3.64429         20.3064         1.58528 
        3.66003         20.2655          1.5682 
        3.67578         20.0529         1.55137 
        3.69146         19.7916         1.53486 
        3.70712         19.6634         1.51862 
        3.72284         19.4643         1.50255 
        3.73853         19.3083         1.48674 
        3.75422         19.1238         1.47116 
        3.76993         18.9703         1.45578 
        3.78564         18.8142         1.44063 
        3.80137         18.6392         1.42567 
        3.81707         18.4704         1.41096 
        3.83279         18.2685         1.39644 
        3.84853         18.1151          1.3821 
        3.86424          17.949         1.36799 
        3.87992         17.7824         1.35409 
        3.89561         17.6645         1.34039 
        3.91134          17.472         1.32686 
        3.92704         17.3464         1.31352 
        3.94273         17.2111         1.30038 
        3.95845         17.0362          1.2874 
        3.97418         16.8639         1.27459 
        3.98988         16.7283         1.26197 
        4.00554         16.6556         1.24956 
        4.02125         16.4088         1.23728 
        4.03698         16.2436         1.22514 
        4.05268         16.1807          1.2132 
        4.06839         16.0309          1.2014 
         4.0841         15.8862         1.18977 
        4.09983         15.7001         1.17827 
        4.11555         15.6127         1.16693 
        4.13124          15.501         1.15577 
        4.14693         15.3882         1.14475 
        4.16266         15.2486         1.13384 
        4.17839         15.0822         1.12308 
        4.19408         14.9439         1.11249 
        4.20977         14.8493         1.10203 
        4.22551         14.7119         1.09168 
        4.24123         14.5723         1.08147 
        4.25691         14.4327         1.07142 
        4.27259         14.3385          1.0615 
        4.28831         14.2663         1.05168 
        4.30404         14.1173         1.04197 
        4.31974         14.0027         1.03241 
        4.33543         13.8609         1.02297 
        4.35116         13.7502         1.01363 
        4.36688         13.6292         1.00441 
        4.38255         13.5384        0.995342 
        4.39825          13.408        0.986363 
        4.41398         13.3226        0.977476 
         4.4297         13.1819        0.968709 
        4.44541         13.0842         0.96005 
        4.46111         12.9994        0.951504 
        4.47683         12.8736        0.943056 
        4.49251         12.7706        0.934728 
        4.50819          12.668        0.926502 
         4.5239         12.5805        0.918363 
        4.53962         12.4807        0.910312 
        4.55535         12.3598        0.902353 
        4.57106         12.2747        0.894501 
        4.58678         12.1834        0.886741 
         4.6025         12.0788        0.879071 
        4.61821         11.9792        0.871493 
        4.63391         11.8901        0.864014 
         4.6496         11.7898        0.856625 
        4.66532         11.7097        0.849312 
        4.68103         11.5961        0.842087 
        4.69673         11.4861        0.834953 
        4.71241         11.4295        0.827909 
        4.72811         11.3532        0.820934 
        4.74384         11.2198        0.814031 
        4.75955         11.1672        0.807217 
        4.77525         11.0833        0.800486 
        4.79096         11.0127        0.793822 
        4.80669         10.9074        0.787232 
         4.8224         10.8294        0.780723 
        4.83809           10.73        0.774295 
        4.85379         10.6485        0.767936 
         4.8695         10.5553        0.761643 
        4.88521         10.4886        0.755422 
        4.90093          10.416        0.749271 
        4.91663         10.3027        0.743193 
        4.93234         10.2409        0.737176 
        4.94807         10.1617        0.731222 
        4.96377         10.0982        0.725345 
        4.97943         10.0088        0.719544 
        4.99514         9.90163        0.713792 
        5.01086         9.88405        0.708099 
        5.02654         9.80321        0.702482 
        5.04227         9.69367        0.696909 
          5.058         9.63716        0.691394 
        5.07371         9.55047         0.68595 
        5.08942         9.50526        0.680564 
        5.10513         9.41463        0.675234 
        5.12084          9.3719        0.669959 
        5.13656         9.27539        0.664742 
        5.15225         9.19209        0.659589 
        5.16796          9.1394        0.654482 
        5.18369         9.06603        0.649425 
         5.1994         9.00935         0.64443 
        5.21509         8.93806        0.639492 
        5.23079         8.86888          0.6346 
        5.24649         8.78858        0.629763 
        5.26217         8.72769         0.62498 
        5.27788         8.69757        0.620239 
        5.29359         8.60428        0.615547 
        5.30933         8.55644        0.610897 
        5.32504         8.50309        0.606302 
        5.34073            8.44         0.60176 
        5.35646         8.36237        0.597255 
        5.37218         8.30886        0.592795 
        5.38789         8.22222        0.588388 
        5.40357          8.1799        0.584031 
        5.41929         8.14036        0.579708 
        5.43502         8.07296        0.575429 
         5.4507         8.01492        0.571203 
        5.46639         7.95662        0.567018 
        5.48212          7.9046        0.562866 
        5.49786         7.85335        0.558751 
        5.51353         7.79105        0.554696 
        5.52921         7.74426        0.550678 
        5.54495          7.6841        0.546688 
        5.56066         7.61481        0.542742 
        5.57637         7.57891        0.538836 
        5.59207         7.53047        0.534971 
        5.60778         7.46139        0.531143 
        5.62346         7.40806        0.527357 
        5.63916         7.36704        0.523605 
        5.65487         7.32727        0.519887 
         5.6706         7.25921        0.516201 
        5.68633         7.22029        0.512549 
        5.70203         7.15475         0.50894 
        5.71773         7.12403        0.505367 
        5.73344         7.07292        0.501825 
        5.74916         7.01627        0.498315 
        5.76486         6.98292        0.494843 
        5.78054         6.91737        0.491409 
        5.79626         6.86721        0.487998 
          5.812         6.83913        0.484616 
         5.8277         6.77497        0.481276 
        5.84339         6.73496        0.477968 
        5.85911         6.68098        0.474684 
        5.87484         6.64806        0.471431 
        5.89053         6.60127        0.468216 
        5.90623         6.57067        0.465029 
        5.92195         6.51436        0.461866 
        5.93767          6.4665        0.458734 
        5.95336         6.42535        0.455637 
        5.96905         6.38226        0.452569 
        5.98476         6.34011        0.449525 
        6.00048         6.30359        0.446508 
        6.01617         6.26289        0.443523 
        6.03185         6.21363        0.440568 
        6.04756         6.17739        0.437634 
        6.06331         6.14143         0.43472 
        6.07903         6.08742        0.431838 
        6.09473         6.05827        0.428986 
        6.11044          6.0182        0.426156 
        6.12616         5.96377        0.423353 
        6.14186         5.93943        0.420577 
        6.15755         5.91099        0.417827 
        6.17326         5.85937        0.415099 
        6.18898         5.82682        0.412394 
        6.20467         5.78199        0.409718 
        6.22036         5.75003        0.407065 
         6.2361          5.7159        0.404429 
         6.2518         5.66908        0.401821 
        6.26748         5.64979        0.399242 
        6.28319         5.60528        0.396678 
        6.29893         5.57147        0.394134 
        6.31463         5.54621        0.391617 
        6.33033         5.49788        0.389123 
        6.34604         5.46046        0.386648 
        6.36177         5.42859        0.384193 
        6.37747         5.39588        0.381764 
