# k  (h/Mpc)    Pcb(k)  (Mpc/h)^3    Pcb_linear(k) (Mpc/h)^3   ShotnoiseSubtracted = true
      0.0200456         1724.32         1746.51 
      0.0350414         1287.57         1269.65 
      0.0492313         924.852         922.505 
      0.0637834         757.206          766.87 
      0.0800726         599.233         608.646 
       0.096163         449.735         441.625 
       0.111083         361.427         352.252 
       0.126058         310.459         312.167 
       0.142273         262.674         264.474 
       0.158546         211.502         208.879 
        0.17375         180.804          175.98 
       0.188953         162.634         159.346 
       0.204907         139.577         140.989 
       0.220756         122.061         119.285 
        0.23588         106.576         103.768 
         0.2514         96.5505         94.2719 
       0.267535         88.8535         85.2999 
       0.283568         78.0934         75.2231 
       0.299022         70.8442         67.0199 
       0.314451         66.4576         61.2516 
       0.330372         59.6374         56.1915 
       0.346141         54.4179         51.0023 
       0.361624         49.7712         46.3541 
       0.377134         45.5412         42.6531 
       0.392932         43.8688         39.4661 
       0.408854         39.8501         36.3801 
       0.424564          37.944         33.5321 
       0.440253         34.6135         31.0881 
       0.455999         31.6474          28.963 
       0.471626         29.8396           27.01 
        0.48727          28.859         25.1832 
       0.502856          26.979          23.542 
       0.518488          25.039         22.0776 
       0.534347         23.4995         20.7163 
       0.550082         22.5533         19.4611 
       0.565732         21.6145         18.3127 
       0.581496         20.3319         17.2609 
       0.597222         19.1581         16.2964 
       0.612804         18.1478         15.4094 
       0.628434         17.7006         14.5827 
       0.644267         16.7619         13.8098 
       0.660051         15.8746         13.0975 
       0.675724          15.064         12.4397 
       0.691403         14.6614         11.8265 
       0.707174         13.9911         11.2513 
       0.722871         13.5718         10.7165 
        0.73838         12.7703         10.2223 
       0.754018         12.1531         9.75547 
       0.769845         11.7107         9.31273 
        0.78569         11.3836          8.8971 
       0.801365         10.8931         8.51098 
       0.817031         10.5209         8.14812 
       0.832809         10.0789         7.80422 
       0.848511         9.78793          7.4818 
       0.864097         9.43129          7.1799 
       0.879701          9.2289         6.89445 
       0.895507         8.87133         6.62123 
       0.911279           8.507         6.36345 
        0.92691         8.28542         6.12159 
       0.942635         8.01768         5.89102 
       0.958396         7.74085          5.6719 
       0.974128         7.55452         5.46436 
       0.989692         7.19615         5.26931 
        1.00528         7.11319         5.08353 
        1.02113         6.87291         4.90382 
        1.03692         6.70087         4.73351 
        1.05264         6.48381          4.5721 
        1.06832         6.32463          4.4185 
        1.08405         6.16036         4.27158 
        1.09979         5.99979         4.13128 
        1.11537         5.83914         3.99869 
        1.13105         5.68342         3.87116 
        1.14679         5.55093         3.74871 
        1.16256         5.38787         3.63135 
        1.17828          5.2999         3.51941 
        1.19395          5.1311         3.41259 
         1.2097         4.97897         3.30967 
        1.22537         4.85109         3.21151 
          1.241         4.74007         3.11764 
        1.25666         4.70325          3.0273 
        1.27241         4.59493         2.94013 
        1.28819         4.40983         2.85626 
        1.30392         4.32533         2.77591 
        1.31957         4.25483         2.69903 
        1.33529         4.13894         2.62478 
        1.35108         4.05232         2.55304 
        1.36674          3.9505          2.4845 
         1.3824         3.90675         2.41855 
        1.39811          3.8085         2.35478 
        1.41389         3.71223         2.29307 
        1.42964         3.65546         2.23368 
        1.44531         3.58549          2.1767 
        1.46101         3.52805         2.12158 
        1.47667         3.44847         2.06855 
        1.49229         3.34328         2.01747 
        1.50793         3.27609         1.96806 
        1.52367         3.21879            1.92 
        1.53953         3.15056         1.87322 
        1.55526         3.15055         1.82838 
        1.57092         3.06074         1.78519 
        1.58662         3.02491          1.7433 
        1.60235         2.94629         1.70268 
        1.61809         2.89707         1.66333 
        1.63369         2.84543         1.62558 
        1.64941         2.79661         1.58874 
        1.66519         2.75957          1.5529 
        1.68085         2.69984         1.51843 
        1.69652         2.65769         1.48499 
        1.71228         2.61341         1.45238 
        1.72806         2.57705         1.42072 
        1.74368         2.53277         1.39032 
        1.75933          2.4947         1.36076 
        1.77505         2.44698         1.33192 
        1.79081         2.41057         1.30386 
         1.8065         2.37622         1.27673 
        1.82218         2.32804          1.2504 
        1.83797         2.28923         1.22464 
        1.85367         2.25629         1.19974 
        1.86928         2.22953         1.17569 
        1.88497         2.18204         1.15217 
        1.90073         2.16523          1.1292 
        1.91647         2.12497         1.10688 
        1.93218         2.09615         1.08521 
        1.94787         2.06773         1.06416 
        1.96363         2.03992         1.04358 
        1.97935         2.00525         1.02359 
        1.99499         1.97825         1.00424 
        2.01064         1.95442        0.985357 
         2.0264         1.91935        0.966844 
        2.04216         1.89806        0.948816 
        2.05781         1.86555        0.931362 
        2.07353         1.85464        0.914286 
        2.08928         1.82194        0.897602 
        2.10499         1.79144        0.881378 
        2.12065         1.77895        0.865605 
        2.13633         1.75057        0.850205 
        2.15211         1.72172        0.835081 
        2.16785         1.70482        0.820367 
        2.18349         1.67849          0.8061 
        2.19916         1.66674        0.792143 
        2.21489         1.64681        0.778471 
        2.23063         1.61381        0.765112 
         2.2463          1.5897        0.752127 
        2.26194         1.57965        0.739477 
        2.27765         1.54695        0.727052 
        2.29341         1.53569        0.714881 
        2.30914         1.51272        0.703014 
        2.32486          1.5064        0.691423 
        2.34061         1.48577        0.680075 
        2.35635         1.46706        0.668992 
        2.37203         1.44929        0.658194 
        2.38768         1.43233        0.647657 
        2.40339         1.41755        0.637312 
        2.41914         1.40173         0.62717 
        2.43483         1.38553        0.617285 
         2.4505         1.36688        0.607629 
        2.46622         1.34858        0.598147 
        2.48195         1.33862        0.588866 
        2.49759         1.31951        0.579832 
        2.51328         1.30773        0.570965 
        2.52906         1.29748        0.562226 
        2.54479         1.27775        0.553704 
        2.56049         1.26677        0.545374 
        2.57618         1.25182        0.537223 
        2.59189         1.24259        0.529227 
        2.60758         1.22536        0.521406 
        2.62325         1.21071        0.513753 
        2.63898         1.19923        0.506227 
        2.65468         1.18113        0.498867 
        2.67044          1.1785        0.491622 
        2.68618          1.1666        0.484538 
        2.70184         1.15208        0.477622 
        2.71755         1.14562        0.470824 
        2.73329         1.12736        0.464147 
        2.74897         1.11769        0.457622 
        2.76462         1.10676        0.451237 
        2.78034         1.10311        0.444947 
        2.79607         1.08703        0.438771 
        2.81179         1.07525        0.432719 
        2.82749         1.06417        0.426788 
        2.84321         1.05668        0.420961 
        2.85893         1.04444        0.415245 
        2.87462         1.03619        0.409645 
        2.89033         1.02689        0.404143 
        2.90605         1.01948        0.398738 
        2.92176         1.00977        0.393434 
        2.93747         1.00085        0.388229 
        2.95318        0.988383        0.383117 
        2.96891        0.986211        0.378096 
        2.98456        0.970464        0.373186 
        3.00023        0.962767        0.368356 
        3.01596        0.953376        0.363597 
        3.03164        0.947499        0.358936 
        3.04738        0.940122        0.354342 
         3.0631        0.928422        0.349831 
        3.07883        0.922885        0.345398 
        3.09456        0.913681        0.341042 
        3.11026        0.908685        0.336769 
        3.12596         0.89845        0.332569 
        3.14163        0.895246         0.32845 
        3.15734        0.884969        0.324391 
        3.17308        0.879031        0.320392 
        3.18879        0.873986         0.31647 
        3.20447        0.865626         0.31262 
         3.2202        0.855146        0.308822 
         3.2359        0.850292        0.305094 
        3.25157        0.843159        0.301436 
        3.26729        0.837801        0.297828 
        3.28304        0.831618        0.294271 
        3.29877        0.823734        0.290777 
        3.31446        0.820396        0.287347 
        3.33014        0.807797        0.283976 
        3.34585        0.804969        0.280653 
        3.36158        0.799248        0.277379 
        3.37727        0.796228        0.274167 
        3.39294        0.787239        0.271009 
        3.40867        0.783575         0.26789 
        3.42439        0.779438        0.264821 
        3.44008        0.771204        0.261806 
        3.45578        0.765307        0.258836 
        3.47153        0.760858        0.255905 
        3.48724        0.754285        0.253025 
        3.50292        0.747506        0.250196 
        3.51859        0.747589        0.247412 
        3.53431        0.738411        0.244661 
        3.55007        0.735083        0.241946 
        3.56577        0.730719        0.239282 
        3.58146         0.72602        0.236659 
        3.59719        0.720419         0.23407 
        3.61292         0.71364        0.231521 
        3.62859        0.710424        0.229019 
        3.64429        0.704151        0.226549 
        3.66003         0.69959        0.224108 
        3.67578        0.695622        0.221704 
        3.69146         0.69223        0.219344 
        3.70712        0.687733        0.217023 
        3.72284        0.682793        0.214726 
        3.73853        0.677154        0.212467 
        3.75422        0.674674         0.21024 
        3.76993        0.668271        0.208042 
        3.78564        0.665006        0.205877 
        3.80137        0.661179         0.20374 
        3.81707        0.655739        0.201637 
        3.83279        0.651815        0.199562 
        3.84853        0.647537        0.197512 
        3.86424        0.641823        0.195496 
        3.87992        0.641678        0.193511 
        3.89561        0.636422        0.191553 
        3.91134          0.6298        0.189618 
        3.92704        0.627068        0.187712 
        3.94273        0.622766        0.185835 
        3.95845        0.620114        0.183979 
        3.97418        0.616183        0.182149 
        3.98988         0.61264        0.180345 
        4.00554        0.606328        0.178571 
        4.02125         0.60355        0.176816 
        4.03698        0.598446        0.175082 
        4.05268        0.593809        0.173375 
        4.06839         0.58905         0.17169 
         4.0841        0.583537        0.170027 
        4.09983        0.580362        0.168384 
        4.11555        0.575976        0.166763 
        4.13124        0.570561        0.165168 
        4.14693        0.568483        0.163593 
        4.16266        0.560564        0.162035 
        4.17839        0.557294        0.160497 
        4.19408        0.556173        0.158984 
        4.20977        0.550995        0.157489 
        4.22551        0.548693        0.156009 
        4.24123        0.543467        0.154551 
        4.25691        0.540012        0.153114 
        4.27259        0.536812        0.151696 
        4.28831        0.533777        0.150293 
        4.30404        0.531262        0.148906 
        4.31974         0.52659         0.14754 
        4.33543        0.523023        0.146191 
        4.35116        0.520065        0.144856 
        4.36688        0.516155        0.143539 
        4.38255        0.514521        0.142242 
        4.39825         0.51161        0.140959 
        4.41398        0.507626        0.139689 
         4.4297        0.507253        0.138436 
        4.44541        0.502686        0.137199 
        4.46111        0.499984        0.135977 
        4.47683        0.498291         0.13477 
        4.49251        0.495686         0.13358 
        4.50819        0.493683        0.132404 
         4.5239         0.49091        0.131241 
        4.53962        0.486823        0.130091 
        4.55535        0.487507        0.128953 
        4.57106        0.484666        0.127831 
        4.58678        0.482441        0.126722 
         4.6025        0.480566        0.125626 
        4.61821        0.478192        0.124543 
        4.63391        0.478348        0.123474 
         4.6496        0.475074        0.122418 
        4.66532        0.473372        0.121373 
        4.68103        0.471682        0.120341 
        4.69673        0.468714        0.119321 
        4.71241        0.469081        0.118315 
        4.72811        0.467187        0.117318 
        4.74384        0.465878        0.116331 
        4.75955        0.465051        0.115358 
        4.77525        0.462485        0.114396 
        4.79096        0.462255        0.113443 
        4.80669        0.460263        0.112502 
         4.8224        0.458684        0.111571 
        4.83809        0.457146        0.110653 
        4.85379        0.457746        0.109744 
         4.8695        0.456286        0.108845 
        4.88521        0.455542        0.107956 
        4.90093         0.45417        0.107077 
        4.91663        0.454002        0.106208 
        4.93234        0.451638        0.105348 
        4.94807        0.451963        0.104497 
        4.96377        0.452359        0.103657 
        4.97943        0.450356        0.102829 
        4.99514        0.449593        0.102007 
        5.01086        0.449598        0.101193 
        5.02654         0.44929         0.10039 
        5.04227        0.447982       0.0995938 
          5.058        0.448723       0.0988057 
        5.07371        0.447124       0.0980276 
        5.08942        0.449037       0.0972579 
        5.10513        0.447675       0.0964963 
        5.12084        0.446406       0.0957425 
        5.13656         0.44722       0.0949968 
        5.15225        0.447337       0.0942604 
        5.16796        0.446937       0.0935306 
        5.18369        0.445698       0.0928078 
         5.1994        0.446885        0.092094 
        5.21509        0.447124       0.0913884 
        5.23079        0.445746       0.0906893 
        5.24649        0.447531        0.089998 
        5.26217        0.446715       0.0893145 
        5.27788        0.448378        0.088637 
        5.29359        0.448117       0.0879665 
        5.30933        0.447734       0.0873019 
        5.32504        0.448427       0.0866453 
        5.34073        0.448975       0.0859962 
        5.35646        0.448689       0.0853524 
        5.37218        0.450155       0.0847151 
        5.38789        0.448151       0.0840853 
        5.40357        0.449923       0.0834626 
        5.41929         0.45118       0.0828449 
        5.43502        0.451341       0.0822333 
         5.4507        0.452608       0.0816293 
        5.46639        0.451974       0.0810314 
        5.48212        0.453413        0.080438 
        5.49786        0.454028       0.0798498 
        5.51353        0.454357       0.0792705 
        5.52921        0.454416       0.0786963 
        5.54495         0.45616       0.0781261 
        5.56066        0.457074       0.0775621 
        5.57637        0.456853       0.0770038 
        5.59207        0.458656       0.0764515 
        5.60778        0.459697       0.0759044 
        5.62346        0.459682       0.0753634 
        5.63916        0.460405       0.0748272 
        5.65487        0.461123       0.0742959 
         5.6706        0.461885       0.0737691 
        5.68633        0.463979       0.0732473 
        5.70203        0.464622       0.0727315 
        5.71773        0.465002       0.0722208 
        5.73344        0.466949       0.0717148 
        5.74916        0.467079       0.0712131 
        5.76486        0.468579       0.0707169 
        5.78054        0.469206       0.0702262 
        5.79626        0.468962       0.0697387 
          5.812        0.471355       0.0692554 
         5.8277        0.472704       0.0687781 
        5.84339        0.472974       0.0683053 
        5.85911        0.475472        0.067836 
        5.87484        0.475203       0.0673712 
        5.89053        0.478326       0.0669117 
        5.90623        0.479325       0.0664563 
        5.92195        0.478987       0.0660043 
        5.93767        0.480617       0.0655567 
        5.95336        0.481606       0.0651141 
        5.96905        0.482028       0.0646756 
        5.98476         0.48217       0.0642406 
        6.00048        0.483755       0.0638095 
        6.01617        0.484664       0.0633829 
        6.03185        0.487067       0.0629607 
        6.04756        0.486876       0.0625413 
        6.06331        0.489827       0.0621249 
        6.07903        0.490244       0.0617131 
        6.09473        0.491247       0.0613054 
        6.11044        0.490792       0.0609011 
        6.12616        0.493275       0.0605004 
        6.14186        0.492965       0.0601038 
        6.15755        0.495726       0.0597107 
        6.17326        0.497058       0.0593208 
        6.18898        0.497353       0.0589343 
        6.20467        0.499691       0.0585518 
        6.22036        0.498799       0.0581728 
         6.2361        0.500479       0.0577961 
         6.2518        0.501434       0.0574234 
        6.26748        0.502835       0.0570548 
        6.28319        0.504116       0.0566884 
        6.29893        0.505608       0.0563248 
        6.31463        0.507103       0.0559651 
        6.33033         0.50633       0.0556087 
        6.34604         0.50857        0.055255 
        6.36177         0.50891       0.0549042 
        6.37747         0.51048        0.054557 
