# k  (h/Mpc)    Pcb(k)  (Mpc/h)^3    Pcb_linear(k) (Mpc/h)^3   ShotnoiseSubtracted = true
      0.0200456         1721.43         1746.51 
      0.0350414         1259.56         1269.65 
      0.0492313         924.929         922.505 
      0.0637834         774.832          766.87 
      0.0800726         614.287         608.646 
       0.096163         439.462         441.625 
       0.111083          348.81         352.252 
       0.126058         314.192         312.167 
       0.142273         268.169         264.474 
       0.158546         213.721         208.879 
        0.17375         176.395          175.98 
       0.188953         162.691         159.346 
       0.204907         148.904         140.989 
       0.220756         124.181         119.285 
        0.23588         108.143         103.768 
         0.2514         96.8498         94.2719 
       0.267535         88.8636         85.2999 
       0.283568         79.2575         75.2231 
       0.299022         71.6611         67.0199 
       0.314451         64.1399         61.2516 
       0.330372         59.5934         56.1915 
       0.346141         54.0856         51.0023 
       0.361624         49.9165         46.3541 
       0.377134         46.7428         42.6531 
       0.392932         41.5255         39.4661 
       0.408854         39.8784         36.3801 
       0.424564         37.2033         33.5321 
       0.440253         34.2713         31.0881 
       0.455999         32.2937          28.963 
       0.471626         30.3036           27.01 
        0.48727         28.5758         25.1832 
       0.502856         26.6891          23.542 
       0.518488         25.4811         22.0776 
       0.534347         24.3772         20.7163 
       0.550082          22.261         19.4611 
       0.565732         20.6429         18.3127 
       0.581496         20.2228         17.2609 
       0.597222         19.4553         16.2964 
       0.612804         18.1054         15.4094 
       0.628434         17.4374         14.5827 
       0.644267         16.8288         13.8098 
       0.660051         15.8831         13.0975 
       0.675724         15.0644         12.4397 
       0.691403         14.5656         11.8265 
       0.707174         13.9221         11.2513 
       0.722871         13.3572         10.7165 
        0.73838         12.8346         10.2223 
       0.754018         12.3847         9.75547 
       0.769845         11.8343         9.31273 
        0.78569         11.4527          8.8971 
       0.801365         10.9765         8.51098 
       0.817031         10.6349         8.14812 
       0.832809         10.3494         7.80422 
       0.848511          9.7265          7.4818 
       0.864097         9.46125          7.1799 
       0.879701         9.16551         6.89445 
       0.895507         8.76442         6.62123 
       0.911279         8.62987         6.36345 
        0.92691         8.33172         6.12159 
       0.942635         7.96556         5.89102 
       0.958396         7.72519          5.6719 
       0.974128          7.5226         5.46436 
       0.989692         7.41214         5.26931 
        1.00528          7.1176         5.08353 
        1.02113         6.84286         4.90382 
        1.03692         6.70357         4.73351 
        1.05264         6.50826          4.5721 
        1.06832         6.35499          4.4185 
        1.08405         6.10056         4.27158 
        1.09979         5.96714         4.13128 
        1.11537         5.84901         3.99869 
        1.13105         5.68114         3.87116 
        1.14679          5.5545         3.74871 
        1.16256         5.38153         3.63135 
        1.17828         5.29164         3.51941 
        1.19395         5.12523         3.41259 
         1.2097         4.96563         3.30967 
        1.22537         4.84521         3.21151 
          1.241         4.75953         3.11764 
        1.25666         4.71142          3.0273 
        1.27241          4.5356         2.94013 
        1.28819         4.42869         2.85626 
        1.30392         4.35733         2.77591 
        1.31957         4.26191         2.69903 
        1.33529         4.16159         2.62478 
        1.35108         4.05965         2.55304 
        1.36674         4.00666          2.4845 
         1.3824         3.85585         2.41855 
        1.39811         3.80079         2.35478 
        1.41389         3.74003         2.29307 
        1.42964         3.66327         2.23368 
        1.44531         3.59229          2.1767 
        1.46101         3.51678         2.12158 
        1.47667         3.42689         2.06855 
        1.49229         3.39645         2.01747 
        1.50793         3.30023         1.96806 
        1.52367          3.2717            1.92 
        1.53953          3.1782         1.87322 
        1.55526         3.11801         1.82838 
        1.57092         3.07703         1.78519 
        1.58662          3.0076          1.7433 
        1.60235           2.958         1.70268 
        1.61809         2.90573         1.66333 
        1.63369         2.85989         1.62558 
        1.64941         2.80447         1.58874 
        1.66519         2.76574          1.5529 
        1.68085         2.69956         1.51843 
        1.69652         2.65477         1.48499 
        1.71228         2.62035         1.45238 
        1.72806           2.565         1.42072 
        1.74368         2.52447         1.39032 
        1.75933         2.48477         1.36076 
        1.77505         2.44984         1.33192 
        1.79081         2.40307         1.30386 
         1.8065         2.36605         1.27673 
        1.82218          2.3402          1.2504 
        1.83797         2.31222         1.22464 
        1.85367         2.27141         1.19974 
        1.86928         2.23841         1.17569 
        1.88497         2.19331         1.15217 
        1.90073         2.15654          1.1292 
        1.91647          2.1269         1.10688 
        1.93218         2.11107         1.08521 
        1.94787         2.07641         1.06416 
        1.96363         2.03668         1.04358 
        1.97935         2.00648         1.02359 
        1.99499         1.96675         1.00424 
        2.01064         1.95028        0.985357 
         2.0264         1.93459        0.966844 
        2.04216         1.90196        0.948816 
        2.05781         1.87146        0.931362 
        2.07353         1.85195        0.914286 
        2.08928         1.82688        0.897602 
        2.10499         1.79911        0.881378 
        2.12065         1.78664        0.865605 
        2.13633         1.75367        0.850205 
        2.15211         1.72899        0.835081 
        2.16785         1.70714        0.820367 
        2.18349         1.68912          0.8061 
        2.19916         1.65597        0.792143 
        2.21489         1.64042        0.778471 
        2.23063         1.61607        0.765112 
         2.2463         1.60303        0.752127 
        2.26194         1.57507        0.739477 
        2.27765         1.55991        0.727052 
        2.29341         1.54323        0.714881 
        2.30914         1.52351        0.703014 
        2.32486         1.51185        0.691423 
        2.34061         1.48673        0.680075 
        2.35635         1.46449        0.668992 
        2.37203         1.45609        0.658194 
        2.38768         1.43974        0.647657 
        2.40339         1.42435        0.637312 
        2.41914         1.40639         0.62717 
        2.43483         1.39011        0.617285 
         2.4505         1.36879        0.607629 
        2.46622         1.35841        0.598147 
        2.48195         1.34564        0.588866 
        2.49759         1.32965        0.579832 
        2.51328         1.31082        0.570965 
        2.52906         1.29969        0.562226 
        2.54479         1.28515        0.553704 
        2.56049         1.27138        0.545374 
        2.57618         1.25997        0.537223 
        2.59189         1.24895        0.529227 
        2.60758         1.22884        0.521406 
        2.62325         1.21989        0.513753 
        2.63898         1.20692        0.506227 
        2.65468          1.1958        0.498867 
        2.67044         1.18534        0.491622 
        2.68618         1.16599        0.484538 
        2.70184         1.15591        0.477622 
        2.71755         1.14474        0.470824 
        2.73329          1.1348        0.464147 
        2.74897         1.12333        0.457622 
        2.76462         1.11189        0.451237 
        2.78034         1.10469        0.444947 
        2.79607         1.09035        0.438771 
        2.81179          1.0789        0.432719 
        2.82749         1.07044        0.426788 
        2.84321         1.06292        0.420961 
        2.85893         1.04947        0.415245 
        2.87462         1.04379        0.409645 
        2.89033         1.02594        0.404143 
        2.90605         1.01991        0.398738 
        2.92176         1.01147        0.393434 
        2.93747          1.0037        0.388229 
        2.95318        0.994018        0.383117 
        2.96891        0.984613        0.378096 
        2.98456        0.979414        0.373186 
        3.00023        0.967632        0.368356 
        3.01596        0.962242        0.363597 
        3.03164         0.95536        0.358936 
        3.04738        0.939781        0.354342 
         3.0631        0.933429        0.349831 
        3.07883        0.927504        0.345398 
        3.09456        0.921497        0.341042 
        3.11026        0.911025        0.336769 
        3.12596        0.903305        0.332569 
        3.14163        0.896265         0.32845 
        3.15734         0.89042        0.324391 
        3.17308         0.88128        0.320392 
        3.18879        0.874476         0.31647 
        3.20447        0.866588         0.31262 
         3.2202        0.860668        0.308822 
         3.2359         0.85474        0.305094 
        3.25157        0.847248        0.301436 
        3.26729         0.84097        0.297828 
        3.28304        0.833983        0.294271 
        3.29877        0.825319        0.290777 
        3.31446        0.820268        0.287347 
        3.33014        0.816842        0.283976 
        3.34585        0.809808        0.280653 
        3.36158        0.799491        0.277379 
        3.37727        0.798031        0.274167 
        3.39294        0.791076        0.271009 
        3.40867        0.785208         0.26789 
        3.42439        0.779002        0.264821 
        3.44008         0.77363        0.261806 
        3.45578        0.769262        0.258836 
        3.47153        0.762465        0.255905 
        3.48724         0.75703        0.253025 
        3.50292        0.754304        0.250196 
        3.51859        0.747854        0.247412 
        3.53431        0.742539        0.244661 
        3.55007        0.739095        0.241946 
        3.56577        0.732493        0.239282 
        3.58146        0.727453        0.236659 
        3.59719        0.723089         0.23407 
        3.61292        0.719122        0.231521 
        3.62859        0.710929        0.229019 
        3.64429         0.70924        0.226549 
        3.66003        0.703106        0.224108 
        3.67578         0.69791        0.221704 
        3.69146        0.695371        0.219344 
        3.70712        0.688383        0.217023 
        3.72284        0.686611        0.214726 
        3.73853        0.679061        0.212467 
        3.75422        0.675061         0.21024 
        3.76993        0.674436        0.208042 
        3.78564        0.668834        0.205877 
        3.80137        0.661791         0.20374 
        3.81707        0.661003        0.201637 
        3.83279        0.654387        0.199562 
        3.84853        0.649701        0.197512 
        3.86424         0.64732        0.195496 
        3.87992        0.643282        0.193511 
        3.89561        0.639445        0.191553 
        3.91134        0.633805        0.189618 
        3.92704        0.630315        0.187712 
        3.94273        0.626862        0.185835 
        3.95845        0.623365        0.183979 
        3.97418        0.617525        0.182149 
        3.98988        0.614496        0.180345 
        4.00554         0.61183        0.178571 
        4.02125        0.605875        0.176816 
        4.03698        0.598781        0.175082 
        4.05268         0.59524        0.173375 
        4.06839        0.589568         0.17169 
         4.0841        0.586515        0.170027 
        4.09983         0.58233        0.168384 
        4.11555        0.577844        0.166763 
        4.13124        0.572465        0.165168 
        4.14693        0.567995        0.163593 
        4.16266         0.56417        0.162035 
        4.17839        0.561367        0.160497 
        4.19408        0.557006        0.158984 
        4.20977        0.552109        0.157489 
        4.22551        0.549541        0.156009 
        4.24123        0.545108        0.154551 
        4.25691        0.541903        0.153114 
        4.27259        0.538374        0.151696 
        4.28831        0.534716        0.150293 
        4.30404        0.531278        0.148906 
        4.31974        0.527616         0.14754 
        4.33543        0.524533        0.146191 
        4.35116         0.52273        0.144856 
        4.36688        0.518242        0.143539 
        4.38255        0.516237        0.142242 
        4.39825        0.513913        0.140959 
        4.41398        0.509414        0.139689 
         4.4297        0.506929        0.138436 
        4.44541        0.504244        0.137199 
        4.46111        0.503508        0.135977 
        4.47683        0.499926         0.13477 
        4.49251         0.49758         0.13358 
        4.50819        0.495015        0.132404 
         4.5239        0.493583        0.131241 
        4.53962        0.491619        0.130091 
        4.55535        0.489426        0.128953 
        4.57106        0.486602        0.127831 
        4.58678        0.484289        0.126722 
         4.6025        0.482142        0.125626 
        4.61821         0.48035        0.124543 
        4.63391        0.478441        0.123474 
         4.6496        0.476048        0.122418 
        4.66532        0.475614        0.121373 
        4.68103        0.473578        0.120341 
        4.69673        0.472251        0.119321 
        4.71241        0.469059        0.118315 
        4.72811        0.469362        0.117318 
        4.74384        0.466934        0.116331 
        4.75955        0.466086        0.115358 
        4.77525        0.464323        0.114396 
        4.79096        0.464402        0.113443 
        4.80669        0.461847        0.112502 
         4.8224        0.461777        0.111571 
        4.83809         0.45895        0.110653 
        4.85379        0.459766        0.109744 
         4.8695         0.45831        0.108845 
        4.88521        0.456716        0.107956 
        4.90093        0.456639        0.107077 
        4.91663        0.454258        0.106208 
        4.93234        0.453796        0.105348 
        4.94807        0.453895        0.104497 
        4.96377        0.453372        0.103657 
        4.97943        0.452557        0.102829 
        4.99514        0.450795        0.102007 
        5.01086        0.451898        0.101193 
        5.02654        0.450873         0.10039 
        5.04227        0.450491       0.0995938 
          5.058        0.449258       0.0988057 
        5.07371        0.448563       0.0980276 
        5.08942        0.449578       0.0972579 
        5.10513         0.44807       0.0964963 
        5.12084        0.448338       0.0957425 
        5.13656        0.448408       0.0949968 
        5.15225        0.449029       0.0942604 
        5.16796        0.447489       0.0935306 
        5.18369        0.449047       0.0928078 
         5.1994        0.449723        0.092094 
        5.21509        0.447946       0.0913884 
        5.23079        0.448695       0.0906893 
        5.24649        0.448717        0.089998 
        5.26217        0.447769       0.0893145 
        5.27788        0.448578        0.088637 
        5.29359        0.448826       0.0879665 
        5.30933        0.449149       0.0873019 
        5.32504        0.449543       0.0866453 
        5.34073        0.449754       0.0859962 
        5.35646         0.45016       0.0853524 
        5.37218        0.451647       0.0847151 
        5.38789        0.451148       0.0840853 
        5.40357        0.451628       0.0834626 
        5.41929        0.452375       0.0828449 
        5.43502        0.453218       0.0822333 
         5.4507        0.453589       0.0816293 
        5.46639        0.454716       0.0810314 
        5.48212        0.454113        0.080438 
        5.49786        0.454399       0.0798498 
        5.51353        0.455686       0.0792705 
        5.52921        0.456198       0.0786963 
        5.54495        0.457395       0.0781261 
        5.56066        0.457899       0.0775621 
        5.57637        0.457575       0.0770038 
        5.59207         0.45937       0.0764515 
        5.60778        0.460361       0.0759044 
        5.62346        0.460702       0.0753634 
        5.63916        0.461463       0.0748272 
        5.65487        0.463025       0.0742959 
         5.6706        0.463907       0.0737691 
        5.68633        0.464922       0.0732473 
        5.70203        0.466285       0.0727315 
        5.71773        0.466312       0.0722208 
        5.73344        0.466428       0.0717148 
        5.74916        0.468868       0.0712131 
        5.76486        0.469714       0.0707169 
        5.78054        0.470283       0.0702262 
        5.79626        0.470673       0.0697387 
          5.812        0.473098       0.0692554 
         5.8277        0.473171       0.0687781 
        5.84339        0.475302       0.0683053 
        5.85911        0.474869        0.067836 
        5.87484        0.475794       0.0673712 
        5.89053        0.477626       0.0669117 
        5.90623          0.4789       0.0664563 
        5.92195        0.479281       0.0660043 
        5.93767        0.480378       0.0655567 
        5.95336        0.480968       0.0651141 
        5.96905        0.482184       0.0646756 
        5.98476        0.483154       0.0642406 
        6.00048        0.485597       0.0638095 
        6.01617        0.486392       0.0633829 
        6.03185        0.486687       0.0629607 
        6.04756        0.488228       0.0625413 
        6.06331        0.490671       0.0621249 
        6.07903        0.491282       0.0617131 
        6.09473        0.492255       0.0613054 
        6.11044        0.493615       0.0609011 
        6.12616        0.494009       0.0605004 
        6.14186        0.494229       0.0601038 
        6.15755        0.496086       0.0597107 
        6.17326        0.497694       0.0593208 
        6.18898        0.498081       0.0589343 
        6.20467        0.500521       0.0585518 
        6.22036        0.499959       0.0581728 
         6.2361         0.50118       0.0577961 
         6.2518        0.501726       0.0574234 
        6.26748        0.503454       0.0570548 
        6.28319        0.506066       0.0566884 
        6.29893        0.506478       0.0563248 
        6.31463        0.506814       0.0559651 
        6.33033        0.506798       0.0556087 
        6.34604        0.507803        0.055255 
        6.36177        0.509174       0.0549042 
        6.37747        0.511328        0.054557 
