# k  (h/Mpc)    Pcb(k)  (Mpc/h)^3    Pcb_linear(k) (Mpc/h)^3   ShotnoiseSubtracted = true
      0.0200456         701.886          711.66 
      0.0350414         515.547         517.353 
      0.0492313         377.297         375.899 
      0.0637834         314.588         312.481 
      0.0800726         249.379         248.009 
       0.096163         179.704         179.952 
       0.111083         142.808         143.534 
       0.126058         127.591         127.201 
       0.142273         108.502         107.767 
       0.158546         86.1314         85.1132 
        0.17375         71.6363         71.7078 
       0.188953         65.3957         64.9298 
       0.204907         59.1482         57.4496 
       0.220756         49.4985         48.6059 
        0.23588         43.0709         42.2829 
         0.2514         38.7702         38.4136 
       0.267535         35.2577         34.7577 
       0.283568         31.2806         30.6516 
       0.299022         28.0889          27.309 
       0.314451         25.2131         24.9586 
       0.330372          23.337         22.8967 
       0.346141         21.2026         20.7822 
       0.361624           19.42         18.8882 
       0.377134         18.0456         17.3801 
       0.392932         16.1646         16.0815 
       0.408854         15.3668          14.824 
       0.424564          14.145         13.6635 
       0.440253          13.083         12.6677 
       0.455999         12.2979         11.8017 
       0.471626         11.5414         11.0059 
        0.48727         10.7342         10.2615 
       0.502856          9.9941          9.5928 
       0.518488         9.52754          8.9961 
       0.534347         9.05194         8.44139 
       0.550082         8.29481         7.92992 
       0.565732         7.66759         7.46199 
       0.581496          7.4559         7.03342 
       0.597222         7.10742         6.64039 
       0.612804         6.63575         6.27898 
       0.628434          6.3796         5.94211 
       0.644267         6.04796         5.62717 
       0.660051         5.70295          5.3369 
       0.675724         5.42632         5.06888 
       0.691403         5.21891         4.81903 
       0.707174         4.93824         4.58462 
       0.722871         4.71107         4.36673 
        0.73838         4.52655         4.16533 
       0.754018         4.37154         3.97512 
       0.769845         4.13627         3.79472 
        0.78569         3.98103         3.62536 
       0.801365         3.80112         3.46802 
       0.817031         3.66516         3.32016 
       0.832809         3.52068         3.18003 
       0.848511         3.33648         3.04866 
       0.864097           3.201         2.92564 
       0.879701         3.08688         2.80933 
       0.895507          2.9663         2.69799 
       0.911279         2.90239         2.59295 
        0.92691         2.78484          2.4944 
       0.942635         2.66683         2.40045 
       0.958396         2.56356         2.31116 
       0.974128         2.48391          2.2266 
       0.989692         2.42388         2.14712 
        1.00528         2.31804         2.07142 
        1.02113         2.22796         1.99819 
        1.03692         2.18498         1.92879 
        1.05264         2.10228         1.86302 
        1.06832         2.04611         1.80044 
        1.08405         1.94661         1.74057 
        1.09979         1.90197          1.6834 
        1.11537         1.85098         1.62937 
        1.13105         1.80125          1.5774 
        1.14679         1.75142         1.52751 
        1.16256         1.68419         1.47969 
        1.17828         1.64232         1.43408 
        1.19395         1.59505         1.39055 
         1.2097         1.52556         1.34861 
        1.22537         1.49648         1.30861 
          1.241         1.45979         1.27036 
        1.25666         1.44177         1.23355 
        1.27241         1.37325         1.19803 
        1.28819          1.3399         1.16386 
        1.30392         1.31453         1.13112 
        1.31957         1.28037         1.09979 
        1.33529         1.24001         1.06953 
        1.35108         1.20972          1.0403 
        1.36674         1.16716         1.01237 
         1.3824         1.14667          0.9855 
        1.39811         1.11551        0.959516 
        1.41389         1.09351        0.934371 
        1.42964         1.06807        0.910173 
        1.44531         1.03785        0.886952 
        1.46101          1.0188        0.864494 
        1.47667        0.978729        0.842883 
        1.49229        0.970563        0.822071 
        1.50793         0.94199        0.801939 
        1.52367        0.924496        0.782354 
        1.53953        0.895025        0.763293 
        1.55526        0.877915        0.745021 
        1.57092        0.857256        0.727424 
        1.58662        0.841879        0.710355 
        1.60235        0.821509        0.693802 
        1.61809        0.798762        0.677769 
        1.63369        0.793728        0.662386 
        1.64941        0.768056        0.647372 
        1.66519        0.753525         0.63277 
        1.68085        0.731106        0.618723 
        1.69652         0.71826          0.6051 
        1.71228        0.707578         0.59181 
        1.72806        0.686363         0.57891 
        1.74368        0.679066        0.566524 
        1.75933        0.661014        0.554477 
        1.77505        0.649157        0.542724 
        1.79081        0.636193        0.531292 
         1.8065        0.618159        0.520239 
        1.82218        0.611457         0.50951 
        1.83797        0.598275        0.499011 
        1.85367        0.592422        0.488867 
        1.86928        0.578208        0.479065 
        1.88497        0.564514         0.46948 
        1.90073         0.55226        0.460122 
        1.91647        0.546869        0.451028 
        1.93218        0.533021        0.442199 
        1.94787        0.523678         0.43362 
        1.96363        0.512983        0.425235 
        1.97935        0.502905        0.417089 
        1.99499        0.494343        0.409203 
        2.01064        0.485138        0.401509 
         2.0264        0.476053        0.393966 
        2.04216         0.47009         0.38662 
        2.05781        0.460389        0.379508 
        2.07353        0.450724         0.37255 
        2.08928        0.441233        0.365751 
        2.10499        0.436248        0.359141 
        2.12065        0.431339        0.352714 
        2.13633        0.422529        0.346438 
        2.15211        0.414114        0.340276 
        2.16785        0.406191         0.33428 
        2.18349        0.399084        0.328467 
        2.19916        0.394115         0.32278 
        2.21489        0.386152        0.317208 
        2.23063        0.380548        0.311765 
         2.2463        0.375542        0.306474 
        2.26194        0.364656        0.301319 
        2.27765        0.361017        0.296257 
        2.29341        0.356562        0.291297 
        2.30914        0.352195        0.286462 
        2.32486        0.344625        0.281739 
        2.34061        0.339005        0.277114 
        2.35635        0.332392        0.272598 
        2.37203        0.328079        0.268198 
        2.38768        0.323128        0.263905 
        2.40339        0.318904         0.25969 
        2.41914        0.314035        0.255557 
        2.43483        0.308768        0.251529 
         2.4505          0.3029        0.247594 
        2.46622        0.298692         0.24373 
        2.48195        0.295706        0.239949 
        2.49759        0.290909        0.236268 
        2.51328        0.285573        0.232655 
        2.52906        0.282535        0.229094 
        2.54479        0.277129        0.225621 
        2.56049        0.272181        0.222227 
        2.57618        0.269001        0.218906 
        2.59189        0.266066        0.215647 
        2.60758         0.26261        0.212461 
        2.62325        0.257764        0.209342 
        2.63898        0.254687        0.206275 
        2.65468        0.250229        0.203276 
        2.67044        0.247037        0.200324 
        2.68618        0.243372        0.197438 
        2.70184        0.240318         0.19462 
        2.71755        0.236047        0.191849 
        2.73329        0.233291        0.189129 
        2.74897        0.230663         0.18647 
        2.76462        0.227404        0.183868 
        2.78034        0.223977        0.181305 
        2.79607        0.221045        0.178789 
        2.81179        0.218481        0.176323 
        2.82749        0.215104        0.173906 
        2.84321        0.212841        0.171532 
        2.85893        0.209874        0.169203 
        2.87462        0.206766        0.166921 
        2.89033        0.203964        0.164679 
        2.90605        0.201753        0.162476 
        2.92176        0.198944        0.160315 
        2.93747        0.196099        0.158194 
        2.95318        0.194239        0.156111 
        2.96891        0.191422        0.154065 
        2.98456        0.188885        0.152064 
        3.00023        0.187053        0.150096 
        3.01596        0.184365        0.148157 
        3.03164        0.182617        0.146258 
        3.04738        0.179227        0.144386 
         3.0631        0.178048        0.142548 
        3.07883        0.175097        0.140741 
        3.09456        0.173169        0.138967 
        3.11026        0.171625        0.137225 
        3.12596        0.168862        0.135514 
        3.14163        0.167279        0.133836 
        3.15734        0.165788        0.132182 
        3.17308        0.163859        0.130552 
        3.18879         0.16202        0.128954 
        3.20447        0.158967        0.127385 
         3.2202        0.158399        0.125838 
         3.2359         0.15612        0.124319 
        3.25157        0.154764        0.122828 
        3.26729        0.152416        0.121358 
        3.28304        0.151542        0.119908 
        3.29877        0.149415        0.118485 
        3.31446         0.14794        0.117087 
        3.33014         0.14655        0.115713 
        3.34585        0.145678         0.11436 
        3.36158        0.143548        0.113025 
        3.37727        0.142436        0.111717 
        3.39294        0.140441         0.11043 
        3.40867        0.138775        0.109159 
        3.42439        0.137786        0.107908 
        3.44008         0.13584         0.10668 
        3.45578        0.135206         0.10547 
        3.47153        0.133685        0.104275 
        3.48724        0.132461        0.103102 
        3.50292        0.131203        0.101949 
        3.51859        0.129399        0.100814 
        3.53431        0.128115       0.0996936 
        3.55007        0.127486       0.0985871 
        3.56577        0.125747       0.0975017 
        3.58146        0.124718       0.0964331 
        3.59719        0.123789        0.095378 
        3.61292        0.122856       0.0943392 
        3.62859        0.121396       0.0933196 
        3.64429        0.120183       0.0923132 
        3.66003        0.119326       0.0913186 
        3.67578        0.118198       0.0903389 
        3.69146         0.11704       0.0893773 
        3.70712        0.116289       0.0884315 
        3.72284          0.1152       0.0874958 
        3.73853        0.114338       0.0865753 
        3.75422        0.113429       0.0856677 
        3.76993        0.112269       0.0847724 
        3.78564        0.111151       0.0838901 
        3.80137         0.11026        0.083019 
        3.81707        0.109334       0.0821621 
        3.83279        0.108663       0.0813166 
        3.84853        0.107406       0.0804816 
        3.86424        0.106514         0.07966 
        3.87992        0.105613        0.078851 
        3.89561        0.104707       0.0780532 
        3.91134        0.104136       0.0772649 
        3.92704        0.102885       0.0764883 
        3.94273        0.101943       0.0757232 
        3.95845        0.101011       0.0749671 
        3.97418        0.100652       0.0742212 
        3.98988       0.0990715       0.0734864 
        4.00554       0.0985886       0.0727636 
        4.02125        0.097432       0.0720485 
        4.03698       0.0960823       0.0713418 
        4.05268       0.0950503       0.0706462 
        4.06839       0.0937688       0.0699594 
         4.0841       0.0925476       0.0692819 
        4.09983       0.0914859       0.0686124 
        4.11555       0.0901902       0.0679521 
        4.13124         0.08883       0.0673022 
        4.14693       0.0881089       0.0666603 
        4.16266       0.0868525       0.0660253 
        4.17839       0.0859492       0.0653989 
        4.19408       0.0849937       0.0647821 
        4.20977       0.0841187       0.0641729 
        4.22551       0.0832464       0.0635701 
        4.24123       0.0822576       0.0629757 
        4.25691       0.0813213       0.0623905 
        4.27259       0.0805954       0.0618125 
        4.28831       0.0796659       0.0612407 
        4.30404       0.0791058       0.0606756 
        4.31974       0.0786514       0.0601188 
        4.33543       0.0777918       0.0595694 
        4.35116       0.0769805       0.0590255 
        4.36688       0.0762883       0.0584885 
        4.38255       0.0754579       0.0579603 
        4.39825       0.0752667       0.0574374 
        4.41398       0.0746916       0.0569199 
         4.4297       0.0742126       0.0564094 
        4.44541       0.0738298       0.0559052 
        4.46111         0.07323       0.0554076 
        4.47683       0.0727925       0.0549156 
        4.49251       0.0723391       0.0544306 
        4.50819       0.0719527       0.0539516 
         4.5239       0.0715653       0.0534777 
        4.53962       0.0713231       0.0530089 
        4.55535       0.0710484       0.0525454 
        4.57106       0.0706692       0.0520882 
        4.58678       0.0702401       0.0516363 
         4.6025       0.0703184       0.0511896 
        4.61821       0.0702252       0.0507484 
        4.63391       0.0700154       0.0503128 
         4.6496       0.0697765       0.0498826 
        4.66532       0.0697116       0.0494567 
        4.68103       0.0696373        0.049036 
        4.69673       0.0693072       0.0486206 
        4.71241       0.0694781       0.0482104 
        4.72811       0.0693491       0.0478042 
        4.74384       0.0693958       0.0474023 
        4.75955       0.0697502       0.0470055 
        4.77525       0.0698013       0.0466135 
        4.79096       0.0695662       0.0462255 
        4.80669         0.06961       0.0458417 
         4.8224       0.0700852       0.0454627 
        4.83809       0.0699615       0.0450884 
        4.85379        0.070127       0.0447181 
         4.8695       0.0703086       0.0443516 
        4.88521       0.0708079       0.0439894 
        4.90093       0.0708123       0.0436312 
        4.91663       0.0710814       0.0432773 
        4.93234       0.0712788       0.0429269 
        4.94807       0.0719638       0.0425802 
        4.96377       0.0722956       0.0422379 
        4.97943       0.0729841       0.0419002 
        4.99514       0.0728795       0.0415652 
        5.01086       0.0735862       0.0412337 
        5.02654       0.0739017       0.0409066 
        5.04227        0.074512       0.0405821 
          5.058       0.0750708        0.040261 
        5.07371       0.0757672       0.0399439 
        5.08942       0.0759251       0.0396303 
        5.10513       0.0768587       0.0393199 
        5.12084       0.0773874       0.0390128 
        5.13656       0.0778393        0.038709 
        5.15225       0.0790574       0.0384089 
        5.16796       0.0797649       0.0381115 
        5.18369       0.0802939        0.037817 
         5.1994       0.0814703       0.0375261 
        5.21509       0.0819688       0.0372386 
        5.23079       0.0829624       0.0369537 
        5.24649       0.0840504       0.0366721 
        5.26217       0.0850706       0.0363935 
        5.27788       0.0860122       0.0361175 
        5.29359       0.0867572       0.0358443 
        5.30933       0.0877485       0.0355735 
        5.32504       0.0890312       0.0353059 
        5.34073       0.0899761       0.0350414 
        5.35646       0.0907944       0.0347791 
        5.37218       0.0927895       0.0345194 
        5.38789       0.0934619       0.0342627 
        5.40357       0.0945741        0.034009 
        5.41929       0.0960701       0.0337573 
        5.43502       0.0975822       0.0335081 
         5.4507       0.0987893        0.033262 
        5.46639        0.100129       0.0330184 
        5.48212        0.101733       0.0327766 
        5.49786        0.103174       0.0325369 
        5.51353        0.104789       0.0323008 
        5.52921        0.105754       0.0320669 
        5.54495        0.108206       0.0318345 
        5.56066        0.109398       0.0316047 
        5.57637         0.11134       0.0313772 
        5.59207        0.113333       0.0311522 
        5.60778        0.115216       0.0309292 
        5.62346        0.117197       0.0307088 
        5.63916        0.118927       0.0304903 
        5.65487        0.120605       0.0302738 
         5.6706        0.122953       0.0300592 
        5.68633        0.124243       0.0298465 
        5.70203        0.126086       0.0296364 
        5.71773        0.128968       0.0294283 
        5.73344        0.130563       0.0292221 
        5.74916        0.133594       0.0290176 
        5.76486        0.135609       0.0288155 
        5.78054        0.137564       0.0286155 
        5.79626        0.139824       0.0284169 
          5.812        0.142613       0.0282199 
         5.8277        0.145467       0.0280255 
        5.84339        0.147178       0.0278328 
        5.85911        0.150499       0.0276416 
        5.87484        0.152659       0.0274522 
        5.89053        0.156073       0.0272649 
        5.90623        0.158611       0.0270794 
        5.92195        0.161026       0.0268952 
        5.93767        0.163568       0.0267128 
        5.95336        0.167685       0.0265324 
        5.96905        0.169705       0.0263538 
        5.98476        0.172195       0.0261765 
        6.00048        0.175756       0.0260009 
        6.01617        0.178208        0.025827 
        6.03185        0.182189        0.025655 
        6.04756        0.185457       0.0254841 
        6.06331        0.188057       0.0253144 
        6.07903        0.191641       0.0251466 
        6.09473        0.195098       0.0249805 
        6.11044        0.198775       0.0248157 
        6.12616        0.200845       0.0246525 
        6.14186        0.205175       0.0244909 
        6.15755        0.208068       0.0243307 
        6.17326        0.213134       0.0241718 
        6.18898         0.21549       0.0240143 
        6.20467        0.220691       0.0238585 
        6.22036        0.223358        0.023704 
         6.2361        0.225992       0.0235506 
         6.2518         0.23121       0.0233987 
        6.26748        0.234088       0.0232485 
        6.28319        0.238581       0.0230992 
        6.29893        0.243084        0.022951 
        6.31463        0.247375       0.0228045 
        6.33033        0.251353       0.0226592 
        6.34604        0.253748       0.0225151 
        6.36177        0.258635       0.0223721 
        6.37747        0.264162       0.0222307 
