# k  (h/Mpc)    Pcb(k)  (Mpc/h)^3    Pcb_linear(k) (Mpc/h)^3   ShotnoiseSubtracted = true
      0.0200456         18651.6           19071 
      0.0350414         13284.6         13863.9 
      0.0492313         9893.56         10073.3 
      0.0637834         8539.05         8373.82 
      0.0800726         6742.56          6646.1 
       0.096163         4681.12         4822.32 
       0.111083          3750.6         3846.41 
       0.126058         3457.24          3408.7 
       0.142273         2992.44         2887.92 
       0.158546         2589.66         2280.85 
        0.17375         2070.01         1921.61 
       0.188953         2019.74         1739.98 
       0.204907         1898.59         1539.53 
       0.220756         1638.81         1302.53 
        0.23588         1458.43         1133.09 
         0.2514         1268.41          1029.4 
       0.267535         1262.94         931.431 
       0.283568         1144.93         821.397 
       0.299022         1079.94         731.822 
       0.314451         1028.49         668.836 
       0.330372         945.531         613.582 
       0.346141         890.478         556.919 
       0.361624         855.958         506.163 
       0.377134         795.412          465.75 
       0.392932          765.15         430.949 
       0.408854         745.308         397.252 
       0.424564          693.51         366.153 
       0.440253         681.824         339.466 
       0.455999         650.007         316.261 
       0.471626         622.755         294.936 
        0.48727         598.227         274.987 
       0.502856         582.183         257.066 
       0.518488         575.525         241.076 
       0.534347         538.108         226.211 
       0.550082         520.295         212.505 
       0.565732         519.601         199.965 
       0.581496         488.845         188.481 
       0.597222         481.125         177.948 
       0.612804         469.637         168.263 
       0.628434         454.419         159.236 
       0.644267         442.468         150.796 
       0.660051         428.782         143.017 
       0.675724         424.767         135.835 
       0.691403         410.875          129.14 
       0.707174         396.987         122.858 
       0.722871         392.494         117.019 
        0.73838         386.469         111.622 
       0.754018         375.765         106.525 
       0.769845         366.864          101.69 
        0.78569         363.417         97.1517 
       0.801365         352.709         92.9355 
       0.817031         341.574         88.9732 
       0.832809         339.644          85.218 
       0.848511         330.909         81.6974 
       0.864097          323.65         78.4008 
       0.879701         319.375         75.2839 
       0.895507          314.55         72.3004 
       0.911279          304.34         69.4856 
        0.92691         301.784         66.8446 
       0.942635         294.787         64.3269 
       0.958396         288.826         61.9342 
       0.974128         283.942          59.668 
       0.989692         280.324         57.5381 
        1.00528         274.962         55.5095 
        1.02113         272.665         53.5472 
        1.03692         265.628         51.6875 
        1.05264         262.689          49.925 
        1.06832         256.649         48.2478 
        1.08405         252.306         46.6435 
        1.09979         247.769         45.1114 
        1.11537         244.118         43.6637 
        1.13105         238.447          42.271 
        1.14679         236.658          40.934 
        1.16256         232.165         39.6524 
        1.17828         229.025         38.4302 
        1.19395         224.328         37.2637 
         1.2097          223.85         36.1399 
        1.22537         218.444          35.068 
          1.241         217.168          34.043 
        1.25666         212.339         33.0566 
        1.27241          209.56         32.1047 
        1.28819         206.852         31.1889 
        1.30392         202.003         30.3115 
        1.31957         202.425          29.472 
        1.33529         197.723         28.6612 
        1.35108         193.452         27.8778 
        1.36674         192.658         27.1294 
         1.3824         190.445         26.4093 
        1.39811         188.498         25.7129 
        1.41389          184.63         25.0391 
        1.42964          182.36         24.3907 
        1.44531         179.746         23.7684 
        1.46101         177.751         23.1666 
        1.47667         174.231         22.5874 
        1.49229         172.492         22.0297 
        1.50793         169.522         21.4902 
        1.52367           168.3         20.9654 
        1.53953         165.288         20.4546 
        1.55526         162.184         19.9649 
        1.57092         161.095         19.4934 
        1.58662          158.86          19.036 
        1.60235         156.332         18.5924 
        1.61809         155.346         18.1627 
        1.63369         152.137         17.7505 
        1.64941          149.41         17.3482 
        1.66519         148.417         16.9569 
        1.68085         146.953         16.5805 
        1.69652         144.607         16.2154 
        1.71228          142.09         15.8592 
        1.72806         140.488         15.5135 
        1.74368         139.438         15.1816 
        1.75933         136.874         14.8588 
        1.77505         135.409         14.5438 
        1.79081         134.453         14.2375 
         1.8065         132.676         13.9413 
        1.82218         130.024         13.6538 
        1.83797          128.98         13.3724 
        1.85367         127.438         13.1006 
        1.86928         125.279         12.8379 
        1.88497          123.28         12.5811 
        1.90073         122.138         12.3303 
        1.91647         120.663         12.0866 
        1.93218         119.132           11.85 
        1.94787         117.566         11.6201 
        1.96363         116.013         11.3954 
        1.97935         114.166         11.1771 
        1.99499         112.823         10.9657 
        2.01064         111.572         10.7596 
         2.0264         109.979         10.5574 
        2.04216         108.956         10.3606 
        2.05781         107.834           10.17 
        2.07353         106.832         9.98353 
        2.08928         104.538         9.80135 
        2.10499         103.153          9.6242 
        2.12065         102.193         9.45196 
        2.13633         101.489          9.2838 
        2.15211          99.631         9.11865 
        2.16785         98.1373         8.95798 
        2.18349         97.2638          8.8022 
        2.19916          96.252         8.64979 
        2.21489          95.064          8.5005 
        2.23063         93.6344         8.35463 
         2.2463         92.5193         8.21284 
        2.26194         91.9689          8.0747 
        2.27765         90.4499         7.93903 
        2.29341         89.6236         7.80613 
        2.30914          88.421         7.67655 
        2.32486         87.7151         7.54999 
        2.34061         86.4399         7.42607 
        2.35635         84.8707         7.30504 
        2.37203         83.9615         7.18714 
        2.38768         83.2386         7.07208 
        2.40339         82.2921         6.95912 
        2.41914         81.0095         6.84837 
        2.43483         80.2378         6.74043 
         2.4505         79.3013         6.63499 
        2.46622          78.168         6.53145 
        2.48195         77.3876         6.43011 
        2.49759         76.5585         6.33147 
        2.51328         75.8958         6.23464 
        2.52906         74.7198         6.13922 
        2.54479         74.0761         6.04616 
        2.56049         73.2087          5.9552 
        2.57618         72.4842          5.8662 
        2.59189         71.4659         5.77889 
        2.60758         70.7114         5.69349 
        2.62325         69.8515         5.60992 
        2.63898         69.0946         5.52773 
        2.65468         68.2149         5.44737 
        2.67044          67.462         5.36826 
        2.68618         66.8084         5.29091 
        2.70184         66.4613         5.21538 
        2.71755         65.5558         5.14115 
        2.73329          64.769         5.06825 
        2.74897         64.0985           4.997 
        2.76462         63.3373         4.92727 
        2.78034         62.5307         4.85859 
        2.79607         61.6711         4.79115 
        2.81179         61.2861         4.72506 
        2.82749         60.4746          4.6603 
        2.84321         59.9959         4.59668 
        2.85893         59.1961         4.53426 
        2.87462         58.5858         4.47311 
        2.89033         57.9512         4.41303 
        2.90605         57.1671         4.35401 
        2.92176         56.9229         4.29609 
        2.93747         56.3793         4.23926 
        2.95318         55.6546         4.18344 
        2.96891         54.9148         4.12861 
        2.98456         54.4331           4.075 
        3.00023         53.6079         4.02226 
        3.01596         53.1866         3.97029 
        3.03164         52.5825         3.91939 
        3.04738         51.9952         3.86924 
         3.0631         51.5131         3.81997 
        3.07883         50.9058         3.77157 
        3.09456         50.5862         3.72401 
        3.11026         49.7995         3.67734 
        3.12596         49.3733         3.63148 
        3.14163         48.8442          3.5865 
        3.15734         48.5241         3.54218 
        3.17308         47.9594         3.49851 
        3.18879         47.5624         3.45569 
        3.20447          46.635         3.41365 
         3.2202         46.5817         3.37218 
         3.2359         46.0538         3.33147 
        3.25157         45.6097         3.29153 
        3.26729         45.1654         3.25212 
        3.28304          44.638         3.21329 
        3.29877         44.1968         3.17513 
        3.31446         43.5954         3.13768 
        3.33014         43.3235         3.10087 
        3.34585         43.1269         3.06459 
        3.36158         42.5807         3.02884 
        3.37727         42.0371         2.99376 
        3.39294         41.7029         2.95928 
        3.40867         41.1763         2.92522 
        3.42439          40.763         2.89171 
        3.44008         40.3588         2.85879 
        3.45578         39.9392         2.82636 
        3.47153         39.5984         2.79436 
        3.48724         39.2969         2.76291 
        3.50292         38.9669         2.73202 
        3.51859         38.4067         2.70161 
        3.53431         38.0172         2.67157 
        3.55007          37.656         2.64192 
        3.56577         37.3297         2.61284 
        3.58146         36.9617          2.5842 
        3.59719         36.5625         2.55593 
        3.61292         36.3181         2.52809 
        3.62859         35.9917         2.50076 
        3.64429         35.6468         2.47379 
        3.66003         35.2296         2.44714 
        3.67578         34.8468         2.42089 
        3.69146         34.6305         2.39512 
        3.70712         34.2756         2.36977 
        3.72284         33.9549          2.3447 
        3.73853         33.6571         2.32003 
        3.75422         33.3426         2.29571 
        3.76993         33.0814         2.27172 
        3.78564         32.7421         2.24807 
        3.80137         32.3953         2.22473 
        3.81707         32.0633         2.20177 
        3.83279         31.8553         2.17911 
        3.84853         31.6083         2.15673 
        3.86424         31.1961         2.13471 
        3.87992         31.0042         2.11304 
        3.89561         30.6894         2.09166 
        3.91134         30.3749         2.07053 
        3.92704          30.167         2.04972 
        3.94273         29.8003         2.02922 
        3.95845         29.5459         2.00896 
        3.97418         29.3518         1.98897 
        3.98988         29.0327         1.96928 
        4.00554          28.723         1.94991 
        4.02125         28.6028         1.93074 
        4.03698         28.2471         1.91181 
        4.05268         28.1499         1.89317 
        4.06839         27.8071         1.87476 
         4.0841         27.5781         1.85661 
        4.09983         27.2567         1.83867 
        4.11555         27.0635         1.82097 
        4.13124         26.8268         1.80355 
        4.14693         26.6141         1.78635 
        4.16266         26.3728         1.76933 
        4.17839         26.0791         1.75255 
        4.19408         25.8619         1.73602 
        4.20977         25.6455          1.7197 
        4.22551         25.4868         1.70354 
        4.24123         25.2317         1.68761 
        4.25691         25.0419         1.67193 
        4.27259         24.8571         1.65644 
        4.28831         24.5448         1.64112 
        4.30404         24.4055         1.62598 
        4.31974         24.1986         1.61106 
        4.33543         23.9577         1.59633 
        4.35116         23.8372         1.58175 
        4.36688         23.5882         1.56737 
        4.38255         23.3756         1.55321 
        4.39825         23.1602          1.5392 
        4.41398         22.8969         1.52533 
         4.4297         22.7428         1.51165 
        4.44541         22.6176         1.49814 
        4.46111         22.4122          1.4848 
        4.47683         22.2136         1.47162 
        4.49251         22.0428         1.45862 
        4.50819         21.7955         1.44579 
         4.5239         21.6638         1.43309 
        4.53962         21.4877         1.42052 
        4.55535         21.3511          1.4081 
        4.57106         21.1108         1.39585 
        4.58678         20.9734         1.38374 
         4.6025         20.8039         1.37177 
        4.61821         20.6688         1.35995 
        4.63391         20.4131         1.34828 
         4.6496         20.2951         1.33675 
        4.66532         20.1436         1.32533 
        4.68103         19.9585         1.31406 
        4.69673         19.7912         1.30293 
        4.71241         19.6037         1.29193 
        4.72811         19.4549         1.28105 
        4.74384         19.3063         1.27028 
        4.75955          19.168         1.25965 
        4.77525         18.9899         1.24914 
        4.79096         18.8719         1.23874 
        4.80669         18.7015         1.22846 
         4.8224         18.5093          1.2183 
        4.83809         18.4041         1.20827 
        4.85379         18.2298         1.19835 
         4.8695         18.1213         1.18853 
        4.88521         17.9903         1.17882 
        4.90093         17.8392         1.16922 
        4.91663          17.688         1.15974 
        4.93234          17.555         1.15035 
        4.94807         17.4045         1.14106 
        4.96377         17.2882         1.13189 
        4.97943         17.1644         1.12283 
        4.99514          17.032         1.11386 
        5.01086         16.8848         1.10497 
        5.02654          16.748         1.09621 
        5.04227         16.6204         1.08751 
          5.058          16.505         1.07891 
        5.07371         16.3755         1.07041 
        5.08942         16.2609         1.06201 
        5.10513         16.1601         1.05369 
        5.12084         16.0253         1.04546 
        5.13656         15.8429         1.03732 
        5.15225         15.7629         1.02927 
        5.16796         15.6414         1.02131 
        5.18369         15.5431         1.01341 
         5.1994         15.3995         1.00562 
        5.21509         15.2787        0.997914 
        5.23079         15.1789         0.99028 
        5.24649         15.0745        0.982732 
        5.26217         14.9603        0.975268 
        5.27788         14.8281        0.967871 
        5.29359         14.6928        0.960549 
        5.30933         14.6109        0.953292 
        5.32504          14.493        0.946122 
        5.34073         14.4015        0.939034 
        5.35646         14.3108        0.932004 
        5.37218         14.1815        0.925045 
        5.38789         14.0668        0.918168 
        5.40357         13.9796        0.911368 
        5.41929         13.8557        0.904623 
        5.43502         13.7412        0.897945 
         5.4507         13.6608         0.89135 
        5.46639         13.5742        0.884821 
        5.48212         13.4441        0.878341 
        5.49786         13.4116        0.871919 
        5.51353         13.2612        0.865593 
        5.52921         13.1849        0.859322 
        5.54495         13.0891        0.853096 
        5.56066         12.9804        0.846938 
        5.57637           12.89        0.840842 
        5.59207         12.7983        0.834811 
        5.60778         12.7102        0.828837 
        5.62346         12.6298         0.82293 
        5.63916         12.5095        0.817074 
        5.65487         12.4453        0.811273 
         5.6706         12.3427        0.805521 
        5.68633           12.24        0.799822 
        5.70203         12.1985        0.794191 
        5.71773         12.0839        0.788614 
        5.73344         11.9947        0.783088 
        5.74916         11.9226         0.77761 
        5.76486         11.8419        0.772192 
        5.78054         11.7507        0.766834 
        5.79626         11.6348        0.761511 
          5.812         11.5955        0.756234 
         5.8277         11.5125        0.751022 
        5.84339         11.4095        0.745859 
        5.85911          11.325        0.740734 
        5.87484         11.2544        0.735659 
        5.89053         11.1874        0.730641 
        5.90623         11.1079        0.725668 
        5.92195         11.0257        0.720733 
        5.93767         10.9514        0.715846 
        5.95336         10.8924        0.711012 
        5.96905         10.8069        0.706225 
        5.98476           10.74        0.701475 
        6.00048         10.6588        0.696767 
        6.01617         10.6021        0.692108 
        6.03185         10.5163        0.687498 
        6.04756         10.4281        0.682919 
        6.06331         10.3602        0.678372 
        6.07903         10.3121        0.673875 
        6.09473          10.221        0.669423 
        6.11044         10.1746        0.665008 
        6.12616         10.0878        0.660633 
        6.14186         10.0246        0.656302 
        6.15755         9.94488         0.65201 
        6.17326         9.90317        0.647753 
        6.18898         9.83698        0.643532 
        6.20467         9.74208        0.639356 
        6.22036          9.7043        0.635217 
         6.2361          9.6251        0.631104 
         6.2518         9.55962        0.627034 
        6.26748         9.49868        0.623009 
        6.28319          9.4482        0.619007 
        6.29893         9.38513        0.615038 
        6.31463         9.30697         0.61111 
        6.33033         9.25854        0.607218 
        6.34604          9.1914        0.603357 
        6.36177         9.13535        0.599525 
        6.37747         9.08779        0.595734 
