# k  (h/Mpc)    Pcb(k)  (Mpc/h)^3    Pcb_linear(k) (Mpc/h)^3   ShotnoiseSubtracted = true
      0.0200456         21160.4         21658.6 
      0.0350414         15031.4           15745 
      0.0492313         11202.8         11440.1 
      0.0637834         9695.06         9510.01 
      0.0800726          7650.3         7547.86 
       0.096163         5303.96         5476.63 
       0.111083         4262.07          4368.3 
       0.126058          3925.3          3871.2 
       0.142273         3399.15         3279.76 
       0.158546         2970.97         2590.32 
        0.17375         2376.56         2182.35 
       0.188953         2323.59         1976.06 
       0.204907          2183.6         1748.41 
       0.220756         1891.83         1479.26 
        0.23588         1690.01         1286.83 
         0.2514         1471.18         1169.07 
       0.267535         1470.67         1057.81 
       0.283568         1333.49         932.847 
       0.299022         1261.11         831.119 
       0.314451         1202.13         759.586 
       0.330372         1103.46         696.835 
       0.346141          1053.5         632.484 
       0.361624         1012.51         574.841 
       0.377134         942.525         528.945 
       0.392932         905.214         489.422 
       0.408854         887.207         451.153 
       0.424564         821.378         415.834 
       0.440253         807.243         385.526 
       0.455999         776.741         359.172 
       0.471626         747.744         334.954 
        0.48727         717.038         312.298 
       0.502856         697.299         291.946 
       0.518488         690.031         273.786 
       0.534347         646.554         256.904 
       0.550082         629.438         241.338 
       0.565732         627.071         227.097 
       0.581496         591.792         214.054 
       0.597222         580.855         202.093 
       0.612804         569.445         191.093 
       0.628434         552.982         180.841 
       0.644267         538.609         171.257 
       0.660051         522.152         162.423 
       0.675724         517.294         154.266 
       0.691403         499.986         146.662 
       0.707174         483.606         139.528 
       0.722871         478.104         132.897 
        0.73838         469.533         126.767 
       0.754018         458.499         120.978 
       0.769845         449.777         115.488 
        0.78569         442.238         110.334 
       0.801365         430.895         105.545 
       0.817031         418.457         101.045 
       0.832809         415.425         96.7807 
       0.848511         406.024         92.7824 
       0.864097         394.455         89.0385 
       0.879701         389.313         85.4987 
       0.895507         386.246         82.1104 
       0.911279           374.5         78.9136 
        0.92691         369.619         75.9143 
       0.942635         360.807          73.055 
       0.958396           352.1         70.3376 
       0.974128         346.653          67.764 
       0.989692         344.002         65.3451 
        1.00528         335.138         63.0412 
        1.02113         333.449         60.8127 
        1.03692         323.688         58.7007 
        1.05264         321.827          56.699 
        1.06832         313.094         54.7942 
        1.08405          308.79         52.9722 
        1.09979         303.201         51.2323 
        1.11537         297.986         49.5881 
        1.13105         292.591         48.0065 
        1.14679         286.426         46.4881 
        1.16256         281.246         45.0326 
        1.17828         279.847         43.6445 
        1.19395         272.778         42.3198 
         1.2097         270.063         41.0435 
        1.22537         264.083         39.8262 
          1.241         262.457         38.6621 
        1.25666         257.121         37.5418 
        1.27241         253.666         36.4608 
        1.28819         249.905         35.4207 
        1.30392         243.902         34.4243 
        1.31957         244.018         33.4708 
        1.33529         238.775         32.5501 
        1.35108         233.402         31.6604 
        1.36674         230.967         30.8105 
         1.3824         229.544         29.9926 
        1.39811         225.757         29.2018 
        1.41389         222.567         28.4365 
        1.42964         220.149         27.7001 
        1.44531         216.716         26.9934 
        1.46101         213.325         26.3099 
        1.47667         210.247         25.6522 
        1.49229         208.331         25.0188 
        1.50793         203.325         24.4061 
        1.52367         201.969         23.8101 
        1.53953         199.005           23.23 
        1.55526         194.392         22.6739 
        1.57092         193.378         22.1383 
        1.58662         191.034         21.6188 
        1.60235         187.516         21.1151 
        1.61809         186.127         20.6271 
        1.63369         182.717          20.159 
        1.64941         179.017          19.702 
        1.66519         178.229         19.2576 
        1.68085         175.619         18.8301 
        1.69652         172.951         18.4155 
        1.71228         169.483         18.0111 
        1.72806         167.929         17.6185 
        1.74368         165.712         17.2415 
        1.75933         162.759         16.8749 
        1.77505         161.669         16.5172 
        1.79081         160.085         16.1693 
         1.8065         157.495         15.8329 
        1.82218         155.417         15.5064 
        1.83797         154.094         15.1868 
        1.85367         151.636         14.8781 
        1.86928         149.034         14.5798 
        1.88497         147.298         14.2881 
        1.90073         146.037         14.0033 
        1.91647         144.144         13.7265 
        1.93218         142.495         13.4578 
        1.94787         139.977         13.1967 
        1.96363         137.944         12.9415 
        1.97935             137         12.6936 
        1.99499         134.503         12.4536 
        2.01064         133.295         12.2195 
         2.0264         131.525         11.9899 
        2.04216         129.836         11.7663 
        2.05781         128.695         11.5499 
        2.07353         127.275         11.3381 
        2.08928         124.775         11.1312 
        2.10499         123.697           10.93 
        2.12065         121.592         10.7344 
        2.13633         120.949         10.5435 
        2.15211         118.385         10.3559 
        2.16785         116.966         10.1734 
        2.18349         116.086         9.99651 
        2.19916         114.671         9.82343 
        2.21489         113.279         9.65388 
        2.23063         111.279         9.48822 
         2.2463         110.251         9.32719 
        2.26194         108.525         9.17031 
        2.27765         107.619         9.01623 
        2.29341         106.404          8.8653 
        2.30914         105.309         8.71813 
        2.32486         103.897          8.5744 
        2.34061         102.681         8.43366 
        2.35635         101.403         8.29622 
        2.37203         100.059         8.16231 
        2.38768         98.9413         8.03164 
        2.40339         97.9156         7.90336 
        2.41914         96.6009         7.77759 
        2.43483         95.6845         7.65499 
         2.4505         94.5184         7.53525 
        2.46622         93.4208         7.41766 
        2.48195          92.172         7.30258 
        2.49759         90.8326         7.19055 
        2.51328         90.5745         7.08058 
        2.52906         88.8843         6.97221 
        2.54479         88.0291         6.86652 
        2.56049         87.0233         6.76323 
        2.57618         85.9935         6.66215 
        2.59189          85.058         6.56299 
        2.60758         84.2546           6.466 
        2.62325          83.134         6.37109 
        2.63898         81.8911         6.27776 
        2.65468         81.1212         6.18649 
        2.67044         80.3216         6.09665 
        2.68618         79.3589         6.00879 
        2.70184         78.9533         5.92303 
        2.71755         77.7069         5.83872 
        2.73329         76.9702         5.75592 
        2.74897         76.0491         5.67501 
        2.76462         75.0099         5.59582 
        2.78034         74.4705         5.51782 
        2.79607         73.0774         5.44123 
        2.81179         72.4319         5.36618 
        2.82749          71.626         5.29263 
        2.84321         71.1372         5.22037 
        2.85893           70.31         5.14949 
        2.87462          69.314         5.08004 
        2.89033         68.4872         5.01181 
        2.90605         67.8536         4.94478 
        2.92176         67.0718           4.879 
        2.93747          66.659         4.81446 
        2.95318         65.6956         4.75107 
        2.96891         65.2834         4.68879 
        2.98456         64.5944         4.62791 
        3.00023         63.5982         4.56802 
        3.01596         63.1031           4.509 
        3.03164          62.233         4.45119 
        3.04738         61.7886         4.39423 
         3.0631         61.0757         4.33828 
        3.07883         60.4938         4.28331 
        3.09456         59.8258         4.22929 
        3.11026         59.0816         4.17629 
        3.12596           58.47         4.12421 
        3.14163         57.9626         4.07313 
        3.15734         57.4093          4.0228 
        3.17308         56.5852          3.9732 
        3.18879         56.3277         3.92457 
        3.20447         55.4052         3.87683 
         3.2202         55.1115         3.82973 
         3.2359         54.3887          3.7835 
        3.25157         53.8345         3.73814 
        3.26729         53.4139         3.69338 
        3.28304          52.945         3.64928 
        3.29877         52.3283         3.60595 
        3.31446         51.5378         3.56341 
        3.33014         51.2635         3.52161 
        3.34585         50.7762          3.4804 
        3.36158         50.2616          3.4398 
        3.37727         49.8628         3.39997 
        3.39294         49.3647         3.36081 
        3.40867         48.7898         3.32212 
        3.42439         48.2845         3.28406 
        3.44008         47.8864         3.24668 
        3.45578         47.3043         3.20985 
        3.47153         46.9011          3.1735 
        3.48724         46.3673         3.13779 
        3.50292         46.1148          3.1027 
        3.51859         45.5626         3.06817 
        3.53431         45.2068         3.03406 
        3.55007         44.5861         3.00039 
        3.56577         44.3468         2.96735 
        3.58146         43.7731         2.93483 
        3.59719         43.4612         2.90272 
        3.61292          42.881         2.87111 
        3.62859          42.595         2.84008 
        3.64429          42.216         2.80945 
        3.66003         41.8262         2.77918 
        3.67578         41.2923         2.74936 
        3.69146         41.0072          2.7201 
        3.70712         40.5915         2.69131 
        3.72284         40.1245         2.66284 
        3.73853         39.8292         2.63482 
        3.75422         39.2902          2.6072 
        3.76993         39.1119         2.57995 
        3.78564         38.7284          2.5531 
        3.80137           38.37         2.52659 
        3.81707         38.0339         2.50051 
        3.83279         37.7992         2.47478 
        3.84853         37.3418         2.44937 
        3.86424         36.9743         2.42436 
        3.87992         36.7668         2.39974 
        3.89561          36.373         2.37546 
        3.91134          35.916         2.35147 
        3.92704         35.7674         2.32783 
        3.94273         35.3005         2.30455 
        3.95845         35.1618         2.28154 
        3.97418         34.7791         2.25884 
        3.98988         34.4966         2.23648 
        4.00554         34.1508         2.21448 
        4.02125         33.8172         2.19271 
        4.03698         33.5142         2.17121 
        4.05268          33.243         2.15004 
        4.06839         32.9049         2.12913 
         4.0841         32.6227         2.10852 
        4.09983         32.3636         2.08814 
        4.11555         32.0681         2.06804 
        4.13124         31.8475         2.04827 
        4.14693         31.4821         2.02873 
        4.16266         31.2448          2.0094 
        4.17839         30.8997         1.99034 
        4.19408         30.6869         1.97157 
        4.20977         30.3893         1.95303 
        4.22551         30.0932         1.93468 
        4.24123         29.9832         1.91659 
        4.25691         29.7001         1.89878 
        4.27259         29.4064         1.88119 
        4.28831         29.1234         1.86379 
        4.30404          28.966         1.84659 
        4.31974         28.6035         1.82965 
        4.33543         28.3773         1.81293 
        4.35116          28.246         1.79637 
        4.36688         27.9321         1.78003 
        4.38255           27.68         1.76396 
        4.39825         27.4281         1.74804 
        4.41398         27.2621         1.73229 
         4.4297         26.9995         1.71676 
        4.44541         26.7454         1.70141 
        4.46111         26.5416         1.68627 
        4.47683         26.3802         1.67129 
        4.49251         26.0904         1.65653 
        4.50819         25.9273         1.64196 
         4.5239         25.6925         1.62753 
        4.53962         25.4803         1.61326 
        4.55535          25.294         1.59916 
        4.57106         25.0351         1.58525 
        4.58678           24.86         1.57149 
         4.6025         24.6297          1.5579 
        4.61821         24.4712         1.54447 
        4.63391         24.2657         1.53121 
         4.6496           24.06         1.51812 
        4.66532         23.8847         1.50516 
        4.68103         23.6628         1.49236 
        4.69673         23.5012         1.47971 
        4.71241         23.3424         1.46723 
        4.72811         23.1046         1.45487 
        4.74384         22.9365         1.44263 
        4.75955         22.8016         1.43056 
        4.77525         22.5483         1.41863 
        4.79096         22.4051         1.40682 
        4.80669          22.225         1.39514 
         4.8224         22.0692         1.38361 
        4.83809         21.8669         1.37221 
        4.85379         21.6309         1.36094 
         4.8695         21.5405         1.34979 
        4.88521         21.3535         1.33877 
        4.90093         21.1119         1.32787 
        4.91663         20.9746         1.31709 
        4.93234         20.8649         1.30643 
        4.94807         20.6143         1.29588 
        4.96377         20.5233         1.28546 
        4.97943         20.4046         1.27518 
        4.99514         20.1814         1.26499 
        5.01086         20.0639          1.2549 
        5.02654         19.8569         1.24495 
        5.04227         19.7715         1.23507 
          5.058         19.5567          1.2253 
        5.07371         19.4188         1.21565 
        5.08942          19.251          1.2061 
        5.10513         19.1499         1.19666 
        5.12084         18.9876         1.18731 
        5.13656         18.7794         1.17806 
        5.15225         18.7155         1.16893 
        5.16796         18.5923         1.15988 
        5.18369          18.393         1.15092 
         5.1994         18.3267         1.14207 
        5.21509          18.084         1.13331 
        5.23079         18.0168         1.12464 
        5.24649         17.8736         1.11607 
        5.26217         17.7551          1.1076 
        5.27788         17.5906         1.09919 
        5.29359         17.4658         1.09088 
        5.30933         17.3007         1.08264 
        5.32504         17.1984          1.0745 
        5.34073          17.066         1.06645 
        5.35646         16.9596         1.05846 
        5.37218         16.8131         1.05056 
        5.38789         16.6875         1.04275 
        5.40357          16.556         1.03503 
        5.41929         16.4771         1.02737 
        5.43502         16.3383         1.01978 
         5.4507         16.2295         1.01229 
        5.46639         16.1072         1.00488 
        5.48212         15.9772        0.997518 
        5.49786         15.8345        0.990224 
        5.51353         15.7409        0.983039 
        5.52921         15.6516        0.975918 
        5.54495          15.554        0.968847 
        5.56066         15.4133        0.961854 
        5.57637         15.3107        0.954931 
        5.59207         15.1716        0.948081 
        5.60778         15.0961        0.941297 
        5.62346         15.0018        0.934588 
        5.63916         14.8784        0.927938 
        5.65487         14.7545        0.921349 
         5.6706          14.646        0.914817 
        5.68633         14.5494        0.908345 
        5.70203         14.4567        0.901949 
        5.71773          14.371        0.895616 
        5.73344         14.2408        0.889341 
        5.74916         14.1634        0.883119 
        5.76486         14.0659        0.876966 
        5.78054         13.9581         0.87088 
        5.79626         13.8638        0.864836 
          5.812         13.7478        0.858842 
         5.8277         13.6514        0.852923 
        5.84339         13.5545         0.84706 
        5.85911         13.4674         0.84124 
        5.87484         13.3574        0.835476 
        5.89053          13.285        0.829778 
        5.90623         13.1983        0.824129 
        5.92195         13.0945        0.818524 
        5.93767         12.9957        0.812974 
        5.95336            12.9        0.807484 
        5.96905         12.8413        0.802048 
        5.98476         12.7235        0.796653 
        6.00048         12.6516        0.791306 
        6.01617         12.5689        0.786016 
        6.03185         12.4819         0.78078 
        6.04756         12.3999         0.77558 
        6.06331         12.3068        0.770415 
        6.07903         12.2272        0.765309 
        6.09473         12.1268        0.760253 
        6.11044         12.0656        0.755239 
        6.12616         11.9776         0.75027 
        6.14186         11.9089        0.745352 
        6.15755         11.8079        0.740477 
        6.17326         11.7281        0.735642 
        6.18898         11.6732        0.730848 
        6.20467         11.5993        0.726106 
        6.22036         11.4901        0.721406 
         6.2361         11.4331        0.716734 
         6.2518         11.3706        0.712112 
        6.26748          11.295        0.707541 
        6.28319         11.2049        0.702997 
        6.29893         11.1253        0.698489 
        6.31463         11.0429        0.694028 
        6.33033         10.9767        0.689607 
        6.34604         10.9361        0.685222 
        6.36177         10.8233        0.680871 
        6.37747         10.7665        0.676566 
