# k  (h/Mpc)    Pcb(k)  (Mpc/h)^3    Pcb_linear(k) (Mpc/h)^3   ShotnoiseSubtracted = true
      0.0200456         17018.8         17389.4 
      0.0350414         12143.8         12641.5 
      0.0492313         9038.95          9185.1 
      0.0637834            7787         7635.49 
      0.0800726         6151.49          6060.1 
       0.096163         4275.44         4397.13 
       0.111083          3419.5         3507.26 
       0.126058         3153.11         3108.15 
       0.142273         2728.34         2633.29 
       0.158546         2344.92         2079.74 
        0.17375         1874.46         1752.18 
       0.188953          1825.8         1586.56 
       0.204907         1716.39         1403.78 
       0.220756         1477.43         1187.69 
        0.23588         1311.65         1033.18 
         0.2514         1140.74         938.637 
       0.267535         1131.88         849.305 
       0.283568         1026.16         748.973 
       0.299022         966.004         667.296 
       0.314451         918.767         609.864 
       0.330372         845.346         559.481 
       0.346141         788.951         507.815 
       0.361624         758.529         461.534 
       0.377134         704.355         424.684 
       0.392932         677.474         392.952 
       0.408854         657.136         362.226 
       0.424564          613.97         333.869 
       0.440253         602.938         309.535 
       0.455999         571.954         288.376 
       0.471626         545.349         268.931 
        0.48727         524.981         250.741 
       0.502856          510.56           234.4 
       0.518488         504.963          219.82 
       0.534347         471.715         206.266 
       0.550082         453.643         193.768 
       0.565732         453.091         182.334 
       0.581496         425.904         171.862 
       0.597222         419.577         162.258 
       0.612804         408.392         153.427 
       0.628434         394.041         145.196 
       0.644267         383.436           137.5 
       0.660051         372.674         130.407 
       0.675724         368.509         123.858 
       0.691403         356.826         117.753 
       0.707174         344.483         112.025 
       0.722871         340.263         106.701 
        0.73838         335.447          101.78 
       0.754018         325.846         97.1322 
       0.769845         316.653          92.724 
        0.78569         315.268         88.5857 
       0.801365         304.974         84.7412 
       0.817031         295.313         81.1283 
       0.832809         293.572         77.7042 
       0.848511         285.531          74.494 
       0.864097         280.559         71.4881 
       0.879701         276.687          68.646 
       0.895507         271.122         65.9256 
       0.911279         262.186         63.3589 
        0.92691         261.189         60.9508 
       0.942635          254.84         58.6551 
       0.958396         250.853         56.4733 
       0.974128         246.263          54.407 
       0.989692         241.989         52.4649 
        1.00528         238.336         50.6151 
        1.02113         235.995         48.8259 
        1.03692         230.279         47.1301 
        1.05264         226.566         45.5231 
        1.06832         222.108         43.9937 
        1.08405         218.148         42.5308 
        1.09979         214.979         41.1339 
        1.11537         211.329         39.8138 
        1.13105         206.474         38.5439 
        1.14679         206.396         37.3248 
        1.16256         202.387         36.1562 
        1.17828          198.71         35.0417 
        1.19395         195.352         33.9781 
         1.2097         195.107         32.9534 
        1.22537         190.369          31.976 
          1.241         188.954         31.0414 
        1.25666         184.926         30.1419 
        1.27241           182.2          29.274 
        1.28819         180.064         28.4389 
        1.30392         176.272         27.6389 
        1.31957         176.336         26.8734 
        1.33529         171.702         26.1341 
        1.35108         169.168         25.4198 
        1.36674         168.221         24.7374 
         1.3824          165.63         24.0807 
        1.39811         164.807         23.4458 
        1.41389         161.141         22.8314 
        1.42964         158.613         22.2401 
        1.44531         156.349         21.6727 
        1.46101         154.785          21.124 
        1.47667         151.782         20.5959 
        1.49229         149.896         20.0873 
        1.50793         148.263         19.5954 
        1.52367          146.98         19.1168 
        1.53953         143.867         18.6511 
        1.55526         141.959         18.2046 
        1.57092         140.521         17.7746 
        1.58662         138.383         17.3575 
        1.60235         136.763         16.9531 
        1.61809          135.22         16.5613 
        1.63369         133.041         16.1854 
        1.64941         131.128         15.8186 
        1.66519         129.466         15.4618 
        1.68085          128.41         15.1185 
        1.69652         125.966         14.7856 
        1.71228         124.635         14.4609 
        1.72806          123.14         14.1457 
        1.74368         122.148          13.843 
        1.75933         120.131         13.5487 
        1.77505         118.578         13.2615 
        1.79081         117.637         12.9821 
         1.8065         116.016          12.712 
        1.82218         113.812         12.4499 
        1.83797         112.276         12.1934 
        1.85367         111.376         11.9455 
        1.86928         109.783          11.706 
        1.88497         107.701         11.4718 
        1.90073         106.974         11.2431 
        1.91647         105.628         11.0209 
        1.93218         104.397         10.8051 
        1.94787         103.095         10.5955 
        1.96363         101.872         10.3906 
        1.97935         100.047         10.1916 
        1.99499         99.2863         9.99888 
        2.01064         98.1036          9.8109 
         2.0264         96.6367         9.62657 
        2.04216         95.9172         9.44707 
        2.05781         94.5972         9.27329 
        2.07353         93.3795         9.10327 
        2.08928         92.0198         8.93715 
        2.10499         90.5489         8.77562 
        2.12065         90.1749         8.61857 
        2.13633         89.2194         8.46523 
        2.15211          88.019         8.31465 
        2.16785         86.4547         8.16814 
        2.18349         85.4252          8.0261 
        2.19916         84.6638         7.88713 
        2.21489         83.6216           7.751 
        2.23063         82.3425         7.61799 
         2.2463         81.5625          7.4887 
        2.26194         81.3725         7.36274 
        2.27765         79.6718         7.23904 
        2.29341         78.8505         7.11786 
        2.30914          77.792          6.9997 
        2.32486         77.1214         6.88429 
        2.34061         76.2041          6.7713 
        2.35635         74.8273         6.66095 
        2.37203         73.9459         6.55343 
        2.38768         73.2671         6.44852 
        2.40339         72.4806         6.34553 
        2.41914         71.4731         6.24454 
        2.43483         71.1276         6.14611 
         2.4505         70.0338         6.04997 
        2.46622         69.2992         5.95556 
        2.48195         68.4618         5.86316 
        2.49759          67.696         5.77321 
        2.51328         66.9664         5.68492 
        2.52906         66.2948         5.59792 
        2.54479         65.6009         5.51306 
        2.56049         64.5656         5.43013 
        2.57618         64.0009         5.34897 
        2.59189         63.0033         5.26935 
        2.60758         62.3785         5.19148 
        2.62325         61.7705         5.11528 
        2.63898          61.067         5.04034 
        2.65468         60.4986         4.96707 
        2.67044         59.6238         4.89493 
        2.68618         59.2373          4.8244 
        2.70184         58.7953         4.75554 
        2.71755         58.0952         4.68785 
        2.73329         57.1846         4.62137 
        2.74897         56.7462          4.5564 
        2.76462         55.9814         4.49283 
        2.78034         55.2664          4.4302 
        2.79607         54.7529         4.36871 
        2.81179         54.1568         4.30845 
        2.82749         53.6126         4.24939 
        2.84321         53.0887         4.19138 
        2.85893         52.4185         4.13447 
        2.87462         51.8532         4.07871 
        2.89033         51.2762         4.02393 
        2.90605         50.6301         3.97011 
        2.92176          50.218          3.9173 
        2.93747         49.7559         3.86548 
        2.95318         49.0308         3.81458 
        2.96891         48.3639         3.76458 
        2.98456         48.0898          3.7157 
        3.00023         47.3456         3.66761 
        3.01596         47.0186         3.62023 
        3.03164         46.4702         3.57381 
        3.04738          46.066         3.52808 
         3.0631         45.6086         3.48316 
        3.07883         45.1241         3.43902 
        3.09456         44.7178         3.39565 
        3.11026         44.1579          3.3531 
        3.12596         43.7832         3.31128 
        3.14163         43.1854         3.27028 
        3.15734         42.7835         3.22987 
        3.17308         42.4962         3.19004 
        3.18879         42.0551           3.151 
        3.20447         41.3665         3.11266 
         3.2202         41.1749         3.07485 
         3.2359         40.6864         3.03773 
        3.25157         40.4136         3.00131 
        3.26729         39.8606         2.96538 
        3.28304          39.361         2.92997 
        3.29877         39.0276         2.89518 
        3.31446         38.6738         2.86103 
        3.33014         38.2806         2.82746 
        3.34585          38.061         2.79438 
        3.36158         37.6447         2.76178 
        3.37727         37.1264          2.7298 
        3.39294         36.8004         2.69836 
        3.40867         36.3915          2.6673 
        3.42439         36.0909         2.63674 
        3.44008         35.7469         2.60672 
        3.45578         35.3371         2.57715 
        3.47153         35.0285         2.54797 
        3.48724         34.6967          2.5193 
        3.50292         34.4112         2.49113 
        3.51859         33.9033         2.46341 
        3.53431         33.6621         2.43602 
        3.55007         33.3578         2.40898 
        3.56577         33.1102         2.38246 
        3.58146         32.7221         2.35635 
        3.59719         32.4201         2.33057 
        3.61292         32.1542         2.30518 
        3.62859         31.8044         2.28027 
        3.64429         31.5049         2.25568 
        3.66003         31.2119         2.23137 
        3.67578         30.8795         2.20743 
        3.69146         30.6756         2.18394 
        3.70712         30.3221         2.16083 
        3.72284         30.1382         2.13796 
        3.73853         29.8459         2.11547 
        3.75422          29.562         2.09329 
        3.76993         29.2777         2.07142 
        3.78564         29.0285         2.04986 
        3.80137         28.6892         2.02857 
        3.81707         28.4364         2.00763 
        3.83279         28.2082         1.98697 
        3.84853         28.0279         1.96657 
        3.86424         27.7058         1.94649 
        3.87992         27.5103         1.92673 
        3.89561         27.2285         1.90723 
        3.91134          26.947         1.88797 
        3.92704         26.7335         1.86899 
        3.94273           26.54          1.8503 
        3.95845         26.0975         1.83182 
        3.97418          26.024          1.8136 
        3.98988         25.7947         1.79564 
        4.00554         25.5151         1.77798 
        4.02125         25.3785         1.76051 
        4.03698         24.9875         1.74324 
        4.05268         24.9247         1.72624 
        4.06839         24.6559         1.70946 
         4.0841         24.4488         1.69291 
        4.09983         24.2385         1.67655 
        4.11555         24.0355         1.66041 
        4.13124         23.7747         1.64453 
        4.14693         23.6183         1.62885 
        4.16266         23.3215         1.61333 
        4.17839         23.1135         1.59802 
        4.19408         22.9817         1.58295 
        4.20977         22.7653         1.56807 
        4.22551          22.596         1.55334 
        4.24123         22.3267         1.53881 
        4.25691         22.2103         1.52451 
        4.27259         21.9853         1.51039 
        4.28831         21.7955         1.49642 
        4.30404         21.5592         1.48261 
        4.31974         21.4721         1.46901 
        4.33543         21.2064         1.45558 
        4.35116         21.0623         1.44229 
        4.36688         20.8759         1.42917 
        4.38255          20.747         1.41626 
        4.39825         20.5411         1.40349 
        4.41398         20.3939         1.39084 
         4.4297         20.2398         1.37837 
        4.44541         20.0614         1.36605 
        4.46111         19.9134         1.35389 
        4.47683         19.6782         1.34186 
        4.49251         19.5879         1.33001 
        4.50819         19.4063         1.31831 
         4.5239         19.2287         1.30673 
        4.53962         19.1109         1.29527 
        4.55535         18.9349         1.28395 
        4.57106         18.8121         1.27278 
        4.58678         18.6205         1.26173 
         4.6025         18.4744         1.25082 
        4.61821         18.3203         1.24004 
        4.63391         18.1722          1.2294 
         4.6496         17.9998         1.21888 
        4.66532         17.8628         1.20848 
        4.68103         17.7127          1.1982 
        4.69673         17.5802         1.18805 
        4.71241         17.4584         1.17802 
        4.72811         17.3122          1.1681 
        4.74384         17.1616         1.15828 
        4.75955         17.0432         1.14858 
        4.77525         16.9144           1.139 
        4.79096         16.7798         1.12952 
        4.80669         16.6549         1.12014 
         4.8224         16.5058         1.11088 
        4.83809         16.3624         1.10174 
        4.85379         16.2586         1.09269 
         4.8695         16.1358         1.08373 
        4.88521         16.0178         1.07488 
        4.90093         15.8761         1.06613 
        4.91663         15.7441         1.05748 
        4.93234         15.6277         1.04892 
        4.94807         15.4806         1.04045 
        4.96377         15.4249         1.03209 
        4.97943         15.2831         1.02383 
        4.99514         15.1804         1.01565 
        5.01086         15.0348         1.00755 
        5.02654         14.9204        0.999554 
        5.04227          14.798        0.991625 
          5.058         14.7043        0.983778 
        5.07371         14.5947        0.976031 
        5.08942         14.4981        0.968367 
        5.10513         14.3542        0.960784 
        5.12084         14.2548        0.953278 
        5.13656         14.1599        0.945855 
        5.15225         14.0463        0.938522 
        5.16796         13.8877        0.931256 
        5.18369         13.8188         0.92406 
         5.1994         13.6999        0.916952 
        5.21509            13.6        0.909926 
        5.23079         13.5241        0.902966 
        5.24649         13.3939        0.896083 
        5.26217         13.3258        0.889277 
        5.27788         13.2063        0.882532 
        5.29359         13.1129        0.875856 
        5.30933         13.0059        0.869239 
        5.32504         12.9388        0.862701 
        5.34073          12.827        0.856238 
        5.35646         12.7656        0.849828 
        5.37218         12.6242        0.843482 
        5.38789         12.5536        0.837211 
        5.40357          12.461        0.831012 
        5.41929         12.3629        0.824861 
        5.43502         12.2684        0.818772 
         5.4507         12.1761        0.812758 
        5.46639         12.0981        0.806805 
        5.48212         12.0203        0.800896 
        5.49786         11.9282         0.79504 
        5.51353         11.8305        0.789272 
        5.52921          11.766        0.783555 
        5.54495         11.6711        0.777877 
        5.56066         11.5899        0.772262 
        5.57637         11.4973        0.766704 
        5.59207         11.4096        0.761205 
        5.60778         11.3298        0.755757 
        5.62346         11.2652        0.750371 
        5.63916         11.2022        0.745032 
        5.65487         11.0967        0.739742 
         5.6706         11.0372        0.734497 
        5.68633         10.9506        0.729301 
        5.70203         10.8642        0.724166 
        5.71773         10.7782        0.719081 
        5.73344         10.7209        0.714042 
        5.74916         10.6713        0.709047 
        5.76486         10.5741        0.704107 
        5.78054         10.4973        0.699221 
        5.79626         10.4204        0.694367 
          5.812          10.343        0.689555 
         5.8277          10.285        0.684803 
        5.84339         10.1925        0.680095 
        5.85911         10.1295        0.675423 
        5.87484         10.0716        0.670795 
        5.89053         9.98803         0.66622 
        5.90623         9.93732        0.661685 
        5.92195         9.86584        0.657184 
        5.93767         9.77206        0.652728 
        5.95336         9.70668        0.648321 
        5.96905          9.6684        0.643956 
        5.98476         9.59061        0.639625 
        6.00048          9.5166        0.635332 
        6.01617         9.45629        0.631084 
        6.03185         9.36993         0.62688 
        6.04756         9.32024        0.622705 
        6.06331          9.2512        0.618558 
        6.07903         9.19172        0.614458 
        6.09473         9.13441        0.610399 
        6.11044         9.08067        0.606373 
        6.12616         9.02412        0.602384 
        6.14186         8.95711        0.598435 
        6.15755         8.92252        0.594521 
        6.17326         8.83444         0.59064 
        6.18898         8.77407        0.586791 
        6.20467         8.71892        0.582983 
        6.22036         8.65589        0.579209 
         6.2361         8.59992        0.575459 
         6.2518         8.52804        0.571747 
        6.26748         8.49556        0.568077 
        6.28319         8.41612        0.564429 
        6.29893         8.36709        0.560809 
        6.31463         8.32396        0.557228 
        6.33033         8.27279        0.553679 
        6.34604         8.19828        0.550158 
        6.36177         8.16172        0.546664 
        6.37747         8.11021        0.543207 
