# k  (h/Mpc)    Pcb(k)  (Mpc/h)^3    Pcb_linear(k) (Mpc/h)^3   ShotnoiseSubtracted = true
      0.0200456         9052.83         9217.76 
      0.0350414         6527.17            6701 
      0.0492313         4838.89         4868.82 
      0.0637834         4123.58         4047.41 
      0.0800726         3264.94         3212.33 
       0.096163         2288.73         2330.82 
       0.111083         1818.25         1859.12 
       0.126058         1671.84         1647.56 
       0.142273         1442.48         1395.85 
       0.158546          1193.9         1102.43 
        0.17375          961.27         928.794 
       0.188953         921.823         841.002 
       0.204907         864.167         744.115 
       0.220756          730.46         629.566 
        0.23588         641.197         547.668 
         0.2514         562.136         497.551 
       0.267535         541.994         450.198 
       0.283568         491.044         397.014 
       0.299022         455.545         353.719 
       0.314451         423.785         323.275 
       0.330372          391.53         296.569 
       0.346141          353.41         269.181 
       0.361624         338.837         244.649 
       0.377134         316.377         225.116 
       0.392932         295.754         208.295 
       0.408854         283.496         192.008 
       0.424564         270.871         176.976 
       0.440253         258.707         164.078 
       0.455999         243.404         152.862 
       0.471626         225.743         142.554 
        0.48727         219.308         132.912 
       0.502856         211.238          124.25 
       0.518488         207.619         116.522 
       0.534347          196.54         109.337 
       0.550082         183.376         102.712 
       0.565732         178.977         96.6512 
       0.581496         170.584         91.1003 
       0.597222         165.723         86.0095 
       0.612804         158.909         81.3283 
       0.628434         154.575          76.965 
       0.644267         149.304         72.8858 
       0.660051         147.141         69.1261 
       0.675724         143.173         65.6545 
       0.691403         138.823         62.4184 
       0.707174         133.011         59.3822 
       0.722871         131.645           56.56 
        0.73838          128.87         53.9514 
       0.754018         123.793         51.4877 
       0.769845         121.077          49.151 
        0.78569         118.481         46.9574 
       0.801365         115.165         44.9195 
       0.817031         111.111         43.0044 
       0.832809         109.679         41.1893 
       0.848511         106.443         39.4876 
       0.864097         103.841         37.8943 
       0.879701         102.268         36.3877 
       0.895507         99.8745         34.9457 
       0.911279         98.3608         33.5852 
        0.92691         96.4137         32.3087 
       0.942635         93.8629         31.0918 
       0.958396            93.5         29.9353 
       0.974128         90.9616           28.84 
       0.989692         88.7452         27.8105 
        1.00528         86.9515           26.83 
        1.02113          85.948         25.8815 
        1.03692         83.0047         24.9827 
        1.05264         82.9181         24.1308 
        1.06832         80.6454         23.3201 
        1.08405         79.6267         22.5447 
        1.09979         79.0999         21.8042 
        1.11537          76.267         21.1044 
        1.13105         76.5349         20.4313 
        1.14679         75.1273         19.7851 
        1.16256         74.0177         19.1656 
        1.17828         72.0421         18.5748 
        1.19395         71.4629          18.011 
         1.2097         69.6083         17.4679 
        1.22537         69.8088         16.9498 
          1.241         68.0197         16.4544 
        1.25666         66.7065         15.9776 
        1.27241          66.034         15.5175 
        1.28819         64.8433         15.0748 
        1.30392          63.967         14.6508 
        1.31957         63.2794          14.245 
        1.33529         62.1598         13.8531 
        1.35108         61.8778         13.4745 
        1.36674         60.9859         13.1128 
         1.3824          59.644         12.7647 
        1.39811         59.2371         12.4281 
        1.41389         58.2894         12.1024 
        1.42964         57.6149          11.789 
        1.44531         56.5897         11.4882 
        1.46101         55.7188         11.1973 
        1.47667         55.6183         10.9174 
        1.49229         54.7554         10.6479 
        1.50793         54.0882         10.3871 
        1.52367         53.1978         10.1334 
        1.53953         52.7144         9.88654 
        1.55526         52.0374         9.64987 
        1.57092         51.6979         9.42194 
        1.58662         50.9082         9.20085 
        1.60235         50.3761         8.98645 
        1.61809         49.6267         8.77879 
        1.63369          48.825         8.57954 
        1.64941         48.2983         8.38507 
        1.66519         47.5888         8.19594 
        1.68085         47.2418           8.014 
        1.69652         46.5302         7.83754 
        1.71228         46.2429         7.66541 
        1.72806         45.7675         7.49832 
        1.74368         45.0498         7.33789 
        1.75933          44.612         7.18185 
        1.77505         44.1694         7.02962 
        1.79081         43.5815         6.88155 
         1.8065         43.1647         6.73838 
        1.82218         42.6348         6.59942 
        1.83797         42.0574         6.46343 
        1.85367         41.4856         6.33204 
        1.86928         41.1711         6.20509 
        1.88497         40.8402         6.08093 
        1.90073         40.3746         5.95972 
        1.91647         39.9058         5.84193 
        1.93218         39.4825         5.72757 
        1.94787           39.08         5.61645 
        1.96363         38.6589         5.50784 
        1.97935         38.1566         5.40233 
        1.99499         37.7602         5.30019 
        2.01064         37.4742         5.20054 
         2.0264         36.8738         5.10283 
        2.04216         36.4831         5.00769 
        2.05781         36.0361         4.91557 
        2.07353         35.7212         4.82545 
        2.08928         35.5783         4.73739 
        2.10499         35.0671         4.65176 
        2.12065         34.6485         4.56852 
        2.13633         34.5016         4.48724 
        2.15211         33.9251         4.40741 
        2.16785         33.4126         4.32976 
        2.18349         33.2833         4.25446 
        2.19916         32.9941          4.1808 
        2.21489         32.4831         4.10863 
        2.23063         32.2386         4.03813 
         2.2463         31.8427          3.9696 
        2.26194         31.5675         3.90283 
        2.27765         31.2544         3.83726 
        2.29341         30.9643         3.77302 
        2.30914         30.6981         3.71039 
        2.32486         30.2427         3.64921 
        2.34061         30.0822         3.58932 
        2.35635         29.7877         3.53082 
        2.37203         29.5479         3.47383 
        2.38768         29.1301         3.41822 
        2.40339         29.0234         3.36363 
        2.41914         28.6999          3.3101 
        2.43483         28.2759         3.25792 
         2.4505         28.0603         3.20696 
        2.46622          27.833         3.15691 
        2.48195         27.5497         3.10793 
        2.49759          27.293         3.06025 
        2.51328         26.9451         3.01345 
        2.52906         26.8412         2.96733 
        2.54479          26.442         2.92235 
        2.56049         26.1636         2.87839 
        2.57618         25.8811         2.83537 
        2.59189         25.7861         2.79317 
        2.60758          25.545         2.75189 
        2.62325         25.1541          2.7115 
        2.63898         25.1091         2.67178 
        2.65468         24.7196         2.63293 
        2.67044         24.5518          2.5947 
        2.68618         24.2326         2.55731 
        2.70184          24.053         2.52081 
        2.71755         23.9048         2.48493 
        2.73329         23.6147         2.44969 
        2.74897         23.3303         2.41525 
        2.76462         23.2132         2.38155 
        2.78034         23.0475         2.34835 
        2.79607         22.7766         2.31576 
        2.81179         22.5776         2.28381 
        2.82749         22.3739         2.25251 
        2.84321         22.1474         2.22176 
        2.85893         21.8953         2.19159 
        2.87462         21.7124         2.16204 
        2.89033         21.5908           2.133 
        2.90605         21.4115         2.10447 
        2.92176         21.1629         2.07648 
        2.93747         21.0352         2.04901 
        2.95318         20.7441         2.02203 
        2.96891         20.6215         1.99552 
        2.98456         20.3744         1.96961 
        3.00023         20.1935         1.94412 
        3.01596         20.0565           1.919 
        3.03164         19.8544          1.8944 
        3.04738         19.6643         1.87016 
         3.0631          19.505         1.84635 
        3.07883         19.3367         1.82295 
        3.09456         19.1483         1.79996 
        3.11026         18.9924         1.77741 
        3.12596         18.8223         1.75524 
        3.14163         18.6996          1.7335 
        3.15734         18.4723         1.71208 
        3.17308         18.3301         1.69097 
        3.18879         18.1539         1.67027 
        3.20447          18.004         1.64995 
         3.2202         17.8362         1.62991 
         3.2359         17.6534         1.61023 
        3.25157         17.5868         1.59093 
        3.26729         17.4633         1.57188 
        3.28304         17.2386         1.55311 
        3.29877         16.9833         1.53467 
        3.31446         16.9302         1.51657 
        3.33014         16.7724         1.49877 
        3.34585         16.5528         1.48124 
        3.36158         16.4866         1.46396 
        3.37727           16.31         1.44701 
        3.39294         16.1138         1.43034 
        3.40867         16.0251         1.41388 
        3.42439         15.8674         1.39768 
        3.44008         15.7368         1.38177 
        3.45578         15.6042         1.36609 
        3.47153          15.496         1.35062 
        3.48724         15.3369         1.33542 
        3.50292         15.2061         1.32049 
        3.51859         15.1124          1.3058 
        3.53431         14.9763         1.29128 
        3.55007         14.8459         1.27695 
        3.56577         14.7281         1.26289 
        3.58146         14.5988         1.24905 
        3.59719         14.4337         1.23538 
        3.61292         14.3382         1.22193 
        3.62859         14.1883         1.20872 
        3.64429         14.0786         1.19568 
        3.66003         13.9776          1.1828 
        3.67578         13.8959         1.17011 
        3.69146         13.7534         1.15766 
        3.70712         13.6071         1.14541 
        3.72284         13.5399         1.13329 
        3.73853         13.3889         1.12137 
        3.75422         13.2668         1.10961 
        3.76993         13.1962         1.09801 
        3.78564         13.0326         1.08659 
        3.80137         12.9458          1.0753 
        3.81707         12.8479          1.0642 
        3.83279         12.6914         1.05325 
        3.84853          12.648         1.04244 
        3.86424         12.4579         1.03179 
        3.87992         12.4137         1.02132 
        3.89561         12.3211         1.01098 
        3.91134         12.2294         1.00077 
        3.92704         12.0843        0.990713 
        3.94273         11.9999        0.980803 
        3.95845         11.9235         0.97101 
        3.97418         11.8588        0.961348 
        3.98988          11.718        0.951832 
        4.00554         11.6373        0.942469 
        4.02125         11.4909        0.933206 
        4.03698         11.4503        0.924053 
        4.05268         11.3366        0.915044 
        4.06839         11.2544        0.906148 
         4.0841          11.133        0.897373 
        4.09983          11.057        0.888701 
        4.11555         10.9685        0.880148 
        4.13124         10.8642        0.871731 
        4.14693         10.8047        0.863416 
        4.16266         10.7115        0.855191 
        4.17839          10.616        0.847078 
        4.19408          10.538        0.839088 
        4.20977         10.4369        0.831198 
        4.22551         10.3765        0.823391 
        4.24123         10.2978        0.815691 
        4.25691          10.213        0.808112 
        4.27259         10.1079        0.800625 
        4.28831         10.0414        0.793219 
        4.30404         9.95462        0.785899 
        4.31974         9.89538        0.778688 
        4.33543         9.79205        0.771571 
        4.35116         9.72206        0.764526 
        4.36688         9.63543        0.757572 
        4.38255         9.57487        0.750729 
        4.39825         9.51312        0.743957 
        4.41398         9.41233        0.737254 
         4.4297          9.3475        0.730642 
        4.44541         9.26482        0.724111 
        4.46111         9.21389        0.717665 
        4.47683         9.15591        0.711293 
        4.49251         9.07571        0.705012 
        4.50819          8.9815        0.698807 
         4.5239          8.9343        0.692669 
        4.53962         8.88825        0.686596 
        4.55535         8.78635        0.680594 
        4.57106         8.71871        0.674671 
        4.58678         8.63505        0.668818 
         4.6025         8.56173        0.663033 
        4.61821         8.51231        0.657317 
        4.63391         8.44995        0.651676 
         4.6496         8.39991        0.646103 
        4.66532         8.31996        0.640587 
        4.68103         8.25834        0.635138 
        4.69673         8.19687        0.629757 
        4.71241         8.13359        0.624444 
        4.72811         8.06107        0.619184 
        4.74384          8.0289        0.613977 
        4.75955         7.95985        0.608838 
        4.77525         7.90095         0.60376 
        4.79096         7.85114        0.598735 
        4.80669          7.7805        0.593764 
         4.8224         7.72188        0.588855 
        4.83809         7.65877        0.584007 
        4.85379         7.59079         0.57921 
         4.8695         7.54632        0.574463 
        4.88521         7.49914        0.569772 
        4.90093         7.44063        0.565132 
        4.91663         7.36053        0.560548 
        4.93234         7.32534         0.55601 
        4.94807         7.25816        0.551519 
        4.96377         7.21837        0.547086 
        4.97943         7.17925        0.542711 
        4.99514          7.1101        0.538373 
        5.01086         7.04882        0.534078 
        5.02654         7.00386        0.529842 
        5.04227         6.96478        0.525639 
          5.058         6.91857        0.521479 
        5.07371         6.87062        0.517373 
        5.08942         6.80357         0.51331 
        5.10513         6.76123        0.509291 
        5.12084         6.70789        0.505312 
        5.13656           6.659        0.501377 
        5.15225          6.6139         0.49749 
        5.16796         6.58463        0.493638 
        5.18369         6.52317        0.489824 
         5.1994         6.47072        0.486056 
        5.21509         6.42147        0.482332 
        5.23079         6.38203        0.478642 
        5.24649         6.35664        0.474994 
        5.26217          6.3016        0.471386 
        5.27788         6.24707        0.467811 
        5.29359          6.2179        0.464272 
        5.30933         6.17107        0.460764 
        5.32504         6.13554        0.457299 
        5.34073         6.07924        0.453873 
        5.35646         6.02975        0.450475 
        5.37218         6.00208        0.447112 
        5.38789         5.97452        0.443788 
        5.40357          5.9135        0.440501 
        5.41929         5.88426        0.437241 
        5.43502         5.83913        0.434013 
         5.4507         5.80338        0.430825 
        5.46639         5.75216         0.42767 
        5.48212         5.71296        0.424538 
        5.49786         5.69276        0.421434 
        5.51353         5.63784        0.418376 
        5.52921         5.61216        0.415345 
        5.54495         5.56352        0.412336 
        5.56066         5.52936         0.40936 
        5.57637         5.49141        0.406413 
        5.59207         5.45311        0.403498 
        5.60778         5.41092         0.40061 
        5.62346         5.38498        0.397755 
        5.63916         5.34434        0.394925 
        5.65487         5.30493        0.392121 
         5.6706         5.28172        0.389341 
        5.68633         5.23987        0.386586 
        5.70203         5.20322        0.383864 
        5.71773         5.18607        0.381169 
        5.73344         5.13834        0.378498 
        5.74916         5.10505         0.37585 
        5.76486         5.07343        0.373232 
        5.78054         5.03971        0.370642 
        5.79626         5.00184        0.368069 
          5.812         4.97187        0.365518 
         5.8277         4.93309        0.362999 
        5.84339         4.90982        0.360504 
        5.85911          4.8799        0.358027 
        5.87484          4.8502        0.355574 
        5.89053          4.8181        0.353149 
        5.90623         4.78423        0.350745 
        5.92195         4.75232        0.348359 
        5.93767         4.71201        0.345997 
        5.95336         4.69644        0.343661 
        5.96905         4.66621        0.341347 
        5.98476         4.63719        0.339051 
        6.00048          4.6025        0.336775 
        6.01617         4.57664        0.334524 
        6.03185         4.54073        0.332296 
        6.04756         4.51521        0.330082 
        6.06331         4.48632        0.327884 
        6.07903          4.4579        0.325711 
        6.09473         4.42529        0.323559 
        6.11044         4.39231        0.321425 
        6.12616         4.37917        0.319311 
        6.14186         4.34675        0.317217 
        6.15755         4.32217        0.315143 
        6.17326         4.30088        0.313085 
        6.18898         4.26667        0.311045 
        6.20467         4.24001        0.309026 
        6.22036         4.22227        0.307026 
         6.2361         4.18748        0.305038 
         6.2518         4.16917        0.303071 
        6.26748         4.13964        0.301125 
        6.28319         4.11444        0.299191 
        6.29893         4.09199        0.297273 
        6.31463         4.06838        0.295374 
        6.33033         4.03338        0.293493 
        6.34604         4.02021        0.291627 
        6.36177         3.99011        0.289775 
        6.37747         3.97589        0.287942 
