# k  (h/Mpc)    Pcb(k)  (Mpc/h)^3    Pcb_linear(k) (Mpc/h)^3   ShotnoiseSubtracted = true
      0.0200456         15351.3         15674.6 
      0.0350414         10975.4         11394.9 
      0.0492313         8164.14          8279.3 
      0.0637834         7019.36          6882.5 
      0.0800726         5547.65         5462.47 
       0.096163         3860.78          3963.5 
       0.111083         3082.65         3161.39 
       0.126058         2842.85         2801.63 
       0.142273         2458.98          2373.6 
       0.158546         2097.96         1874.65 
        0.17375         1677.88         1579.39 
       0.188953         1630.85          1430.1 
       0.204907         1532.97         1265.35 
       0.220756         1315.37         1070.56 
        0.23588         1164.97         931.295 
         0.2514         1013.68         846.072 
       0.267535         1001.53          765.55 
       0.283568         908.096         675.112 
       0.299022         852.821          601.49 
       0.314451         809.386         549.721 
       0.330372         745.242         504.307 
       0.346141         689.432         457.736 
       0.361624         662.957         416.019 
       0.377134         615.365         382.803 
       0.392932         590.971           354.2 
       0.408854         570.949         326.504 
       0.424564         535.945         300.944 
       0.440253         524.979          279.01 
       0.455999         496.081         259.937 
       0.471626         470.218          242.41 
        0.48727         453.847         226.014 
       0.502856         440.757         211.285 
       0.518488         436.326         198.142 
       0.534347         407.691         185.924 
       0.550082         389.675         174.659 
       0.565732         388.464         164.353 
       0.581496         365.531         154.914 
       0.597222         359.875         146.257 
       0.612804         349.344         138.297 
       0.628434         336.249         130.877 
       0.644267         326.869          123.94 
       0.660051         319.269         117.547 
       0.675724         314.792         111.644 
       0.691403         305.165         106.141 
       0.707174         294.289         100.978 
       0.722871         290.614         96.1788 
        0.73838         286.237         91.7429 
       0.754018         278.343         87.5534 
       0.769845          269.27         83.5799 
        0.78569         268.968         79.8497 
       0.801365         259.574         76.3843 
       0.817031         251.611         73.1278 
       0.832809         249.631         70.0413 
       0.848511         242.752         67.1477 
       0.864097         239.352         64.4382 
       0.879701         235.526         61.8764 
       0.895507         229.955         59.4242 
       0.911279         222.591         57.1107 
        0.92691         222.565           54.94 
       0.942635         216.885         52.8708 
       0.958396         214.643         50.9041 
       0.974128         210.223         49.0416 
       0.989692          205.59          47.291 
        1.00528          203.06         45.6236 
        1.02113         201.206         44.0109 
        1.03692         196.025         42.4823 
        1.05264           192.2         41.0337 
        1.06832         188.859         39.6552 
        1.08405          185.64         38.3366 
        1.09979         183.786         37.0774 
        1.11537         179.563         35.8875 
        1.13105         176.358         34.7429 
        1.14679         176.488          33.644 
        1.16256         173.131         32.5906 
        1.17828         169.624          31.586 
        1.19395         167.069         30.6273 
         1.2097         166.402         29.7036 
        1.22537         162.654         28.8227 
          1.241          160.99         27.9802 
        1.25666         157.978         27.1694 
        1.27241           155.3         26.3871 
        1.28819         153.625         25.6344 
        1.30392         150.954         24.9133 
        1.31957         150.333         24.2232 
        1.33529         146.157         23.5569 
        1.35108         145.155          22.913 
        1.36674         143.798         22.2979 
         1.3824         141.155          21.706 
        1.39811         140.735         21.1337 
        1.41389         137.796         20.5798 
        1.42964         135.047         20.0469 
        1.44531         132.994         19.5354 
        1.46101         131.567         19.0408 
        1.47667         129.585         18.5648 
        1.49229         127.935         18.1064 
        1.50793         126.921          17.663 
        1.52367         125.447         17.2316 
        1.53953          122.76         16.8118 
        1.55526         121.535         16.4093 
        1.57092         120.056         16.0218 
        1.58662          118.16         15.6458 
        1.60235         117.276         15.2812 
        1.61809         115.176         14.9281 
        1.63369         113.979         14.5893 
        1.64941         112.863         14.2586 
        1.66519         110.803          13.937 
        1.68085         110.104         13.6276 
        1.69652         107.419         13.3275 
        1.71228         107.379         13.0348 
        1.72806         105.952         12.7507 
        1.74368         104.699         12.4779 
        1.75933         103.163         12.2125 
        1.77505         101.933         11.9537 
        1.79081         100.687         11.7019 
         1.8065         99.3822         11.4584 
        1.82218         97.6255         11.2221 
        1.83797         96.2644         10.9909 
        1.85367         95.4461         10.7675 
        1.86928         94.5081         10.5516 
        1.88497         92.6832         10.3405 
        1.90073          92.293         10.1343 
        1.91647         90.9013         9.93404 
        1.93218         89.7971         9.73958 
        1.94787         88.9443         9.55062 
        1.96363         87.5461         9.36594 
        1.97935         86.3766         9.18652 
        1.99499         85.6674         9.01283 
        2.01064         84.6872         8.84338 
         2.0264         83.1867         8.67723 
        2.04216         82.4493         8.51543 
        2.05781         81.3765         8.35879 
        2.07353         79.9645         8.20554 
        2.08928         79.0423          8.0558 
        2.10499         78.0558          7.9102 
        2.12065         77.7442         7.76864 
        2.13633         76.7335         7.63042 
        2.15211         75.7728         7.49469 
        2.16785         74.6248         7.36263 
        2.18349         73.7039         7.23459 
        2.19916         72.9959         7.10933 
        2.21489         72.0639         6.98662 
        2.23063         71.2422         6.86673 
         2.2463         70.4162         6.75019 
        2.26194         70.1253         6.63666 
        2.27765          68.977         6.52515 
        2.29341         68.0479         6.41592 
        2.30914         67.1231         6.30941 
        2.32486         66.3802         6.20539 
        2.34061         65.6722         6.10354 
        2.35635         64.9255         6.00407 
        2.37203         63.9341         5.90716 
        2.38768         63.2811         5.81259 
        2.40339         62.6043         5.71975 
        2.41914         61.9774         5.62873 
        2.43483         61.6625         5.54001 
         2.4505         60.7372         5.45335 
        2.46622         60.0398         5.36825 
        2.48195         59.2871         5.28496 
        2.49759          58.459         5.20388 
        2.51328         57.9169         5.12429 
        2.52906         57.4544         5.04587 
        2.54479         56.7241         4.96938 
        2.56049         55.9117         4.89463 
        2.57618         55.4826         4.82147 
        2.59189         54.7136         4.74971 
        2.60758         54.3718         4.67952 
        2.62325         53.6763         4.61083 
        2.63898         53.1269         4.54328 
        2.65468         52.6732         4.47723 
        2.67044         51.8392         4.41221 
        2.68618         51.5078         4.34863 
        2.70184         50.8123         4.28656 
        2.71755         50.5734         4.22555 
        2.73329         49.6377         4.16563 
        2.74897           49.23         4.10707 
        2.76462         48.6675         4.04976 
        2.78034          48.273         3.99331 
        2.79607         47.5634         3.93788 
        2.81179          47.085         3.88356 
        2.82749         46.5211         3.83033 
        2.84321         46.1256         3.77804 
        2.85893         45.5653         3.72674 
        2.87462         45.0151         3.67648 
        2.89033         44.5421         3.62711 
        2.90605         44.1137         3.57859 
        2.92176         43.6718         3.53099 
        2.93747         43.2402         3.48428 
        2.95318         42.6713          3.4384 
        2.96891         42.1211         3.39333 
        2.98456         41.9596         3.34927 
        3.00023         41.3865         3.30592 
        3.01596         41.1013         3.26321 
        3.03164         40.5048         3.22138 
        3.04738         40.2769         3.18015 
         3.0631         39.7608         3.13966 
        3.07883         39.3801         3.09988 
        3.09456         38.9158         3.06079 
        3.11026          38.436         3.02243 
        3.12596         38.2494         2.98474 
        3.14163          37.724         2.94777 
        3.15734         37.1256         2.91135 
        3.17308         37.1022         2.87545 
        3.18879         36.8063         2.84026 
        3.20447         36.2424          2.8057 
         3.2202         35.8063         2.77162 
         3.2359         35.4817         2.73816 
        3.25157         35.1491         2.70533 
        3.26729         34.7829         2.67294 
        3.28304         34.3486         2.64102 
        3.29877         34.1241         2.60966 
        3.31446         33.8455         2.57888 
        3.33014         33.4253         2.54863 
        3.34585         33.1693         2.51881 
        3.36158          32.817         2.48942 
        3.37727         32.4593          2.4606 
        3.39294         32.1587         2.43225 
        3.40867         31.8495         2.40426 
        3.42439         31.5433         2.37672 
        3.44008         31.4214         2.34966 
        3.45578         30.8691           2.323 
        3.47153         30.5873          2.2967 
        3.48724          30.356         2.27085 
        3.50292         30.0643         2.24546 
        3.51859         29.7829         2.22047 
        3.53431         29.5268         2.19579 
        3.55007         29.2605         2.17141 
        3.56577         28.9872         2.14751 
        3.58146         28.7173         2.12397 
        3.59719         28.3948         2.10073 
        3.61292          28.192         2.07785 
        3.62859         27.8559          2.0554 
        3.64429         27.5286         2.03323 
        3.66003         27.2925         2.01132 
        3.67578         27.0819         1.98975 
        3.69146         26.8812         1.96857 
        3.70712         26.5929         1.94773 
        3.72284          26.463         1.92713 
        3.73853         26.1424         1.90685 
        3.75422          25.876         1.88686 
        3.76993          25.727         1.86714 
        3.78564         25.4282         1.84771 
        3.80137         25.2273         1.82852 
        3.81707         25.0174         1.80965 
        3.83279         24.7998         1.79103 
        3.84853         24.4636         1.77263 
        3.86424         24.2408         1.75454 
        3.87992         24.0552         1.73672 
        3.89561         23.8211         1.71915 
        3.91134         23.6452         1.70178 
        3.92704         23.4318         1.68468 
        3.94273         23.2055         1.66783 
        3.95845          22.919         1.65118 
        3.97418         22.8221         1.63475 
        3.98988         22.5622         1.61856 
        4.00554         22.3529         1.60264 
        4.02125          22.254         1.58689 
        4.03698         21.9638         1.57133 
        4.05268         21.8029         1.55601 
        4.06839         21.5759         1.54088 
         4.0841         21.4486         1.52596 
        4.09983          21.264         1.51121 
        4.11555          21.079         1.49667 
        4.13124         20.7749         1.48235 
        4.14693         20.6208         1.46822 
        4.16266         20.4484         1.45423 
        4.17839         20.2773         1.44043 
        4.19408         20.0842         1.42685 
        4.20977          19.978         1.41343 
        4.22551         19.7615         1.40015 
        4.24123         19.6021         1.38706 
        4.25691         19.4392         1.37417 
        4.27259         19.2644         1.36144 
        4.28831         19.0935         1.34885 
        4.30404         18.8998          1.3364 
        4.31974         18.7959         1.32414 
        4.33543          18.634         1.31204 
        4.35116         18.4983         1.30006 
        4.36688         18.2997         1.28823 
        4.38255         18.1774         1.27659 
        4.39825         18.0592         1.26508 
        4.41398         17.8412         1.25368 
         4.4297         17.7033         1.24244 
        4.44541         17.5914         1.23133 
        4.46111         17.4171         1.22037 
        4.47683          17.268         1.20953 
        4.49251         17.1544         1.19885 
        4.50819         16.9938          1.1883 
         4.5239          16.876         1.17786 
        4.53962          16.695         1.16754 
        4.55535         16.5708         1.15733 
        4.57106         16.4402         1.14726 
        4.58678         16.3187         1.13731 
         4.6025         16.1728         1.12747 
        4.61821         16.0599         1.11775 
        4.63391         15.9067         1.10816 
         4.6496         15.7796         1.09868 
        4.66532         15.6402          1.0893 
        4.68103         15.4969         1.08004 
        4.69673         15.4249         1.07089 
        4.71241         15.3127         1.06185 
        4.72811         15.1376          1.0529 
        4.74384          15.047         1.04405 
        4.75955          14.929         1.03531 
        4.77525         14.8311         1.02668 
        4.79096         14.6852         1.01813 
        4.80669         14.5827         1.00968 
         4.8224         14.4423         1.00133 
        4.83809         14.3278        0.993088 
        4.85379         14.2022        0.984931 
         4.8695         14.1514        0.976859 
        4.88521         14.0275        0.968882 
        4.90093         13.9055        0.960992 
        4.91663         13.8145        0.953197 
        4.93234         13.6991         0.94548 
        4.94807         13.5867        0.937843 
        4.96377          13.458        0.930305 
        4.97943         13.3722        0.922865 
        4.99514         13.2461        0.915488 
        5.01086         13.1759        0.908186 
        5.02654         13.0429        0.900982 
        5.04227         12.9765        0.893834 
          5.058         12.8556        0.886761 
        5.07371          12.774        0.879779 
        5.08942         12.6556         0.87287 
        5.10513         12.5829        0.866035 
        5.12084         12.4679         0.85927 
        5.13656         12.3874        0.852578 
        5.15225         12.2627        0.845968 
        5.16796         12.2065        0.839419 
        5.18369         12.0881        0.832932 
         5.1994         12.0224        0.826526 
        5.21509         11.9164        0.820193 
        5.23079         11.8285        0.813918 
        5.24649         11.7411        0.807715 
        5.26217          11.643         0.80158 
        5.27788         11.5486          0.7955 
        5.29359         11.4965        0.789482 
        5.30933         11.3921        0.783517 
        5.32504         11.3374        0.777625 
        5.34073         11.2263        0.771799 
        5.35646         11.1647        0.766021 
        5.37218         11.0614        0.760301 
        5.38789         10.9854        0.754649 
        5.40357          10.906         0.74906 
        5.41929         10.8255        0.743516 
        5.43502         10.7681        0.738027 
         5.4507         10.6652        0.732607 
        5.46639         10.5992         0.72724 
        5.48212         10.5512        0.721915 
        5.49786         10.4467        0.716636 
        5.51353         10.3814        0.711437 
        5.52921         10.2979        0.706283 
        5.54495         10.2155        0.701166 
        5.56066         10.1332        0.696105 
        5.57637         10.0608        0.691094 
        5.59207         10.0017        0.686137 
        5.60778         9.93234        0.681227 
        5.62346          9.8754        0.676372 
        5.63916         9.78755        0.671559 
        5.65487         9.72509        0.666791 
         5.6706         9.66512        0.662063 
        5.68633         9.58607         0.65738 
        5.70203         9.53377        0.652751 
        5.71773         9.46518        0.648168 
        5.73344          9.3876        0.643626 
        5.74916         9.32799        0.639123 
        5.76486         9.24568         0.63467 
        5.78054          9.1963        0.630266 
        5.79626         9.13513        0.625891 
          5.812         9.07246        0.621554 
         5.8277         8.99891         0.61727 
        5.84339         8.95587        0.613027 
        5.85911         8.88537        0.608815 
        5.87484         8.80877        0.604644 
        5.89053         8.75482         0.60052 
        5.90623         8.68653        0.596432 
        5.92195         8.64415        0.592375 
        5.93767         8.58197        0.588359 
        5.95336         8.52685        0.584386 
        5.96905         8.47674        0.580451 
        5.98476         8.41925        0.576547 
        6.00048         8.36019        0.572678 
        6.01617         8.31359        0.568849 
        6.03185         8.24415         0.56506 
        6.04756         8.19228        0.561296 
        6.06331         8.13419        0.557558 
        6.07903         8.08538        0.553863 
        6.09473         8.03495        0.550204 
        6.11044         7.98312        0.546575 
        6.12616         7.92146        0.542979 
        6.14186         7.85736        0.539419 
        6.15755          7.8068        0.535892 
        6.17326         7.77314        0.532393 
        6.18898         7.70433        0.528923 
        6.20467          7.6548        0.525491 
        6.22036         7.61156         0.52209 
         6.2361         7.55392        0.518709 
         6.2518         7.50443        0.515364 
        6.26748         7.45633        0.512055 
        6.28319         7.41829        0.508767 
        6.29893         7.36315        0.505504 
        6.31463         7.31352        0.502276 
        6.33033          7.2685        0.499077 
        6.34604         7.22831        0.495903 
        6.36177         7.17302        0.492754 
        6.37747         7.13169        0.489638 
