# k  (h/Mpc)    Pcb(k)  (Mpc/h)^3    Pcb_linear(k) (Mpc/h)^3   ShotnoiseSubtracted = true
      0.0200456         20236.5         20705.1 
      0.0350414           14389         15051.9 
      0.0492313         10721.2         10936.4 
      0.0637834         9269.27         9091.37 
      0.0800726         7316.07         7215.59 
       0.096163         5074.64         5235.54 
       0.111083         4073.29            4176 
       0.126058         3752.79         3700.79 
       0.142273         3249.22         3135.38 
       0.158546         2829.83         2476.29 
        0.17375         2262.78         2086.28 
       0.188953         2210.85         1889.08 
       0.204907         2077.89         1671.45 
       0.220756         1797.93         1414.14 
        0.23588         1603.83         1230.18 
         0.2514         1395.52         1117.61 
       0.267535         1393.24         1011.24 
       0.283568         1263.16         891.782 
       0.299022         1193.47         794.531 
       0.314451         1137.43         726.148 
       0.330372         1044.71         666.159 
       0.346141         992.489         604.641 
       0.361624         953.891         549.536 
       0.377134         887.314          505.66 
       0.392932         852.852         467.877 
       0.408854         834.052         431.292 
       0.424564         773.465         397.528 
       0.440253         760.424         368.555 
       0.455999         729.059         343.361 
       0.471626          700.89         320.208 
        0.48727         672.368          298.55 
       0.502856         654.183         279.094 
       0.518488          646.95         261.734 
       0.534347         605.682         245.595 
       0.550082         588.264         230.714 
       0.565732         586.731           217.1 
       0.581496         552.991         204.631 
       0.597222         543.346         193.196 
       0.612804         531.795         182.681 
       0.628434         515.857          172.88 
       0.644267         502.413         163.718 
       0.660051         486.672         155.272 
       0.675724         482.326         147.474 
       0.691403         466.178         140.205 
       0.707174         450.761         133.385 
       0.722871         445.771         127.046 
        0.73838         438.158         121.187 
       0.754018         427.076         115.653 
       0.769845         418.364         110.404 
        0.78569         412.337         105.477 
       0.801365         401.325         100.899 
       0.817031         389.189         96.5973 
       0.832809         386.655         92.5202 
       0.848511         377.526         88.6979 
       0.864097         367.547         85.1189 
       0.879701         362.729         81.7349 
       0.895507          359.03         78.4957 
       0.911279         347.771         75.4397 
        0.92691         343.662         72.5724 
       0.942635         335.673          69.839 
       0.958396         327.917         67.2412 
       0.974128         322.653         64.7809 
       0.989692         319.651         62.4685 
        1.00528          312.19          60.266 
        1.02113         310.287         58.1356 
        1.03692         301.517         56.1166 
        1.05264         299.448          54.203 
        1.06832         291.672         52.3821 
        1.08405         287.281         50.6403 
        1.09979         281.895          48.977 
        1.11537         277.472         47.4052 
        1.13105         271.861         45.8932 
        1.14679         267.312         44.4416 
        1.16256         262.458         43.0502 
        1.17828         260.373         41.7232 
        1.19395         254.078         40.4568 
         1.2097         252.417         39.2367 
        1.22537         246.588          38.073 
          1.241         245.302         36.9601 
        1.25666         239.957         35.8892 
        1.27241         236.844         34.8558 
        1.28819         233.519         33.8614 
        1.30392         227.831         32.9089 
        1.31957         228.213         31.9974 
        1.33529         223.189         31.1172 
        1.35108          218.03         30.2667 
        1.36674         216.477         29.4541 
         1.3824         214.792         28.6723 
        1.39811         211.588         27.9163 
        1.41389         208.055         27.1847 
        1.42964         205.807         26.4807 
        1.44531         202.723         25.8051 
        1.46101          199.84         25.1517 
        1.47667         196.468         24.5229 
        1.49229         194.805         23.9174 
        1.50793         190.468         23.3317 
        1.52367         189.082         22.7619 
        1.53953         186.277         22.2073 
        1.55526         181.953         21.6757 
        1.57092         181.059         21.1638 
        1.58662         178.817         20.6671 
        1.60235         175.538         20.1855 
        1.61809         174.502         19.7191 
        1.63369         170.944         19.2715 
        1.64941         167.494         18.8347 
        1.66519         166.902         18.4099 
        1.68085         164.706         18.0012 
        1.69652         162.164         17.6048 
        1.71228         159.083         17.2182 
        1.72806         157.459         16.8429 
        1.74368         155.755         16.4825 
        1.75933         152.859          16.132 
        1.77505         151.692         15.7901 
        1.79081         150.348         15.4575 
         1.8065         148.222         15.1359 
        1.82218         145.796         14.8237 
        1.83797         144.774         14.5183 
        1.85367         142.597         14.2231 
        1.86928         140.117          13.938 
        1.88497          138.35         13.6591 
        1.90073         137.132         13.3868 
        1.91647          135.35         13.1223 
        1.93218         133.743         12.8654 
        1.94787         131.754         12.6158 
        1.96363         129.772         12.3718 
        1.97935         128.418         12.1348 
        1.99499         126.328         11.9054 
        2.01064         125.178         11.6816 
         2.0264         123.374         11.4621 
        2.04216         121.897         11.2484 
        2.05781         120.857         11.0415 
        2.07353         119.653          10.839 
        2.08928         117.109         10.6412 
        2.10499         115.935         10.4489 
        2.12065         114.202         10.2619 
        2.13633         113.628         10.0793 
        2.15211         111.208         9.90002 
        2.16785         109.658         9.72558 
        2.18349         108.899         9.55645 
        2.19916         107.671         9.39099 
        2.21489         106.257          9.2289 
        2.23063         104.548         9.07053 
         2.2463         103.446         8.91659 
        2.26194         102.132         8.76661 
        2.27765         101.125         8.61932 
        2.29341          100.11         8.47503 
        2.30914          98.846         8.33435 
        2.32486         97.8109         8.19694 
        2.34061         96.5275          8.0624 
        2.35635         95.1744           7.931 
        2.37203         93.9282         7.80299 
        2.38768         92.9987         7.67807 
        2.40339         92.0514         7.55544 
        2.41914         90.8107          7.4352 
        2.43483         89.8735         7.31801 
         2.4505         88.6976         7.20354 
        2.46622         87.5144         7.09112 
        2.48195         86.4593          6.9811 
        2.49759         85.2947           6.874 
        2.51328         84.9732         6.76888 
        2.52906         83.3546         6.66528 
        2.54479         82.5345         6.56425 
        2.56049         81.6769          6.4655 
        2.57618         80.7957         6.36887 
        2.59189         79.8226         6.27407 
        2.60758         79.1559         6.18135 
        2.62325         78.0012         6.09062 
        2.63898         76.8964          6.0014 
        2.65468         76.1939         5.91415 
        2.67044         75.3334         5.82826 
        2.68618         74.5521         5.74428 
        2.70184         74.0879         5.66228 
        2.71755         73.0443         5.58169 
        2.73329         72.2636         5.50254 
        2.74897         71.3618         5.42518 
        2.76462          70.521         5.34948 
        2.78034         69.9247         5.27492 
        2.79607         68.7349          5.2017 
        2.81179         68.1738         5.12995 
        2.82749          67.338         5.05964 
        2.84321         66.8726         4.99056 
        2.85893         66.0881          4.9228 
        2.87462         65.1464         4.85641 
        2.89033         64.5002         4.79118 
        2.90605         63.7993          4.7271 
        2.92176         63.1989         4.66422 
        2.93747         62.7871         4.60252 
        2.95318          61.904         4.54192 
        2.96891         61.4463         4.48238 
        2.98456         60.7564         4.42418 
        3.00023         59.8598         4.36692 
        3.01596          59.399          4.3105 
        3.03164         58.5883         4.25524 
        3.04738         58.1492         4.20079 
         3.0631         57.4782          4.1473 
        3.07883         56.8906         4.09475 
        3.09456         56.2737         4.04311 
        3.11026         55.5724         3.99245 
        3.12596         55.0336         3.94265 
        3.14163         54.4987         3.89383 
        3.15734         54.0887         3.84571 
        3.17308         53.2851         3.79829 
        3.18879         53.0275          3.7518 
        3.20447          52.097         3.70616 
         3.2202         51.8548         3.66114 
         3.2359         51.2372         3.61694 
        3.25157         50.6699         3.57358 
        3.26729         50.2641         3.53079 
        3.28304         49.7369         3.48863 
        3.29877         49.2756         3.44721 
        3.31446         48.5598         3.40655 
        3.33014         48.2557         3.36658 
        3.34585         47.9901         3.32719 
        3.36158         47.4142         3.28837 
        3.37727         46.9771          3.2503 
        3.39294         46.4833         3.21286 
        3.40867         45.9949         3.17588 
        3.42439         45.3754         3.13949 
        3.44008         45.0862         3.10375 
        3.45578         44.5726         3.06854 
        3.47153         44.1425          3.0338 
        3.48724         43.7536         2.99966 
        3.50292         43.4048         2.96612 
        3.51859         42.9082         2.93311 
        3.53431         42.5141          2.9005 
        3.55007         41.9628          2.8683 
        3.56577         41.7055         2.83673 
        3.58146         41.2431         2.80564 
        3.59719         40.8991         2.77494 
        3.61292         40.3777         2.74471 
        3.62859         40.1342         2.71505 
        3.64429          39.834         2.68577 
        3.66003         39.3825         2.65683 
        3.67578         38.8761         2.62833 
        3.69146         38.6026         2.60035 
        3.70712         38.2681         2.57284 
        3.72284         37.7952         2.54561 
        3.73853         37.5042         2.51883 
        3.75422         37.0699         2.49243 
        3.76993          36.921         2.46638 
        3.78564         36.5686         2.44071 
        3.80137         36.1749         2.41537 
        3.81707         35.8158         2.39043 
        3.83279         35.6624         2.36583 
        3.84853         35.2175         2.34154 
        3.86424         34.7873         2.31764 
        3.87992          34.636          2.2941 
        3.89561         34.2689         2.27089 
        3.91134         33.8006         2.24795 
        3.92704         33.6879         2.22536 
        3.94273         33.2483          2.2031 
        3.95845         33.0785          2.1811 
        3.97418         32.7355          2.1594 
        3.98988         32.4545         2.13802 
        4.00554         32.1044         2.11699 
        4.02125         31.7924         2.09619 
        4.03698         31.5767         2.07563 
        4.05268         31.3133         2.05539 
        4.06839         30.9928         2.03541 
         4.0841         30.7939          2.0157 
        4.09983         30.4602         1.99622 
        4.11555         30.1897         1.97701 
        4.13124         29.9773          1.9581 
        4.14693         29.6304         1.93942 
        4.16266         29.3876         1.92095 
        4.17839         29.1201         1.90272 
        4.19408         28.8595         1.88478 
        4.20977         28.6273         1.86705 
        4.22551         28.3705         1.84952 
        4.24123         28.2115         1.83222 
        4.25691         27.8988          1.8152 
        4.27259         27.7029         1.79838 
        4.28831         27.3988         1.78174 
        4.30404         27.2262          1.7653 
        4.31974         26.9203          1.7491 
        4.33543         26.6945         1.73312 
        4.35116         26.6093         1.71729 
        4.36688         26.2905         1.70167 
        4.38255         26.0128          1.6863 
        4.39825         25.8206         1.67109 
        4.41398         25.5759         1.65604 
         4.4297         25.4026         1.64118 
        4.44541         25.1449         1.62651 
        4.46111         24.9871         1.61203 
        4.47683         24.7853         1.59772 
        4.49251         24.5388         1.58361 
        4.50819         24.3354         1.56967 
         4.5239           24.15         1.55589 
        4.53962         23.9592         1.54225 
        4.55535         23.7544         1.52876 
        4.57106         23.5717         1.51546 
        4.58678         23.3821         1.50231 
         4.6025          23.214         1.48932 
        4.61821         23.0457         1.47648 
        4.63391         22.8013         1.46381 
         4.6496         22.6138         1.45129 
        4.66532         22.4559          1.4389 
        4.68103         22.2391         1.42666 
        4.69673         22.0733         1.41457 
        4.71241         21.9371         1.40264 
        4.72811         21.7204         1.39082 
        4.74384          21.578         1.37913 
        4.75955         21.4094         1.36758 
        4.77525         21.2005         1.35618 
        4.79096         21.0787         1.34489 
        4.80669         20.8792         1.33372 
         4.8224         20.7117          1.3227 
        4.83809         20.5606         1.31181 
        4.85379         20.3025         1.30103 
         4.8695         20.2487         1.29037 
        4.88521         20.0726         1.27983 
        4.90093         19.8757         1.26941 
        4.91663          19.701         1.25911 
        4.93234         19.6113         1.24892 
        4.94807         19.4106         1.23883 
        4.96377         19.3148         1.22888 
        4.97943         19.1766         1.21905 
        4.99514         18.9925          1.2093 
        5.01086         18.8549         1.19966 
        5.02654         18.6802         1.19014 
        5.04227          18.571          1.1807 
          5.058         18.3889         1.17136 
        5.07371         18.2745         1.16213 
        5.08942         18.1452         1.15301 
        5.10513         17.9958         1.14398 
        5.12084          17.857         1.13504 
        5.13656         17.6723          1.1262 
        5.15225         17.6028         1.11747 
        5.16796         17.4889         1.10882 
        5.18369         17.3071         1.10025 
         5.1994         17.2273         1.09179 
        5.21509         17.0466         1.08342 
        5.23079         16.9336         1.07514 
        5.24649         16.8197         1.06694 
        5.26217         16.6633         1.05884 
        5.27788         16.5411         1.05081 
        5.29359         16.4557         1.04286 
        5.30933         16.2817         1.03498 
        5.32504         16.1782         1.02719 
        5.34073         16.0715          1.0195 
        5.35646         15.9673         1.01187 
        5.37218          15.821         1.00431 
        5.38789         15.7118        0.996844 
        5.40357         15.6059        0.989463 
        5.41929         15.5205        0.982139 
        5.43502         15.3694        0.974889 
         5.4507         15.2783        0.967729 
        5.46639         15.1476         0.96064 
        5.48212         15.0216        0.953605 
        5.49786          14.909        0.946632 
        5.51353         14.8154        0.939764 
        5.52921         14.7423        0.932957 
        5.54495         14.6368        0.926197 
        5.56066         14.5332        0.919511 
        5.57637         14.3994        0.912893 
        5.59207         14.2807        0.906345 
        5.60778         14.2256        0.899859 
        5.62346         14.1172        0.893446 
        5.63916         13.9775        0.887088 
        5.65487         13.9022         0.88079 
         5.6706         13.7805        0.874545 
        5.68633         13.6986        0.868358 
        5.70203          13.615        0.862244 
        5.71773         13.5126         0.85619 
        5.73344         13.4243         0.85019 
        5.74916         13.3262        0.844243 
        5.76486         13.2143         0.83836 
        5.78054         13.1367        0.832543 
        5.79626         13.0409        0.826764 
          5.812         12.9445        0.821034 
         5.8277         12.8456        0.815376 
        5.84339          12.775        0.809771 
        5.85911         12.6753        0.804207 
        5.87484         12.5915        0.798697 
        5.89053         12.4912        0.793249 
        5.90623         12.4108         0.78785 
        5.92195         12.3202        0.782491 
        5.93767         12.2378        0.777186 
        5.95336         12.1541        0.771938 
        5.96905         12.0759         0.76674 
        5.98476         11.9996        0.761583 
        6.00048         11.8831        0.756472 
        6.01617          11.834        0.751414 
        6.03185         11.7524        0.746409 
        6.04756         11.6861        0.741437 
        6.06331         11.5836          0.7365 
        6.07903         11.5025        0.731619 
        6.09473          11.433        0.726786 
        6.11044         11.3563        0.721992 
        6.12616         11.2912        0.717242 
        6.14186         11.2124         0.71254 
        6.15755          11.132         0.70788 
        6.17326         11.0258        0.703258 
        6.18898         10.9948        0.698675 
        6.20467         10.9037        0.694141 
        6.22036         10.8208        0.689648 
         6.2361         10.7605        0.685183 
         6.2518         10.7019        0.680764 
        6.26748         10.6214        0.676393 
        6.28319          10.549         0.67205 
        6.29893         10.4734         0.66774 
        6.31463          10.407        0.663476 
        6.33033         10.3259         0.65925 
        6.34604         10.2826        0.655057 
        6.36177         10.1986        0.650898 
        6.37747           10.15        0.646782 
