# k  (h/Mpc)    Pcb(k)  (Mpc/h)^3    Pcb_linear(k) (Mpc/h)^3   ShotnoiseSubtracted = true
      0.0200456         11321.3         11539.4 
      0.0350414         8136.16         8388.74 
      0.0492313         6040.46          6095.1 
      0.0637834         5165.64          5066.8 
      0.0800726         4087.34          4021.4 
       0.096163         2856.25         2917.87 
       0.111083         2272.57         2327.37 
       0.126058         2093.51         2062.52 
       0.142273         1808.44         1747.41 
       0.158546         1513.94         1380.09 
        0.17375          1214.8         1162.72 
       0.188953         1172.12         1052.82 
       0.204907         1100.64         931.531 
       0.220756         935.794         788.132 
        0.23588         824.026         685.606 
         0.2514          719.62         622.866 
       0.267535         701.233         563.587 
       0.283568         635.717         497.008 
       0.299022         592.716         442.809 
       0.314451         556.775         404.697 
       0.330372         513.526         371.264 
       0.346141         466.591         336.979 
       0.361624         448.597         306.267 
       0.377134         417.257         281.814 
       0.392932         395.667         260.757 
       0.408854         379.757         240.368 
       0.424564         360.818         221.551 
       0.440253          348.69         205.403 
       0.455999         328.122         191.362 
       0.471626         306.291         178.459 
        0.48727         297.237         166.388 
       0.502856         287.403         155.545 
       0.518488          284.02          145.87 
       0.534347         267.206         136.875 
       0.550082         251.365         128.582 
       0.565732         247.601         120.994 
       0.581496         234.841         114.045 
       0.597222         229.338         107.672 
       0.612804         221.241         101.812 
       0.628434         213.486         96.3498 
       0.644267          206.61         91.2431 
       0.660051         204.019         86.5365 
       0.675724         199.572         82.1906 
       0.691403         193.857         78.1394 
       0.707174         185.759         74.3384 
       0.722871          184.12         70.8055 
        0.73838         180.116         67.5398 
       0.754018         174.898         64.4556 
       0.769845         169.695         61.5304 
        0.78569         167.691         58.7842 
       0.801365         162.644         56.2331 
       0.817031         157.368         53.8356 
       0.832809         155.193         51.5634 
       0.848511         151.304         49.4332 
       0.864097         148.851         47.4385 
       0.879701         145.552         45.5525 
       0.895507         141.908         43.7473 
       0.911279         139.014         42.0441 
        0.92691         137.859         40.4461 
       0.942635         134.443         38.9227 
       0.958396         134.164         37.4749 
       0.974128         130.368         36.1037 
       0.989692         127.202          34.815 
        1.00528         124.858         33.5875 
        1.02113          124.11         32.4002 
        1.03692         119.407         31.2749 
        1.05264         118.568         30.2085 
        1.06832         115.986         29.1936 
        1.08405         114.458         28.2229 
        1.09979         113.903         27.2959 
        1.11537         110.123         26.4199 
        1.13105         109.793         25.5772 
        1.14679          108.68         24.7682 
        1.16256         107.071         23.9928 
        1.17828         104.426         23.2532 
        1.19395         103.104         22.5474 
         1.2097         100.988         21.8674 
        1.22537         100.872         21.2188 
          1.241         98.5566         20.5986 
        1.25666         96.6528         20.0018 
        1.27241         95.4209         19.4258 
        1.28819         93.9915         18.8717 
        1.30392         92.8342         18.3408 
        1.31957         91.5184         17.8328 
        1.33529         89.8162         17.3422 
        1.35108         88.8445         16.8682 
        1.36674         87.8981         16.4154 
         1.3824         86.2608         15.9796 
        1.39811         85.3631         15.5583 
        1.41389           84.11         15.1506 
        1.42964         83.0151         14.7582 
        1.44531          81.236         14.3817 
        1.46101         80.3526         14.0176 
        1.47667         80.0776         13.6671 
        1.49229         78.4682         13.3297 
        1.50793          77.935         13.0032 
        1.52367         76.7083         12.6857 
        1.53953           75.55         12.3766 
        1.55526         74.8653         12.0803 
        1.57092         74.5313          11.795 
        1.58662          72.874         11.5182 
        1.60235         72.3973         11.2498 
        1.61809         71.3587         10.9898 
        1.63369         70.3715         10.7404 
        1.64941         69.7127          10.497 
        1.66519         68.2601         10.2602 
        1.68085         67.8385         10.0324 
        1.69652         66.6071         9.81154 
        1.71228         66.3228         9.59605 
        1.72806         65.4844         9.38687 
        1.74368         64.6805         9.18604 
        1.75933         63.8334          8.9907 
        1.77505         63.3014         8.80013 
        1.79081         62.3536         8.61476 
         1.8065         61.7909         8.43554 
        1.82218         60.9115         8.26158 
        1.83797         60.3137         8.09134 
        1.85367         59.6283         7.92685 
        1.86928         59.1484         7.76792 
        1.88497         58.2657          7.6125 
        1.90073         57.4411         7.46076 
        1.91647         57.1746          7.3133 
        1.93218         56.4002         7.17014 
        1.94787          55.741         7.03103 
        1.96363         55.0135         6.89507 
        1.97935         54.6508         6.76299 
        1.99499         53.7965         6.63512 
        2.01064          53.632         6.51037 
         2.0264          52.313         6.38805 
        2.04216         52.0684         6.26894 
        2.05781         51.4423         6.15363 
        2.07353         50.8672          6.0408 
        2.08928         50.2686         5.93056 
        2.10499         49.8985         5.82338 
        2.12065         49.2653         5.71916 
        2.13633         48.9956         5.61741 
        2.15211         48.6245         5.51748 
        2.16785         47.7245         5.42027 
        2.18349         47.4099           5.326 
        2.19916         46.8984         5.23379 
        2.21489         46.4546         5.14345 
        2.23063         45.7957         5.05519 
         2.2463         45.3802          4.9694 
        2.26194         44.6319         4.88581 
        2.27765         44.2099         4.80372 
        2.29341         43.6923         4.72331 
        2.30914           43.17          4.6449 
        2.32486         42.5772         4.56832 
        2.34061         42.3232         4.49334 
        2.35635         41.8422         4.42011 
        2.37203         41.3234         4.34877 
        2.38768         40.9505         4.27915 
        2.40339         40.6471          4.2108 
        2.41914         40.2727         4.14379 
        2.43483         39.6443         4.07848 
         2.4505         39.3425         4.01468 
        2.46622         38.9472         3.95203 
        2.48195         38.5337         3.89071 
        2.49759         38.0891         3.83102 
        2.51328         37.5792         3.77243 
        2.52906         37.3619          3.7147 
        2.54479         36.7641         3.65839 
        2.56049         36.4036         3.60335 
        2.57618         36.0988          3.5495 
        2.59189         35.7025         3.49667 
        2.60758         35.4782           3.445 
        2.62325         35.0005         3.39443 
        2.63898         34.6559          3.3447 
        2.65468         34.2709         3.29608 
        2.67044         33.8838         3.24821 
        2.68618         33.6409          3.2014 
        2.70184         33.2477         3.15571 
        2.71755          33.055         3.11079 
        2.73329         32.6586         3.06668 
        2.74897         32.3041         3.02356 
        2.76462         31.8651         2.98138 
        2.78034         31.7519         2.93982 
        2.79607         31.3794         2.89901 
        2.81179         31.1038         2.85903 
        2.82749         30.7876         2.81984 
        2.84321         30.3719         2.78134 
        2.85893         30.0914         2.74358 
        2.87462         29.7892         2.70658 
        2.89033         29.5167         2.67022 
        2.90605         29.3304         2.63451 
        2.92176         29.1259         2.59947 
        2.93747         28.7472         2.56508 
        2.95318         28.3561          2.5313 
        2.96891         28.1559         2.49812 
        2.98456         27.8127         2.46569 
        3.00023         27.5429         2.43378 
        3.01596         27.2756         2.40233 
        3.03164         27.1326         2.37153 
        3.04738         26.8606         2.34118 
         3.0631         26.5941         2.31138 
        3.07883         26.3015         2.28209 
        3.09456         26.0059         2.25331 
        3.11026         25.7832         2.22507 
        3.12596         25.5954         2.19732 
        3.14163         25.3138         2.17011 
        3.15734         25.0703         2.14329 
        3.17308         24.7922         2.11687 
        3.18879         24.6392         2.09096 
        3.20447         24.3327         2.06552 
         3.2202         24.1196         2.04043 
         3.2359         23.8426         2.01579 
        3.25157         23.8083         1.99163 
        3.26729         23.5065         1.96778 
        3.28304         23.2596         1.94428 
        3.29877         22.9724          1.9212 
        3.31446         22.7683         1.89854 
        3.33014         22.5563         1.87626 
        3.34585          22.423         1.85431 
        3.36158         22.1331         1.83268 
        3.37727         21.9172         1.81146 
        3.39294         21.7985         1.79059 
        3.40867         21.5648         1.76998 
        3.42439         21.3631          1.7497 
        3.44008         21.1757         1.72979 
        3.45578         21.0068         1.71016 
        3.47153         20.7208          1.6908 
        3.48724         20.5848         1.67177 
        3.50292         20.4385         1.65308 
        3.51859         20.1975         1.63468 
        3.53431         20.0188         1.61651 
        3.55007         19.8079         1.59856 
        3.56577         19.6156         1.58097 
        3.58146         19.5081         1.56364 
        3.59719         19.2573         1.54653 
        3.61292         19.1232         1.52969 
        3.62859         18.9387         1.51315 
        3.64429         18.7922         1.49684 
        3.66003          18.656         1.48071 
        3.67578         18.4175         1.46482 
        3.69146          18.339         1.44923 
        3.70712         18.1464         1.43389 
        3.72284         18.0417         1.41872 
        3.73853         17.8062          1.4038 
        3.75422         17.6101         1.38908 
        3.76993         17.5099         1.37456 
        3.78564         17.3432         1.36026 
        3.80137         17.1807         1.34613 
        3.81707         17.0185         1.33224 
        3.83279         16.8897         1.31853 
        3.84853         16.7212         1.30499 
        3.86424         16.5877         1.29167 
        3.87992         16.4536         1.27855 
        3.89561         16.2626         1.26561 
        3.91134         16.1808         1.25283 
        3.92704         16.0277         1.24024 
        3.94273         15.8881         1.22783 
        3.95845         15.7155         1.21557 
        3.97418         15.6476         1.20348 
        3.98988         15.4597         1.19156 
        4.00554         15.3402         1.17984 
        4.02125         15.2269         1.16825 
        4.03698         15.1334         1.15679 
        4.05268         14.9383         1.14551 
        4.06839         14.8284         1.13437 
         4.0841         14.7331         1.12339 
        4.09983         14.5656         1.11253 
        4.11555         14.4468         1.10183 
        4.13124         14.3417         1.09129 
        4.14693         14.2163         1.08088 
        4.16266         14.0958         1.07058 
        4.17839         13.9617         1.06043 
        4.19408         13.8247         1.05042 
        4.20977         13.7749         1.04055 
        4.22551          13.612         1.03077 
        4.24123         13.5209         1.02113 
        4.25691         13.4245         1.01165 
        4.27259         13.2678         1.00227 
        4.28831         13.1369        0.993003 
        4.30404         13.0698        0.983839 
        4.31974         12.9534        0.974812 
        4.33543         12.8613        0.965902 
        4.35116          12.767        0.957083 
        4.36688          12.627        0.948377 
        4.38255          12.519        0.939811 
        4.39825         12.4213        0.931333 
        4.41398         12.3739        0.922942 
         4.4297         12.2086        0.914664 
        4.44541         12.1243        0.906489 
        4.46111         12.0247         0.89842 
        4.47683         11.9507        0.890443 
        4.49251         11.8438        0.882579 
        4.50819          11.764        0.874812 
         4.5239         11.6615        0.867127 
        4.53962         11.5781        0.859525 
        4.55535         11.4673        0.852011 
        4.57106         11.3646        0.844597 
        4.58678         11.2697        0.837269 
         4.6025         11.1847        0.830027 
        4.61821         11.1081        0.822872 
        4.63391         11.0144         0.81581 
         4.6496         10.9147        0.808834 
        4.66532         10.8215        0.801928 
        4.68103         10.7503        0.795107 
        4.69673         10.6691        0.788371 
        4.71241         10.5576        0.781719 
        4.72811         10.4844        0.775134 
        4.74384         10.4333        0.768616 
        4.75955         10.3276        0.762182 
        4.77525         10.2457        0.755826 
        4.79096         10.1855        0.749535 
        4.80669          10.108        0.743312 
         4.8224         10.0379        0.737167 
        4.83809         9.94448        0.731097 
        4.85379         9.86591        0.725092 
         4.8695         9.83233         0.71915 
        4.88521         9.70994        0.713277 
        4.90093         9.64222        0.707469 
        4.91663         9.57809         0.70173 
        4.93234         9.51378        0.696049 
        4.94807         9.42698        0.690427 
        4.96377         9.35264        0.684877 
        4.97943         9.28261        0.679401 
        4.99514          9.2265         0.67397 
        5.01086         9.16302        0.668594 
        5.02654         9.09033         0.66329 
        5.04227         9.01743        0.658028 
          5.058         8.93044        0.652821 
        5.07371          8.8915        0.647681 
        5.08942         8.82531        0.642595 
        5.10513         8.74902        0.637563 
        5.12084         8.67824        0.632582 
        5.13656         8.61694        0.627656 
        5.15225          8.5602         0.62279 
        5.16796         8.50529        0.617968 
        5.18369         8.44102        0.613193 
         5.1994         8.34508        0.608477 
        5.21509         8.31627        0.603814 
        5.23079         8.24927        0.599195 
        5.24649         8.18789        0.594628 
        5.26217         8.13398        0.590112 
        5.27788         8.06561        0.585636 
        5.29359         8.01099        0.581205 
        5.30933         7.93801        0.576815 
        5.32504         7.88971        0.572476 
        5.34073         7.85793        0.568187 
        5.35646          7.7717        0.563934 
        5.37218          7.7317        0.559723 
        5.38789         7.67281        0.555562 
        5.40357         7.62439        0.551448 
        5.41929         7.56734        0.547366 
        5.43502         7.50609        0.543325 
         5.4507          7.4595        0.539335 
        5.46639         7.42726        0.535384 
        5.48212         7.36425        0.531464 
        5.49786         7.32849        0.527578 
        5.51353         7.25089         0.52375 
        5.52921          7.2079        0.519956 
        5.54495         7.16517        0.516189 
        5.56066         7.10788        0.512463 
        5.57637         7.04651        0.508774 
        5.59207         7.01261        0.505125 
        5.60778          6.9483         0.50151 
        5.62346         6.90565        0.497935 
        5.63916         6.85611        0.494392 
        5.65487         6.81943        0.490882 
         5.6706         6.75888        0.487402 
        5.68633         6.71606        0.483954 
        5.70203         6.68591        0.480546 
        5.71773         6.62995        0.477172 
        5.73344         6.58257        0.473828 
        5.74916         6.54656        0.470514 
        5.76486         6.50802        0.467235 
        5.78054         6.45412        0.463993 
        5.79626         6.40505        0.460772 
          5.812          6.3752        0.457579 
         5.8277         6.33241        0.454426 
        5.84339         6.27308        0.451302 
        5.85911         6.24591        0.448201 
        5.87484         6.19712         0.44513 
        5.89053         6.16037        0.442094 
        5.90623         6.11808        0.439085 
        5.92195         6.05802        0.436098 
        5.93767         6.04131        0.433141 
        5.95336          5.9905        0.430217 
        5.96905         5.96146         0.42732 
        5.98476         5.91377        0.424446 
        6.00048         5.89149        0.421597 
        6.01617         5.84003        0.418779 
        6.03185         5.81375        0.415989 
        6.04756         5.76403        0.413218 
        6.06331         5.73175        0.410467 
        6.07903         5.69855        0.407746 
        6.09473         5.65273        0.405052 
        6.11044          5.6174        0.402381 
        6.12616         5.58458        0.399734 
        6.14186         5.54751        0.397113 
        6.15755         5.50936        0.394516 
        6.17326         5.46782         0.39194 
        6.18898         5.42933        0.389386 
        6.20467         5.40477        0.386859 
        6.22036         5.37592        0.384355 
         6.2361         5.33301        0.381866 
         6.2518         5.30267        0.379404 
        6.26748         5.27723        0.376968 
        6.28319         5.23032        0.374547 
        6.29893         5.20014        0.372145 
        6.31463         5.17864        0.369768 
        6.33033         5.13256        0.367413 
        6.34604         5.11699        0.365077 
        6.36177         5.07806        0.362759 
        6.37747         5.04337        0.360465 
