# k  (h/Mpc)    Pcb(k)  (Mpc/h)^3    Pcb_linear(k) (Mpc/h)^3   ShotnoiseSubtracted = true
      0.0200456           24074         24669.9 
      0.0350414           17052         17934.2 
      0.0492313         12717.9         13030.6 
      0.0637834         11038.9         10832.3 
      0.0800726         8704.31          8597.3 
       0.096163         6027.49         6238.09 
       0.111083         4861.29         4975.66 
       0.126058         4470.84         4409.45 
       0.142273         3873.62         3735.77 
       0.158546         3421.63         2950.48 
        0.17375         2742.54         2485.77 
       0.188953         2686.11         2250.81 
       0.204907         2523.35         1991.51 
       0.220756         2193.93         1684.94 
        0.23588         1969.15         1465.75 
         0.2514          1718.2         1331.62 
       0.267535         1722.45         1204.89 
       0.283568         1562.53         1062.55 
       0.299022         1482.33         946.675 
       0.314451         1412.78         865.197 
       0.330372         1294.11         793.721 
       0.346141         1253.81         720.423 
       0.361624         1205.21         654.766 
       0.377134         1125.03         602.488 
       0.392932          1077.4          557.47 
       0.408854         1061.77          513.88 
       0.424564         978.989          473.65 
       0.440253         960.837         439.129 
       0.455999         935.294         409.111 
       0.471626         901.999         381.525 
        0.48727         865.381          355.72 
       0.502856         838.912         332.537 
       0.518488         833.798         311.853 
       0.534347         782.869         292.623 
       0.550082         767.344         274.893 
       0.565732         760.557         258.672 
       0.581496         721.609         243.816 
       0.597222         705.845         230.191 
       0.612804         695.662         217.663 
       0.628434         676.849         205.985 
       0.644267         659.591         195.068 
       0.660051         642.941         185.005 
       0.675724         635.357         175.714 
       0.691403         615.461         167.053 
       0.707174         595.651         158.927 
       0.722871         587.075         151.374 
        0.73838         576.119         144.393 
       0.754018         565.729         137.799 
       0.769845         556.334         131.545 
        0.78569         545.959         125.674 
       0.801365         531.981          120.22 
       0.817031         520.012         115.095 
       0.832809         514.603         110.237 
       0.848511          503.63         105.683 
       0.864097          487.82         101.418 
       0.879701          481.35         97.3862 
       0.895507         479.793         93.5268 
       0.911279         467.402         89.8856 
        0.92691         460.793         86.4692 
       0.942635         448.579         83.2124 
       0.958396         437.777         80.1172 
       0.974128         432.497         77.1857 
       0.989692         430.158         74.4305 
        1.00528         416.758         71.8063 
        1.02113         414.757          69.268 
        1.03692         403.929         66.8623 
        1.05264         400.112         64.5823 
        1.06832         389.546         62.4127 
        1.08405         384.943         60.3374 
        1.09979         379.202         58.3555 
        1.11537         372.183         56.4827 
        1.13105         366.615         54.6812 
        1.14679          356.44         52.9517 
        1.16256          349.55         51.2939 
        1.17828         349.385         49.7127 
        1.19395         341.272         48.2038 
         1.2097         333.967         46.7501 
        1.22537         328.121         45.3635 
          1.241         323.792         44.0376 
        1.25666         319.829         42.7615 
        1.27241         314.485         41.5302 
        1.28819         308.901         40.3455 
        1.30392         302.886         39.2106 
        1.31957         300.528         38.1245 
        1.33529         296.362         37.0757 
        1.35108         289.883         36.0624 
        1.36674         284.792         35.0943 
         1.3824         282.629         34.1627 
        1.39811          277.62         33.2619 
        1.41389         274.592         32.3903 
        1.42964         271.027         31.5514 
        1.44531         267.377         30.7465 
        1.46101         261.683          29.968 
        1.47667         258.714         29.2188 
        1.49229         255.744         28.4973 
        1.50793         249.391         27.7995 
        1.52367         248.201         27.1205 
        1.53953         243.771         26.4598 
        1.55526         240.109         25.8264 
        1.57092         237.695         25.2164 
        1.58662         235.028         24.6247 
        1.60235         230.811         24.0509 
        1.61809         227.876         23.4951 
        1.63369         225.366         22.9618 
        1.64941         220.987         22.4414 
        1.66519         219.057         21.9352 
        1.68085         216.181         21.4482 
        1.69652         212.971          20.976 
        1.71228         207.651         20.5153 
        1.72806         205.574         20.0681 
        1.74368         202.622         19.6387 
        1.75933         199.897         19.2211 
        1.77505         198.204         18.8137 
        1.79081         195.742         18.4174 
         1.8065         191.647         18.0342 
        1.82218         189.763         17.6623 
        1.83797         188.626         17.2984 
        1.85367         185.311         16.9467 
        1.86928         182.087          16.607 
        1.88497         180.042         16.2747 
        1.90073         177.641         15.9503 
        1.91647         176.541          15.635 
        1.93218         173.556          15.329 
        1.94787         169.735         15.0316 
        1.96363         167.853         14.7409 
        1.97935          166.37         14.4585 
        1.99499         164.314         14.1851 
        2.01064         162.055         13.9185 
         2.0264         160.766         13.6569 
        2.04216         158.405         13.4023 
        2.05781         156.105         13.1558 
        2.07353         154.631         12.9146 
        2.08928         151.828         12.6789 
        2.10499         150.642         12.4497 
        2.12065         148.272         12.2269 
        2.13633         146.117         12.0094 
        2.15211         144.186         11.7958 
        2.16785         142.953         11.5879 
        2.18349         141.396         11.3864 
        2.19916         139.352         11.1893 
        2.21489          138.09         10.9961 
        2.23063         135.838         10.8074 
         2.2463         134.114          10.624 
        2.26194         132.065         10.4453 
        2.27765         130.904         10.2698 
        2.29341          129.49         10.0979 
        2.30914         128.064         9.93028 
        2.32486         126.107         9.76656 
        2.34061         124.668         9.60626 
        2.35635         123.072          9.4497 
        2.37203         121.954         9.29718 
        2.38768         119.997         9.14834 
        2.40339         118.826         9.00223 
        2.41914         117.332         8.85896 
        2.43483          115.95         8.71933 
         2.4505         114.746         8.58293 
        2.46622         113.351           8.449 
        2.48195         111.553         8.31791 
        2.49759         110.446          8.1903 
        2.51328         109.582         8.06504 
        2.52906         108.046         7.94161 
        2.54479         106.938         7.82123 
        2.56049         105.292         7.70357 
        2.57618         104.548         7.58844 
        2.59189         103.578         7.47549 
        2.60758          102.29         7.36502 
        2.62325          100.66         7.25691 
        2.63898         99.5165          7.1506 
        2.65468         98.4133         7.04664 
        2.67044         97.6474         6.94431 
        2.68618         96.6541         6.84424 
        2.70184         95.7303         6.74655 
        2.71755         94.1359         6.65052 
        2.73329         93.3602         6.55621 
        2.74897         92.4012         6.46404 
        2.76462         91.3351         6.37385 
        2.78034         90.2475         6.28501 
        2.79607          89.003         6.19776 
        2.81179         88.2858         6.11228 
        2.82749         87.3558          6.0285 
        2.84321         86.2369          5.9462 
        2.85893         85.4074         5.86546 
        2.87462         84.5024         5.78636 
        2.89033         83.4458         5.70864 
        2.90605         82.5761         5.63229 
        2.92176         81.5456         5.55737 
        2.93747         80.8332         5.48385 
        2.95318         79.9005         5.41165 
        2.96891          79.271         5.34071 
        2.98456         78.2863         5.27136 
        3.00023         77.4673         5.20314 
        3.01596         76.3897         5.13592 
        3.03164         75.7964         5.07007 
        3.04738         74.7246         5.00519 
         3.0631         74.0036         4.94146 
        3.07883         73.3988         4.87885 
        3.09456         72.9238         4.81732 
        3.11026         71.9175         4.75695 
        3.12596         71.0186         4.69763 
        3.14163          70.629         4.63945 
        3.15734         69.5537         4.58212 
        3.17308         68.8559         4.52562 
        3.18879         68.3141         4.47023 
        3.20447         67.4541         4.41585 
         3.2202          66.918          4.3622 
         3.2359         66.0604         4.30954 
        3.25157         65.5819         4.25788 
        3.26729         64.8906          4.2069 
        3.28304         64.3675         4.15666 
        3.29877         63.5978         4.10731 
        3.31446         62.7035         4.05886 
        3.33014         62.2125         4.01124 
        3.34585         61.4832         3.96431 
        3.36158         61.0394         3.91806 
        3.37727         60.5524         3.87269 
        3.39294          59.607         3.82809 
        3.40867          59.224         3.78402 
        3.42439         58.7067         3.74067 
        3.44008         57.9978         3.69809 
        3.45578         57.4115         3.65613 
        3.47153          56.853         3.61474 
        3.48724         56.4674         3.57406 
        3.50292         55.9872          3.5341 
        3.51859         55.2771         3.49477 
        3.53431         54.9146         3.45591 
        3.55007         54.3864         3.41755 
        3.56577         53.9685         3.37993 
        3.58146         53.3625         3.34288 
        3.59719         52.7231         3.30631 
        3.61292         52.2478          3.2703 
        3.62859         51.6498         3.23495 
        3.64429         51.2674         3.20007 
        3.66003         50.8799         3.16559 
        3.67578         50.3363         3.13163 
        3.69146         49.7842         3.09829 
        3.70712         49.2982         3.06551 
        3.72284         48.9311         3.03307 
        3.73853         48.4133         3.00116 
        3.75422         47.8969          2.9697 
        3.76993         47.3871         2.93866 
        3.78564         47.0725         2.90808 
        3.80137          46.632         2.87788 
        3.81707         46.0841         2.84818 
        3.83279         45.7435         2.81887 
        3.84853         45.4458         2.78992 
        3.86424         44.9748         2.76144 
        3.87992         44.4497         2.73339 
        3.89561         44.1744         2.70574 
        3.91134         43.7683         2.67841 
        3.92704         43.2305         2.65149 
        3.94273         42.8331         2.62497 
        3.95845         42.5567         2.59876 
        3.97418         42.1806          2.5729 
        3.98988         41.7683         2.54743 
        4.00554          41.458         2.52237 
        4.02125         41.0083         2.49758 
        4.03698          40.607         2.47309 
        4.05268         40.2768         2.44897 
        4.06839          39.852         2.42516 
         4.0841         39.5685         2.40168 
        4.09983         39.3067         2.37847 
        4.11555         38.8656         2.35558 
        4.13124         38.5421         2.33305 
        4.14693         38.2865          2.3108 
        4.16266         37.9448         2.28879 
        4.17839         37.5477         2.26707 
        4.19408         37.1355         2.24569 
        4.20977         36.9138         2.22457 
        4.22551         36.5961         2.20368 
        4.24123         36.2989         2.18307 
        4.25691          35.957         2.16279 
        4.27259         35.6131         2.14275 
        4.28831         35.3747         2.12293 
        4.30404         35.0656         2.10334 
        4.31974         34.7631         2.08404 
        4.33543         34.3956         2.06499 
        4.35116         34.2277         2.04614 
        4.36688         33.8365         2.02752 
        4.38255         33.5322         2.00921 
        4.39825         33.3075         1.99109 
        4.41398         33.0424         1.97315 
         4.4297         32.7264         1.95545 
        4.44541         32.5014         1.93797 
        4.46111         32.1773         1.92072 
        4.47683           31.89         1.90367 
        4.49251         31.6626         1.88685 
        4.50819         31.4195         1.87025 
         4.5239         31.2032         1.85382 
        4.53962         30.9035         1.83757 
        4.55535         30.6231          1.8215 
        4.57106         30.3624         1.80565 
        4.58678          30.156         1.78999 
         4.6025         29.8387         1.77451 
        4.61821         29.6746         1.75921 
        4.63391         29.3966         1.74411 
         4.6496         29.1811          1.7292 
        4.66532          28.947         1.71443 
        4.68103         28.7292         1.69985 
        4.69673         28.4613         1.68545 
        4.71241         28.2864         1.67123 
        4.72811         28.0641         1.65715 
        4.74384         27.8619         1.64321 
        4.75955         27.5327         1.62946 
        4.77525         27.4102         1.61587 
        4.79096         27.1619         1.60242 
        4.80669         26.9268         1.58912 
         4.8224         26.6889         1.57598 
        4.83809         26.5459           1.563 
        4.85379         26.3689         1.55017 
         4.8695         26.0774         1.53746 
        4.88521         25.8862         1.52491 
        4.90093          25.673         1.51249 
        4.91663         25.4447         1.50022 
        4.93234         25.2066         1.48807 
        4.94807         25.1298         1.47606 
        4.96377         24.9332         1.46419 
        4.97943          24.683         1.45248 
        4.99514          24.489         1.44087 
        5.01086         24.3402         1.42938 
        5.02654         24.1065         1.41804 
        5.04227         23.9297         1.40679 
          5.058         23.8089         1.39566 
        5.07371         23.5631         1.38467 
        5.08942          23.346          1.3738 
        5.10513         23.2129         1.36304 
        5.12084         23.0875         1.35239 
        5.13656         22.9162         1.34186 
        5.15225         22.6936         1.33146 
        5.16796         22.5003         1.32115 
        5.18369         22.3479         1.31094 
         5.1994         22.1539         1.30086 
        5.21509         22.0272         1.29089 
        5.23079         21.8279         1.28101 
        5.24649         21.7327         1.27125 
        5.26217         21.5338         1.26159 
        5.27788         21.3879         1.25202 
        5.29359          21.224         1.24255 
        5.30933         21.0103         1.23317 
        5.32504         20.8668         1.22389 
        5.34073          20.784         1.21472 
        5.35646         20.6077         1.20563 
        5.37218         20.4378         1.19663 
        5.38789         20.2981         1.18773 
        5.40357         20.1739         1.17893 
        5.41929         19.9414         1.17021 
        5.43502         19.8992         1.16157 
         5.4507         19.6993         1.15304 
        5.46639         19.5734         1.14459 
        5.48212         19.4405         1.13621 
        5.49786         19.2797          1.1279 
        5.51353         19.1188         1.11972 
        5.52921         18.9747         1.11161 
        5.54495         18.8667         1.10355 
        5.56066         18.7258         1.09559 
        5.57637         18.5811          1.0877 
        5.59207         18.4456          1.0799 
        5.60778          18.284         1.07217 
        5.62346         18.1808         1.06453 
        5.63916         18.0561         1.05696 
        5.65487          17.962         1.04945 
         5.6706         17.8102         1.04201 
        5.68633         17.6741         1.03464 
        5.70203         17.5251         1.02735 
        5.71773         17.4565         1.02014 
        5.73344          17.336         1.01299 
        5.74916         17.1642         1.00591 
        5.76486         17.0752        0.998897 
        5.78054         16.9711        0.991965 
        5.79626         16.8198         0.98508 
          5.812         16.7317        0.978254 
         5.8277         16.5712        0.971511 
        5.84339         16.4953        0.964833 
        5.85911         16.3898        0.958204 
        5.87484         16.2355        0.951639 
        5.89053         16.1105        0.945148 
        5.90623         16.0076        0.938714 
        5.92195         15.9105         0.93233 
        5.93767         15.8003        0.926008 
        5.95336         15.7069        0.919755 
        5.96905         15.5701        0.913562 
        5.98476         15.4723        0.907418 
        6.00048         15.3707        0.901328 
        6.01617         15.2644        0.895302 
        6.03185         15.1645        0.889338 
        6.04756         15.0297        0.883414 
        6.06331          14.944        0.877532 
        6.07903         14.8584        0.871716 
        6.09473         14.7563        0.865957 
        6.11044         14.6201        0.860245 
        6.12616         14.5262        0.854586 
        6.14186         14.4296        0.848983 
        6.15755         14.3435        0.843431 
        6.17326         14.2514        0.837924 
        6.18898         14.1627        0.832464 
        6.20467         14.0655        0.827062 
        6.22036         13.9601        0.821708 
         6.2361         13.8524        0.816387 
         6.2518         13.7805        0.811122 
        6.26748         13.6802        0.805915 
        6.28319         13.5756         0.80074 
        6.29893         13.5013        0.795605 
        6.31463         13.3851        0.790524 
        6.33033         13.3483        0.785489 
        6.34604         13.2359        0.780494 
        6.36177         13.1456        0.775538 
        6.37747         13.0627        0.770634 
