# k  (h/Mpc)    Pcb(k)  (Mpc/h)^3    Pcb_linear(k) (Mpc/h)^3   ShotnoiseSubtracted = true
      0.0200456         22790.1         23197.5 
      0.0350414         17399.9         16863.8 
      0.0492313         11974.8         12252.9 
      0.0637834         9651.82         10185.8 
      0.0800726         7571.97         8084.18 
       0.096163         6098.01         5865.78 
       0.111083         4966.87          4678.7 
       0.126058         4103.94         4146.28 
       0.142273         3599.78         3512.81 
       0.158546         2953.82         2774.38 
        0.17375         2645.75         2337.42 
       0.188953         2513.18         2116.48 
       0.204907         2162.74         1872.65 
       0.220756         1957.58         1584.38 
        0.23588         1748.07         1378.27 
         0.2514          1585.4         1252.14 
       0.267535          1528.6         1132.97 
       0.283568         1364.79         999.132 
       0.299022         1301.02         890.175 
       0.314451         1356.36         813.559 
       0.330372         1202.84         746.349 
       0.346141         1104.67         677.426 
       0.361624         1060.18         615.687 
       0.377134         1017.97         566.529 
       0.392932         969.591         524.199 
       0.408854         930.839          483.21 
       0.424564         911.408         445.381 
       0.440253         846.755          412.92 
       0.455999         809.784         384.694 
       0.471626         823.638         358.754 
        0.48727         777.818         334.489 
       0.502856         748.718          312.69 
       0.518488         725.207          293.24 
       0.534347         697.927         275.159 
       0.550082         665.679         258.487 
       0.565732         655.734         243.234 
       0.581496         642.004         229.264 
       0.597222         629.262         216.453 
       0.612804          613.98         204.672 
       0.628434         588.873         193.691 
       0.644267         572.983         183.425 
       0.660051         566.866         173.964 
       0.675724         555.461         165.227 
       0.691403         538.842         157.083 
       0.707174         523.202         149.442 
       0.722871         518.148          142.34 
        0.73838         506.294         135.775 
       0.754018         494.401         129.575 
       0.769845         488.178         123.694 
        0.78569         477.757         118.174 
       0.801365         461.899         113.045 
       0.817031         458.065         108.225 
       0.832809         450.926         103.658 
       0.848511         443.578         99.3751 
       0.864097         433.682         95.3653 
       0.879701         433.084         91.5739 
       0.895507         416.046         87.9448 
       0.911279         410.602         84.5209 
        0.92691         405.796         81.3085 
       0.942635         400.936          78.246 
       0.958396         388.215         75.3355 
       0.974128         383.089          72.579 
       0.989692         372.366         69.9883 
        1.00528         368.945         67.5207 
        1.02113         362.696         65.1338 
        1.03692         357.273         62.8717 
        1.05264         352.162         60.7278 
        1.06832          344.63         58.6877 
        1.08405         343.082         56.7362 
        1.09979         335.695         54.8727 
        1.11537         327.007         53.1117 
        1.13105         323.414         51.4177 
        1.14679         317.979         49.7914 
        1.16256         316.231         48.2325 
        1.17828         311.018         46.7457 
        1.19395         303.188         45.3268 
         1.2097         301.482         43.9599 
        1.22537         296.542         42.6561 
          1.241         290.035         41.4093 
        1.25666         287.335         40.2094 
        1.27241         283.495         39.0516 
        1.28819         276.733         37.9376 
        1.30392         276.801         36.8704 
        1.31957          268.96         35.8491 
        1.33529         265.544          34.863 
        1.35108         264.196         33.9101 
        1.36674         257.041         32.9997 
         1.3824         254.651         32.1237 
        1.39811         251.789         31.2767 
        1.41389         245.806         30.4571 
        1.42964         242.764         29.6683 
        1.44531         240.249         28.9114 
        1.46101         235.961         28.1794 
        1.47667         233.322         27.4749 
        1.49229         230.095         26.7965 
        1.50793         226.746         26.1403 
        1.52367         223.216         25.5019 
        1.53953         219.432         24.8806 
        1.55526         217.258          24.285 
        1.57092         215.436         23.7114 
        1.58662         210.547          23.155 
        1.60235         208.193         22.6154 
        1.61809         206.098         22.0928 
        1.63369         202.168         21.5914 
        1.64941         199.327          21.102 
        1.66519         196.839          20.626 
        1.68085          193.38         20.1681 
        1.69652         191.571         19.7241 
        1.71228         188.609         19.2909 
        1.72806          186.55         18.8704 
        1.74368         184.222         18.4666 
        1.75933         182.957         18.0739 
        1.77505         180.079         17.6908 
        1.79081          176.61         17.3182 
         1.8065         175.544         16.9579 
        1.82218         171.228         16.6082 
        1.83797         170.113          16.266 
        1.85367         167.602         15.9353 
        1.86928         165.132         15.6158 
        1.88497         163.675         15.3034 
        1.90073         162.044         14.9983 
        1.91647           158.9         14.7019 
        1.93218         156.621         14.4141 
        1.94787         154.689         14.1344 
        1.96363         154.019         13.8611 
        1.97935         152.132         13.5956 
        1.99499         149.681         13.3385 
        2.01064         146.565         13.0878 
         2.0264         146.188         12.8419 
        2.04216         143.631         12.6024 
        2.05781         141.164         12.3706 
        2.07353         140.413         12.1438 
        2.08928         138.601         11.9222 
        2.10499         137.159         11.7067 
        2.12065         135.585         11.4972 
        2.13633         133.554         11.2926 
        2.15211          131.46         11.0918 
        2.16785         130.174         10.8963 
        2.18349         128.763         10.7068 
        2.19916         126.909         10.5214 
        2.21489         125.327         10.3398 
        2.23063         123.783         10.1624 
         2.2463         122.045         9.98995 
        2.26194          121.09         9.82191 
        2.27765         119.098         9.65689 
        2.29341          118.13         9.49523 
        2.30914         116.803         9.33761 
        2.32486         114.814         9.18366 
        2.34061         113.455         9.03293 
        2.35635          112.65         8.88571 
        2.37203         110.716         8.74229 
        2.38768         109.958         8.60234 
        2.40339         107.888         8.46494 
        2.41914          106.93         8.33023 
        2.43483         106.116         8.19893 
         2.4505         104.681         8.07068 
        2.46622         103.074         7.94473 
        2.48195         102.219         7.82147 
        2.49759         100.659         7.70148 
        2.51328         99.7278          7.5837 
        2.52906         98.7355         7.46763 
        2.54479         97.3684         7.35443 
        2.56049         96.0774          7.2438 
        2.57618         95.1212         7.13554 
        2.59189         94.4049         7.02933 
        2.60758         92.8118         6.92545 
        2.62325         92.3368          6.8238 
        2.63898          91.171         6.72383 
        2.65468          90.244         6.62608 
        2.67044         89.1543         6.52985 
        2.68618         87.8123         6.43576 
        2.70184         86.8597         6.34389 
        2.71755         86.2892          6.2536 
        2.73329         84.7859         6.16492 
        2.74897         83.9899         6.07825 
        2.76462         83.6071         5.99344 
        2.78034         82.0989          5.9099 
        2.79607         81.0856         5.82786 
        2.81179         80.4471         5.74748 
        2.82749         79.7241          5.6687 
        2.84321         78.4639         5.59131 
        2.85893         77.3357         5.51539 
        2.87462         76.9158         5.44101 
        2.89033         75.9784         5.36793 
        2.90605         75.1759         5.29613 
        2.92176         74.5157         5.22569 
        2.93747         73.6768         5.15656 
        2.95318         72.5042         5.08866 
        2.96891         72.0785         5.02196 
        2.98456         71.0449         4.95675 
        3.00023          70.393          4.8926 
        3.01596         69.8129         4.82939 
        3.03164         68.9469         4.76747 
        3.04738         68.6182         4.70646 
         3.0631         67.4137         4.64654 
        3.07883          66.936         4.58766 
        3.09456         66.0178         4.52981 
        3.11026         65.5946         4.47304 
        3.12596         64.7529         4.41726 
        3.14163         64.1068         4.36255 
        3.15734         63.1976         4.30865 
        3.17308         62.7957         4.25552 
        3.18879         62.1803         4.20344 
        3.20447         61.6514          4.1523 
         3.2202         60.6883         4.10185 
         3.2359         60.0994         4.05234 
        3.25157         59.7777         4.00375 
        3.26729         59.0409         3.95582 
        3.28304         58.2066         3.90858 
        3.29877         57.8553         3.86217 
        3.31446         57.0901         3.81662 
        3.33014         56.6685         3.77184 
        3.34585         56.1086         3.72771 
        3.36158         55.7101         3.68422 
        3.37727         55.0884         3.64156 
        3.39294         54.4705         3.59961 
        3.40867         54.0238         3.55818 
        3.42439         53.4164         3.51742 
        3.44008         52.8373         3.47737 
        3.45578         52.3443         3.43792 
        3.47153         51.8618           3.399 
        3.48724         51.3811         3.36075 
        3.50292         50.8541         3.32317 
        3.51859         50.4154         3.28619 
        3.53431         49.7967         3.24965 
        3.55007         49.2635         3.21358 
        3.56577         48.7829          3.1782 
        3.58146         48.2842         3.14337 
        3.59719         47.9005         3.10898 
        3.61292          47.294         3.07512 
        3.62859          46.983         3.04188 
        3.64429         46.6151         3.00908 
        3.66003         46.2238         2.97665 
        3.67578         45.6613         2.94472 
        3.69146          45.274         2.91338 
        3.70712          44.939         2.88255 
        3.72284         44.4571         2.85205 
        3.73853         44.0354         2.82204 
        3.75422         43.5871         2.79246 
        3.76993         43.2241         2.76327 
        3.78564         42.8101         2.73451 
        3.80137         42.4988         2.70612 
        3.81707         41.9676         2.67819 
        3.83279         41.6787         2.65063 
        3.84853         41.2225         2.62341 
        3.86424         40.8239         2.59663 
        3.87992         40.4269         2.57026 
        3.89561         40.1521         2.54425 
        3.91134         39.7742         2.51856 
        3.92704         39.3989         2.49324 
        3.94273         39.0777          2.4683 
        3.95845         38.6334         2.44366 
        3.97418         38.3573         2.41934 
        3.98988         37.9958         2.39539 
        4.00554         37.5823         2.37183 
        4.02125         37.3827         2.34852 
        4.03698         36.9395         2.32548 
        4.05268         36.7464         2.30281 
        4.06839          36.392         2.28042 
         4.0841         36.1204         2.25834 
        4.09983         35.6938         2.23652 
        4.11555         35.4578         2.21499 
        4.13124         35.0096         2.19381 
        4.14693         34.7799         2.17288 
        4.16266         34.5099         2.15219 
        4.17839          34.147         2.13177 
        4.19408         33.8896         2.11166 
        4.20977         33.6262          2.0918 
        4.22551          33.283         2.07216 
        4.24123         33.0488         2.05278 
        4.25691         32.7303          2.0337 
        4.27259         32.4535         2.01486 
        4.28831          32.197         1.99623 
        4.30404          31.937         1.97781 
        4.31974         31.6567         1.95966 
        4.33543         31.3815         1.94175 
        4.35116         31.0959         1.92402 
        4.36688         30.8061         1.90651 
        4.38255         30.6307          1.8893 
        4.39825         30.3317         1.87225 
        4.41398         30.0787         1.85538 
         4.4297         29.8037         1.83874 
        4.44541         29.6677         1.82231 
        4.46111          29.265         1.80609 
        4.47683         29.1215         1.79005 
        4.49251         28.8982         1.77424 
        4.50819         28.6411         1.75863 
         4.5239         28.3266         1.74318 
        4.53962         28.1615          1.7279 
        4.55535         27.9125         1.71279 
        4.57106         27.6262         1.69789 
        4.58678         27.4591         1.68316 
         4.6025         27.2768          1.6686 
        4.61821         27.0649         1.65421 
        4.63391         26.7787         1.64002 
         4.6496         26.5392         1.62599 
        4.66532         26.3656         1.61211 
        4.68103         26.1575          1.5984 
        4.69673         25.9575         1.58486 
        4.71241         25.7641         1.57148 
        4.72811         25.5412         1.55825 
        4.74384         25.3842         1.54514 
        4.75955         25.1993         1.53221 
        4.77525         24.9113         1.51943 
        4.79096         24.6936         1.50678 
        4.80669         24.5635         1.49427 
         4.8224         24.3749         1.48192 
        4.83809         24.1114         1.46972 
        4.85379         23.9576         1.45765 
         4.8695         23.7816          1.4457 
        4.88521          23.547          1.4339 
        4.90093         23.4495         1.42222 
        4.91663         23.2224         1.41068 
        4.93234         22.9861         1.39926 
        4.94807         22.8135         1.38796 
        4.96377           22.67          1.3768 
        4.97943         22.5087         1.36579 
        4.99514         22.3701         1.35488 
        5.01086         22.1621         1.34407 
        5.02654          21.974         1.33341 
        5.04227          21.835         1.32283 
          5.058         21.6182         1.31236 
        5.07371         21.4317         1.30203 
        5.08942         21.2491          1.2918 
        5.10513         21.1817         1.28169 
        5.12084         21.0066         1.27168 
        5.13656         20.8311         1.26177 
        5.15225          20.732         1.25199 
        5.16796         20.5157          1.2423 
        5.18369         20.3487          1.2327 
         5.1994         20.1538         1.22322 
        5.21509         20.0308         1.21384 
        5.23079          19.888         1.20456 
        5.24649         19.7449         1.19538 
        5.26217         19.6047          1.1863 
        5.27788         19.4747          1.1773 
        5.29359         19.2983         1.16839 
        5.30933         19.1347         1.15957 
        5.32504         19.0149         1.15084 
        5.34073         18.8439         1.14222 
        5.35646         18.7289         1.13367 
        5.37218         18.5747         1.12521 
        5.38789         18.4471         1.11684 
        5.40357         18.3039         1.10857 
        5.41929         18.1981         1.10037 
        5.43502         18.0495         1.09224 
         5.4507         17.8758         1.08422 
        5.46639         17.7462         1.07628 
        5.48212         17.6323          1.0684 
        5.49786         17.5177         1.06059 
        5.51353         17.4146         1.05289 
        5.52921         17.2709         1.04526 
        5.54495         17.1343         1.03769 
        5.56066         17.0183          1.0302 
        5.57637         16.8864         1.02278 
        5.59207         16.7509         1.01545 
        5.60778         16.6991         1.00818 
        5.62346          16.541           1.001 
        5.63916          16.417        0.993874 
        5.65487         16.2748        0.986817 
         5.6706         16.1864         0.97982 
        5.68633         16.0841        0.972889 
        5.70203         15.9525        0.966038 
        5.71773         15.8525        0.959255 
        5.73344         15.7471        0.952534 
        5.74916         15.6201         0.94587 
        5.76486         15.5051        0.939279 
        5.78054         15.3821        0.932762 
        5.79626         15.2799        0.926287 
          5.812         15.2059        0.919868 
         5.8277         15.0594        0.913528 
        5.84339         14.9592        0.907248 
        5.85911         14.8828        0.901015 
        5.87484         14.7394        0.894842 
        5.89053         14.6221        0.888738 
        5.90623         14.5618        0.882689 
        5.92195         14.4376        0.876685 
        5.93767         14.3604        0.870741 
        5.95336         14.2537        0.864861 
        5.96905         14.1489        0.859038 
        5.98476         14.0693         0.85326 
        6.00048         13.9647        0.847534 
        6.01617         13.8948        0.841867 
        6.03185         13.7741         0.83626 
        6.04756         13.6927        0.830689 
        6.06331          13.598        0.825158 
        6.07903         13.4792        0.819689 
        6.09473         13.3905        0.814274 
        6.11044         13.3077        0.808903 
        6.12616         13.2288        0.803582 
        6.14186         13.1493        0.798313 
        6.15755         13.0334        0.793092 
        6.17326         12.9419        0.787914 
        6.18898         12.8536         0.78278 
        6.20467         12.7478          0.7777 
        6.22036         12.6712        0.772666 
         6.2361         12.5796        0.767663 
         6.2518         12.5045        0.762712 
        6.26748         12.4494        0.757816 
        6.28319         12.3491        0.752949 
        6.29893          12.274        0.748121 
        6.31463         12.1961        0.743343 
        6.33033         12.1192        0.738608 
        6.34604         12.0161        0.733911 
        6.36177         11.9403        0.729251 
        6.37747         11.8689         0.72464 
