# k  (h/Mpc)    Pcb(k)  (Mpc/h)^3    Pcb_linear(k) (Mpc/h)^3   ShotnoiseSubtracted = true
      0.0200456         3823.34         3883.34 
      0.0350414         2782.48         2823.06 
      0.0492313         2051.66         2051.18 
      0.0637834         1729.95         1705.13 
      0.0800726          1371.3         1353.32 
       0.096163         972.513          981.95 
       0.111083         771.344         783.229 
       0.126058         701.597           694.1 
       0.142273         601.819         588.056 
       0.158546         484.603         464.441 
        0.17375         395.823         391.291 
       0.188953         370.763         354.305 
       0.204907           343.7         313.488 
       0.220756         286.933          265.23 
        0.23588         250.355         230.727 
         0.2514         222.442         209.613 
       0.267535          207.54         189.664 
       0.283568         186.638         167.258 
       0.299022          170.37         149.018 
       0.314451         153.665         136.192 
       0.330372         142.856         124.941 
       0.346141         129.069         113.403 
       0.361624         120.928         103.068 
       0.377134         113.812         94.8389 
       0.392932         101.884         87.7525 
       0.408854         98.0321         80.8909 
       0.424564         93.2493         74.5583 
       0.440253         86.3314         69.1242 
       0.455999          81.294          64.399 
       0.471626         75.5897         60.0566 
        0.48727         72.7451         55.9945 
       0.502856         68.7364         52.3454 
       0.518488         65.9372         49.0894 
       0.534347         63.3404         46.0625 
       0.550082         58.1237         43.2715 
       0.565732         54.8562         40.7181 
       0.581496         53.2998         38.3796 
       0.597222         51.5589         36.2349 
       0.612804         48.3915         34.2627 
       0.628434         46.9369         32.4245 
       0.644267         45.6538          30.706 
       0.660051         43.6514         29.1221 
       0.675724         41.5197         27.6595 
       0.691403         40.2431         26.2962 
       0.707174         39.0284         25.0171 
       0.722871         37.5294         23.8281 
        0.73838         36.3552         22.7291 
       0.754018         34.7519         21.6912 
       0.769845         33.8522         20.7068 
        0.78569         32.8211         19.7826 
       0.801365         31.6308         18.9241 
       0.817031         30.9013         18.1173 
       0.832809         30.2909         17.3526 
       0.848511         28.5158         16.6357 
       0.864097         28.0336         15.9644 
       0.879701         27.4175         15.3298 
       0.895507         26.8088         14.7222 
       0.911279         25.9536         14.1491 
        0.92691         25.3309         13.6113 
       0.942635         24.3667         13.0986 
       0.958396         23.9873         12.6114 
       0.974128         23.2582           12.15 
       0.989692         23.0173         11.7163 
        1.00528         22.4623         11.3032 
        1.02113         21.5808         10.9036 
        1.03692         21.1462         10.5249 
        1.05264         20.7737          10.166 
        1.06832         20.2698         9.82451 
        1.08405          19.763         9.49783 
        1.09979         19.3684         9.18586 
        1.11537         18.9814         8.89106 
        1.13105         18.6818         8.60749 
        1.14679         18.4125         8.33523 
        1.16256         17.7385         8.07427 
        1.17828         17.7023         7.82538 
        1.19395         17.1062         7.58786 
         1.2097         16.9559         7.35903 
        1.22537         16.5252         7.14077 
          1.241         16.2629         6.93205 
        1.25666         15.8675         6.73118 
        1.27241           15.55         6.53736 
        1.28819         15.2549         6.35087 
        1.30392         15.1326         6.17222 
        1.31957          14.913         6.00126 
        1.33529         14.6532         5.83617 
        1.35108         14.3018         5.67666 
        1.36674         14.1612         5.52426 
         1.3824         13.8211         5.37762 
        1.39811         13.6171         5.23583 
        1.41389         13.4588         5.09862 
        1.42964         13.2747         4.96658 
        1.44531         13.1266         4.83987 
        1.46101         12.7542         4.71732 
        1.47667         12.6271         4.59939 
        1.49229         12.4655         4.48582 
        1.50793         12.2764         4.37597 
        1.52367         12.0809          4.2691 
        1.53953         11.9205         4.16509 
        1.55526          11.743         4.06538 
        1.57092         11.5728         3.96936 
        1.58662         11.4563         3.87622 
        1.60235         11.2629         3.78589 
        1.61809          11.129         3.69841 
        1.63369          10.972         3.61447 
        1.64941         10.7907         3.53254 
        1.66519         10.7185         3.45286 
        1.68085          10.542         3.37621 
        1.69652         10.3972         3.30187 
        1.71228         10.2509         3.22935 
        1.72806         10.1979         3.15896 
        1.74368         10.0104         3.09137 
        1.75933         9.91396         3.02563 
        1.77505         9.78841          2.9615 
        1.79081         9.61882         2.89912 
         1.8065         9.56307         2.83881 
        1.82218         9.39043         2.78026 
        1.83797          9.3313         2.72297 
        1.85367         9.18435         2.66762 
        1.86928           9.178         2.61414 
        1.88497          8.9582         2.56183 
        1.90073         8.92572         2.51077 
        1.91647         8.84413         2.46114 
        1.93218         8.74984         2.41296 
        1.94787          8.6105         2.36615 
        1.96363          8.5523         2.32039 
        1.97935          8.4083         2.27594 
        1.99499         8.30437         2.23291 
        2.01064         8.23567         2.19093 
         2.0264         8.16588         2.14977 
        2.04216         8.07009         2.10968 
        2.05781         7.95887         2.07088 
        2.07353         7.91066         2.03291 
        2.08928         7.83432         1.99581 
        2.10499         7.78783         1.95974 
        2.12065         7.66203         1.92467 
        2.13633         7.63434         1.89042 
        2.15211         7.51045          1.8568 
        2.16785         7.45188         1.82408 
        2.18349         7.39173         1.79236 
        2.19916         7.31223         1.76132 
        2.21489         7.22344         1.73092 
        2.23063         7.16739         1.70122 
         2.2463          7.0817         1.67235 
        2.26194           7.003         1.64422 
        2.27765         6.97844         1.61659 
        2.29341          6.9002         1.58953 
        2.30914         6.81256         1.56315 
        2.32486         6.73454         1.53737 
        2.34061         6.70228         1.51214 
        2.35635         6.66607          1.4875 
        2.37203         6.59238         1.46349 
        2.38768         6.50211         1.44006 
        2.40339         6.47054         1.41706 
        2.41914         6.37308         1.39451 
        2.43483         6.36377         1.37253 
         2.4505         6.29277         1.35106 
        2.46622         6.24072         1.32997 
        2.48195         6.16706         1.30934 
        2.49759         6.15298         1.28925 
        2.51328          6.0768         1.26953 
        2.52906         6.05303         1.25011 
        2.54479          5.9756         1.23116 
        2.56049         5.94023         1.21263 
        2.57618         5.88648         1.19451 
        2.59189         5.81355         1.17673 
        2.60758         5.80172         1.15934 
        2.62325         5.72911         1.14233 
        2.63898         5.66491         1.12559 
        2.65468         5.62087         1.10923 
        2.67044         5.58793         1.09312 
        2.68618         5.55781         1.07737 
        2.70184         5.49525         1.06199 
        2.71755         5.44684         1.04687 
        2.73329         5.42053         1.03203 
        2.74897         5.39413         1.01752 
        2.76462         5.34872         1.00332 
        2.78034         5.27361        0.989336 
        2.79607         5.24562        0.975603 
        2.81179         5.22108        0.962146 
        2.82749         5.15214        0.948958 
        2.84321         5.15762        0.936003 
        2.85893         5.10269        0.923294 
        2.87462         5.04609        0.910842 
        2.89033         5.01331        0.898609 
        2.90605         4.97109         0.88659 
        2.92176         4.92051        0.874797 
        2.93747         4.89347        0.863224 
        2.95318         4.86942        0.851858 
        2.96891         4.82855        0.840692 
        2.98456         4.79733        0.829776 
        3.00023         4.74137        0.819037 
        3.01596         4.71738        0.808455 
        3.03164         4.70256         0.79809 
        3.04738         4.66037        0.787877 
         3.0631         4.61834        0.777846 
        3.07883         4.58812        0.767989 
        3.09456         4.55746        0.758305 
        3.11026         4.53762        0.748802 
        3.12596         4.49318        0.739463 
        3.14163         4.45148        0.730305 
        3.15734          4.4217        0.721281 
        3.17308         4.40288        0.712388 
        3.18879         4.36217        0.703669 
        3.20447         4.34924        0.695108 
         3.2202         4.29321        0.686663 
         3.2359         4.28532        0.678374 
        3.25157          4.2381        0.670241 
        3.26729         4.22483        0.662217 
        3.28304         4.18846        0.654309 
        3.29877         4.16008         0.64654 
        3.31446         4.12287        0.638914 
        3.33014         4.11226        0.631418 
        3.34585         4.08115         0.62403 
        3.36158         4.06102         0.61675 
        3.37727         4.02343        0.609608 
        3.39294          4.0123        0.602587 
        3.40867         3.96689         0.59565 
        3.42439         3.94571        0.588827 
        3.44008         3.91713        0.582124 
        3.45578         3.89121         0.57552 
        3.47153         3.86745        0.569004 
        3.48724          3.8434          0.5626 
        3.50292         3.82715         0.55631 
        3.51859         3.79436        0.550118 
        3.53431         3.76035        0.544002 
        3.55007         3.75215        0.537964 
        3.56577         3.73272        0.532041 
        3.58146         3.70639         0.52621 
        3.59719          3.6813        0.520453 
        3.61292         3.65885        0.514784 
        3.62859         3.62205        0.509221 
        3.64429         3.60113        0.503729 
        3.66003         3.59157        0.498302 
        3.67578         3.56691        0.492956 
        3.69146         3.53575        0.487709 
        3.70712         3.52064        0.482548 
        3.72284         3.49086        0.477442 
        3.73853          3.4803        0.472419 
        3.75422         3.45421        0.467466 
        3.76993         3.42488        0.462581 
        3.78564          3.4124        0.457767 
        3.80137         3.39622        0.453013 
        3.81707         3.36237        0.448337 
        3.83279         3.34865        0.443723 
        3.84853         3.32068        0.439167 
        3.86424         3.30324        0.434684 
        3.87992         3.28391        0.430269 
        3.89561         3.26652        0.425916 
        3.91134         3.24696        0.421614 
        3.92704         3.22579        0.417377 
        3.94273         3.20382        0.413202 
        3.95845         3.19057        0.409076 
        3.97418          3.1626        0.405006 
        3.98988         3.14487        0.400996 
        4.00554         3.12051        0.397052 
        4.02125         3.09563         0.39315 
        4.03698         3.08644        0.389294 
        4.05268         3.06246        0.385498 
        4.06839         3.05147         0.38175 
         4.0841         3.02743        0.378053 
        4.09983         3.00175          0.3744 
        4.11555         2.99041        0.370797 
        4.13124         2.96931        0.367251 
        4.14693         2.94599        0.363748 
        4.16266         2.93066        0.360283 
        4.17839         2.91502        0.356865 
        4.19408         2.88794        0.353499 
        4.20977         2.87299        0.350175 
        4.22551         2.85252        0.346886 
        4.24123         2.83777        0.343642 
        4.25691         2.82082        0.340449 
        4.27259         2.80832        0.337295 
        4.28831         2.78978        0.334175 
        4.30404          2.7707        0.331091 
        4.31974         2.75772        0.328053 
        4.33543          2.7408        0.325055 
        4.35116         2.72012        0.322087 
        4.36688         2.71197        0.319157 
        4.38255         2.69134        0.316274 
        4.39825         2.67742        0.313421 
        4.41398         2.66302        0.310597 
         4.4297         2.64395        0.307811 
        4.44541         2.62845         0.30506 
        4.46111          2.6148        0.302345 
        4.47683         2.59197         0.29966 
        4.49251         2.58613        0.297014 
        4.50819         2.56889          0.2944 
         4.5239         2.55485        0.291814 
        4.53962          2.5434        0.289256 
        4.55535         2.53114        0.286727 
        4.57106         2.51687        0.284232 
        4.58678         2.50039        0.281766 
         4.6025         2.48527        0.279329 
        4.61821         2.47101        0.276921 
        4.63391         2.45852        0.274544 
         4.6496         2.44448        0.272196 
        4.66532         2.42337        0.269873 
        4.68103         2.41855        0.267577 
        4.69673         2.40363         0.26531 
        4.71241         2.38547        0.263072 
        4.72811         2.37738        0.260855 
        4.74384         2.36743        0.258662 
        4.75955         2.35475        0.256497 
        4.77525         2.34314        0.254358 
        4.79096         2.32555         0.25224 
        4.80669         2.31842        0.250146 
         4.8224         2.30722        0.248078 
        4.83809         2.29382        0.246036 
        4.85379         2.28028        0.244015 
         4.8695         2.26599        0.242015 
        4.88521         2.25369        0.240039 
        4.90093         2.23902        0.238084 
        4.91663         2.22831        0.236153 
        4.93234         2.21828        0.234241 
        4.94807         2.20789        0.232349 
        4.96377         2.19176        0.230481 
        4.97943         2.18768        0.228638 
        4.99514         2.17293        0.226811 
        5.01086         2.15819        0.225001 
        5.02654         2.15179        0.223217 
        5.04227         2.14561        0.221446 
          5.058         2.13237        0.219694 
        5.07371         2.11915        0.217964 
        5.08942         2.11277        0.216252 
        5.10513         2.09841        0.214559 
        5.12084         2.09493        0.212883 
        5.13656         2.07737        0.211225 
        5.15225         2.06888        0.209587 
        5.16796         2.05404        0.207964 
        5.18369         2.04703        0.206357 
         5.1994         2.03992         0.20477 
        5.21509         2.02687        0.203201 
        5.23079         2.01959        0.201647 
        5.24649         2.00829         0.20011 
        5.26217         2.00331         0.19859 
        5.27788         1.98826        0.197084 
        5.29359         1.98636        0.195593 
        5.30933         1.97462        0.194115 
        5.32504         1.96154        0.192655 
        5.34073         1.95545        0.191212 
        5.35646         1.94226         0.18978 
        5.37218         1.93418        0.188363 
        5.38789         1.93203        0.186963 
        5.40357          1.9209        0.185578 
        5.41929         1.91185        0.184205 
        5.43502         1.90186        0.182845 
         5.4507         1.89288        0.181502 
        5.46639         1.88796        0.180173 
        5.48212         1.87572        0.178853 
        5.49786         1.87081        0.177545 
        5.51353         1.85808        0.176257 
        5.52921         1.84954         0.17498 
        5.54495         1.84339        0.173713 
        5.56066         1.83537        0.172459 
        5.57637         1.82585        0.171217 
        5.59207         1.81867        0.169989 
        5.60778         1.81029        0.168773 
        5.62346         1.80408         0.16757 
        5.63916         1.79248        0.166378 
        5.65487         1.78462        0.165196 
         5.6706         1.78108        0.164025 
        5.68633         1.76737        0.162865 
        5.70203         1.76128        0.161718 
        5.71773         1.75536        0.160582 
        5.73344         1.74502        0.159457 
        5.74916          1.7361        0.158342 
        5.76486         1.73146        0.157238 
        5.78054          1.7245        0.156147 
        5.79626          1.7148        0.155063 
          5.812         1.71127        0.153989 
         5.8277         1.70119        0.152928 
        5.84339         1.69638        0.151876 
        5.85911         1.68815        0.150833 
        5.87484          1.6826        0.149799 
        5.89053         1.67466        0.148778 
        5.90623         1.66515        0.147765 
        5.92195            1.66         0.14676 
        5.93767         1.65258        0.145765 
        5.95336          1.6458        0.144781 
        5.96905          1.6387        0.143806 
        5.98476         1.63177        0.142839 
        6.00048         1.62354         0.14188 
        6.01617         1.62086        0.140931 
        6.03185         1.61271        0.139993 
        6.04756         1.60634         0.13906 
        6.06331         1.59883        0.138134 
        6.07903         1.59419        0.137219 
        6.09473         1.59058        0.136312 
        6.11044         1.57941        0.135413 
        6.12616          1.5734        0.134522 
        6.14186         1.56682         0.13364 
        6.15755         1.56345        0.132766 
        6.17326         1.55473        0.131899 
        6.18898         1.55099         0.13104 
        6.20467         1.54435         0.13019 
        6.22036         1.53609        0.129347 
         6.2361         1.53064        0.128509 
         6.2518         1.52574         0.12768 
        6.26748         1.51868        0.126861 
        6.28319         1.51299        0.126046 
        6.29893         1.50857        0.125238 
        6.31463         1.50122        0.124438 
        6.33033         1.49694        0.123645 
        6.34604         1.48917        0.122859 
        6.36177         1.48516        0.122079 
        6.37747         1.47953        0.121307 
