# k  (h/Mpc)    Pcb(k)  (Mpc/h)^3    Pcb_linear(k) (Mpc/h)^3   ShotnoiseSubtracted = true
      0.0200456          1033.6         1046.86 
      0.0350414         770.125         761.035 
      0.0492313         554.782         552.954 
      0.0637834         455.191         459.665 
      0.0800726         360.357         364.825 
       0.096163         268.788         264.712 
       0.111083         215.603         211.141 
       0.126058         186.167         187.114 
       0.142273         157.365         158.527 
       0.158546         126.223         125.203 
        0.17375         107.581         105.483 
       0.188953         96.6246         95.5129 
       0.204907         83.3392         84.5094 
       0.220756         72.4117         71.5001 
        0.23588         63.1274         62.1989 
         0.2514         57.2639          56.507 
       0.267535         52.3218         51.1292 
       0.283568         46.0602         45.0891 
       0.299022           41.47          40.172 
       0.314451         38.6658         36.7145 
       0.330372         34.9002         33.6814 
       0.346141         31.7699          30.571 
       0.361624         28.9206         27.7849 
       0.377134         26.4918         25.5665 
       0.392932         25.3565         23.6562 
       0.408854         22.9271         21.8064 
       0.424564         21.7387         20.0993 
       0.440253         19.8597         18.6344 
       0.455999         18.1971         17.3606 
       0.471626          17.075         16.1899 
        0.48727         16.4057         15.0949 
       0.502856         15.3621         14.1112 
       0.518488         14.1685         13.2334 
       0.534347         13.2568         12.4174 
       0.550082          12.703          11.665 
       0.565732         12.1383         10.9767 
       0.581496         11.4051         10.3463 
       0.597222         10.7356         9.76813 
       0.612804         10.1254         9.23648 
       0.628434         9.77792         8.74095 
       0.644267         9.28131         8.27767 
       0.660051         8.78554         7.85068 
       0.675724         8.29991         7.45641 
       0.691403         8.00828         7.08888 
       0.707174         7.61884         6.74406 
       0.722871         7.42132         6.42354 
        0.73838         6.93563         6.12728 
       0.754018         6.61984         5.84747 
       0.769845         6.30332          5.5821 
        0.78569         6.13951         5.33296 
       0.801365         5.86521         5.10152 
       0.817031         5.66319         4.88402 
       0.832809         5.37744         4.67788 
       0.848511         5.22206         4.48463 
       0.864097         5.03005         4.30367 
       0.879701         4.89363         4.13257 
       0.895507         4.67872          3.9688 
       0.911279         4.50953         3.81428 
        0.92691         4.37826         3.66931 
       0.942635         4.18784         3.53111 
       0.958396         4.05287         3.39976 
       0.974128         3.94254         3.27537 
       0.989692         3.76564         3.15845 
        1.00528         3.68134         3.04709 
        1.02113         3.57105         2.93938 
        1.03692         3.47578         2.83729 
        1.05264          3.3298         2.74054 
        1.06832         3.24414         2.64847 
        1.08405         3.14332         2.56041 
        1.09979         3.06672         2.47631 
        1.11537         2.97111         2.39684 
        1.13105         2.86842         2.32039 
        1.14679         2.79619           2.247 
        1.16256         2.70569         2.17665 
        1.17828         2.66698         2.10955 
        1.19395         2.56597         2.04552 
         1.2097         2.49371         1.98383 
        1.22537         2.41228         1.92499 
          1.241         2.36371         1.86873 
        1.25666         2.32539         1.81458 
        1.27241          2.2662         1.76233 
        1.28819          2.1772         1.71206 
        1.30392          2.1257          1.6639 
        1.31957         2.09178         1.61781 
        1.33529         2.00835          1.5733 
        1.35108         1.97218          1.5303 
        1.36674         1.91936         1.48922 
         1.3824         1.89492         1.44969 
        1.39811         1.83994         1.41146 
        1.41389          1.7939         1.37448 
        1.42964         1.75302         1.33888 
        1.44531         1.72236         1.30472 
        1.46101         1.67567         1.27169 
        1.47667         1.64537          1.2399 
        1.49229         1.58877         1.20928 
        1.50793         1.55121         1.17967 
        1.52367          1.5216         1.15086 
        1.53953           1.484         1.12282 
        1.55526         1.47636         1.09594 
        1.57092         1.44253         1.07005 
        1.58662         1.42396         1.04494 
        1.60235         1.37322         1.02059 
        1.61809         1.35098         0.99701 
        1.63369         1.31558        0.974382 
        1.64941         1.29536        0.952296 
        1.66519         1.27561        0.930816 
        1.68085         1.24168        0.910153 
        1.69652         1.21905        0.890113 
        1.71228         1.19229        0.870563 
        1.72806         1.17277        0.851586 
        1.74368         1.15144        0.833367 
        1.75933         1.13298        0.815645 
        1.77505         1.11286        0.798357 
        1.79081         1.08065         0.78154 
         1.8065         1.07099         0.76528 
        1.82218         1.04389        0.749498 
        1.83797         1.02383        0.734054 
        1.85367         1.00955        0.719132 
        1.86928        0.991318        0.704714 
        1.88497        0.969419        0.690613 
        1.90073         0.96177        0.676848 
        1.91647        0.934984         0.66347 
        1.93218        0.922624        0.650482 
        1.94787        0.906997        0.637862 
        1.96363        0.894145        0.625528 
        1.97935        0.875826        0.613545 
        1.99499        0.862603        0.601944 
        2.01064        0.848622        0.590627 
         2.0264         0.82928        0.579531 
        2.04216        0.820893        0.568725 
        2.05781        0.805472        0.558263 
        2.07353        0.794439        0.548028 
        2.08928        0.780576        0.538027 
        2.10499        0.767652        0.528302 
        2.12065         0.75431        0.518848 
        2.13633        0.744749        0.509617 
        2.15211        0.728094        0.500551 
        2.16785        0.721489        0.491732 
        2.18349        0.708831         0.48318 
        2.19916        0.699927        0.474814 
        2.21489        0.688028        0.466619 
        2.23063        0.674693        0.458612 
         2.2463        0.666295        0.450829 
        2.26194        0.658211        0.443246 
        2.27765         0.64716        0.435799 
        2.29341        0.637947        0.428503 
        2.30914        0.625212         0.42139 
        2.32486        0.618796        0.414443 
        2.34061        0.608226         0.40764 
        2.35635        0.599928        0.400997 
        2.37203        0.593045        0.394524 
        2.38768        0.584508        0.388209 
        2.40339        0.577152        0.382008 
        2.41914        0.569438        0.375929 
        2.43483        0.560562        0.370003 
         2.4505         0.55266        0.364216 
        2.46622        0.545571        0.358532 
        2.48195        0.536722        0.352969 
        2.49759        0.531997        0.347554 
        2.51328        0.521808        0.342239 
        2.52906         0.51575        0.337001 
        2.54479         0.50809        0.331893 
        2.56049        0.502323          0.3269 
        2.57618        0.496324        0.322014 
        2.59189        0.488619        0.317221 
        2.60758        0.484444        0.312533 
        2.62325        0.476795        0.307946 
        2.63898        0.472656        0.303435 
        2.65468        0.463372        0.299023 
        2.67044         0.45908        0.294681 
        2.68618        0.454454        0.290434 
        2.70184        0.447162        0.286289 
        2.71755        0.441397        0.282214 
        2.73329        0.438353        0.278212 
        2.74897        0.430679        0.274301 
        2.76462         0.42563        0.270473 
        2.78034        0.420227        0.266703 
        2.79607        0.416677        0.263001 
        2.81179        0.410037        0.259374 
        2.82749        0.406047        0.255819 
        2.84321        0.400539        0.252326 
        2.85893        0.395687          0.2489 
        2.87462        0.390477        0.245543 
        2.89033        0.388762        0.242245 
        2.90605        0.383536        0.239005 
        2.92176        0.379987        0.235826 
        2.93747        0.374335        0.232706 
        2.95318        0.370572        0.229642 
        2.96891        0.367325        0.226632 
        2.98456        0.361783        0.223689 
        3.00023        0.358305        0.220795 
        3.01596         0.35429        0.217942 
        3.03164         0.35044        0.215148 
        3.04738        0.346992        0.212394 
         3.0631        0.342808         0.20969 
        3.07883        0.339408        0.207033 
        3.09456        0.336594        0.204422 
        3.11026        0.332298        0.201861 
        3.12596        0.328023        0.199343 
        3.14163        0.326297        0.196874 
        3.15734        0.322668        0.194442 
        3.17308        0.319434        0.192044 
        3.18879        0.316174        0.189694 
        3.20447        0.312164        0.187386 
         3.2202        0.309638        0.185109 
         3.2359         0.30609        0.182875 
        3.25157         0.30136        0.180682 
        3.26729        0.301097        0.178519 
        3.28304        0.297445        0.176387 
        3.29877        0.294762        0.174293 
        3.31446        0.292857        0.172237 
        3.33014        0.288801        0.170216 
        3.34585        0.286177        0.168225 
        3.36158        0.283986        0.166262 
        3.37727        0.281404        0.164337 
        3.39294        0.279407        0.162444 
        3.40867        0.275267        0.160574 
        3.42439        0.273847        0.158735 
        3.44008        0.271194        0.156928 
        3.45578        0.268543        0.155148 
        3.47153        0.266824        0.153391 
        3.48724        0.264309        0.151665 
        3.50292           0.262        0.149969 
        3.51859        0.259781          0.1483 
        3.53431        0.257323        0.146651 
        3.55007        0.255416        0.145023 
        3.56577        0.253133        0.143427 
        3.58146        0.250909        0.141855 
        3.59719          0.2491        0.140303 
        3.61292        0.247167        0.138775 
        3.62859          0.2451        0.137275 
        3.64429        0.242755        0.135794 
        3.66003        0.240575        0.134331 
        3.67578        0.239139         0.13289 
        3.69146        0.236457        0.131476 
        3.70712        0.235492        0.130084 
        3.72284        0.234272        0.128708 
        3.73853        0.232374        0.127354 
        3.75422        0.229745        0.126019 
        3.76993        0.228121        0.124702 
        3.78564        0.225948        0.123404 
        3.80137         0.22431        0.122122 
        3.81707        0.223049        0.120862 
        3.83279        0.221154        0.119618 
        3.84853        0.219314         0.11839 
        3.86424        0.217935        0.117181 
        3.87992        0.215995        0.115991 
        3.89561        0.214498        0.114818 
        3.91134        0.212616        0.113658 
        3.92704        0.210874        0.112516 
        3.94273        0.209978         0.11139 
        3.95845        0.207745        0.110278 
        3.97418        0.206486        0.109181 
        3.98988        0.204361          0.1081 
        4.00554        0.202446        0.107037 
        4.02125        0.200465        0.105985 
        4.03698        0.198232        0.104945 
        4.05268         0.19617        0.103922 
        4.06839        0.194303        0.102912 
         4.0841         0.19221        0.101915 
        4.09983        0.190426         0.10093 
        4.11555         0.18816       0.0999587 
        4.13124        0.186295       0.0990028 
        4.14693        0.184303       0.0980585 
        4.16266         0.18227       0.0971244 
        4.17839        0.180644       0.0962029 
        4.19408        0.178536       0.0952956 
        4.20977        0.177618       0.0943995 
        4.22551        0.175802       0.0935128 
        4.24123        0.173681       0.0926384 
        4.25691        0.172801       0.0917775 
        4.27259        0.171012       0.0909273 
        4.28831        0.170094       0.0900862 
        4.30404        0.168021       0.0892549 
        4.31974        0.166936       0.0884359 
        4.33543        0.165694       0.0876276 
        4.35116        0.164766       0.0868275 
        4.36688        0.163513       0.0860377 
        4.38255        0.161695       0.0852606 
        4.39825        0.161284       0.0844915 
        4.41398        0.159965       0.0837302 
         4.4297        0.159159       0.0829792 
        4.44541        0.157712       0.0822376 
        4.46111        0.157063       0.0815055 
        4.47683        0.156309       0.0807818 
        4.49251        0.155096       0.0800684 
        4.50819        0.154793       0.0793638 
         4.5239        0.153926       0.0786666 
        4.53962        0.152896        0.077977 
        4.55535        0.152466       0.0772953 
        4.57106        0.151881       0.0766227 
        4.58678        0.150797       0.0759579 
         4.6025        0.150864       0.0753009 
        4.61821        0.150484       0.0746517 
        4.63391         0.14978       0.0740111 
         4.6496         0.14921       0.0733782 
        4.66532        0.148822       0.0727517 
        4.68103        0.148406       0.0721329 
        4.69673        0.148311       0.0715218 
        4.71241        0.147983       0.0709184 
        4.72811        0.148089       0.0703209 
        4.74384        0.147536       0.0697296 
        4.75955        0.147364       0.0691459 
        4.77525        0.147423       0.0685693 
        4.79096        0.147125       0.0679985 
        4.80669        0.146666        0.067434 
         4.8224        0.147195       0.0668765 
        4.83809        0.146894       0.0663259 
        4.85379        0.147118       0.0657811 
         4.8695        0.147271        0.065242 
        4.88521        0.147253       0.0647092 
        4.90093        0.147744       0.0641823 
        4.91663         0.14758       0.0636616 
        4.93234        0.147817       0.0631462 
        4.94807        0.148149       0.0626362 
        4.96377        0.148903       0.0621328 
        4.97943        0.149387       0.0616359 
        4.99514        0.148648       0.0611432 
        5.01086        0.149927       0.0606555 
        5.02654        0.150239       0.0601743 
        5.04227        0.150692        0.059697 
          5.058        0.151854       0.0592246 
        5.07371        0.151796       0.0587582 
        5.08942        0.152928       0.0582968 
        5.10513        0.153405       0.0578403 
        5.12084        0.153955       0.0573885 
        5.13656        0.154661       0.0569416 
        5.15225        0.155618       0.0565001 
        5.16796        0.156879       0.0560627 
        5.18369        0.157404       0.0556295 
         5.1994        0.158525       0.0552016 
        5.21509        0.158894       0.0547786 
        5.23079        0.159948       0.0543596 
        5.24649        0.161033       0.0539453 
        5.26217        0.162515       0.0535355 
        5.27788        0.162944       0.0531295 
        5.29359        0.164561       0.0527275 
        5.30933        0.165777       0.0523292 
        5.32504        0.166914       0.0519356 
        5.34073        0.168393       0.0515465 
        5.35646          0.1695       0.0511606 
        5.37218        0.171407       0.0507786 
        5.38789        0.171691       0.0504011 
        5.40357        0.173288       0.0500279 
        5.41929        0.174641       0.0496576 
        5.43502        0.176996        0.049291 
         5.4507         0.17832        0.048929 
        5.46639        0.179851       0.0485706 
        5.48212        0.181282       0.0482149 
        5.49786        0.183069       0.0478624 
        5.51353           0.186       0.0475151 
        5.52921        0.186025       0.0471709 
        5.54495        0.188427       0.0468291 
        5.56066        0.190656       0.0464911 
        5.57637        0.192361       0.0461565 
        5.59207        0.194082       0.0458254 
        5.60778        0.196397       0.0454975 
        5.62346        0.198719       0.0451732 
        5.63916         0.19968       0.0448518 
        5.65487        0.202474       0.0445333 
         5.6706        0.203361       0.0442176 
        5.68633        0.206895       0.0439048 
        5.70203         0.20977       0.0435956 
        5.71773        0.211492       0.0432895 
        5.73344          0.2137       0.0429862 
        5.74916        0.215662       0.0426855 
        5.76486        0.218943        0.042388 
        5.78054         0.22009       0.0420939 
        5.79626        0.222824       0.0418017 
          5.812        0.225906        0.041512 
         5.8277        0.227959       0.0412259 
        5.84339        0.230551       0.0409425 
        5.85911        0.233851       0.0406612 
        5.87484        0.235811       0.0403826 
        5.89053        0.238652       0.0401072 
        5.90623        0.240942       0.0398342 
        5.92195        0.243656       0.0395633 
        5.93767        0.246177        0.039295 
        5.95336        0.248655       0.0390297 
        5.96905        0.252107       0.0387669 
        5.98476        0.254138       0.0385061 
        6.00048        0.257043       0.0382477 
        6.01617        0.261498        0.037992 
        6.03185        0.263886       0.0377389 
        6.04756         0.26519       0.0374876 
        6.06331        0.268325       0.0372379 
        6.07903        0.273714       0.0369911 
        6.09473        0.275155       0.0367468 
        6.11044        0.278214       0.0365044 
        6.12616        0.281079       0.0362642 
        6.14186         0.28445       0.0360265 
        6.15755        0.288427       0.0357909 
        6.17326         0.29026       0.0355572 
        6.18898        0.292992       0.0353255 
        6.20467        0.294367       0.0350963 
        6.22036        0.300237       0.0348691 
         6.2361        0.300638       0.0346433 
         6.2518        0.304955       0.0344199 
        6.26748        0.307685       0.0341989 
        6.28319         0.31215       0.0339793 
        6.29893        0.314411       0.0337614 
        6.31463         0.31724       0.0335458 
        6.33033        0.321435       0.0333321 
        6.34604        0.325027       0.0331201 
        6.36177        0.326087       0.0329098 
        6.37747        0.329677       0.0327017 
