# k  (h/Mpc)    Pcb(k)  (Mpc/h)^3    Pcb_linear(k) (Mpc/h)^3   ShotnoiseSubtracted = true
      0.0200456         21286.2         21658.6 
      0.0350414         16236.7           15745 
      0.0492313         11199.9         11440.1 
      0.0637834         9029.73         9510.01 
      0.0800726         7087.49         7547.86 
       0.096163         5690.14         5476.63 
       0.111083         4634.33          4368.3 
       0.126058         3830.98          3871.2 
       0.142273         3354.01         3279.76 
       0.158546         2753.03         2590.32 
        0.17375         2457.93         2182.35 
       0.188953         2327.53         1976.06 
       0.204907         2001.65         1748.41 
       0.220756         1809.11         1479.26 
        0.23588         1614.91         1286.83 
         0.2514         1461.28         1169.07 
       0.267535         1411.21         1057.81 
       0.283568         1255.94         932.847 
       0.299022         1197.97         831.119 
       0.314451         1246.67         759.586 
       0.330372         1098.78         696.835 
       0.346141         1009.49         632.484 
       0.361624         968.904         574.841 
       0.377134         928.243         528.945 
       0.392932         886.383         489.422 
       0.408854         849.129         451.153 
       0.424564         830.558         415.834 
       0.440253         768.798         385.526 
       0.455999         735.288         359.172 
       0.471626         748.885         334.954 
        0.48727         706.623         312.298 
       0.502856         675.684         291.946 
       0.518488         657.836         273.786 
       0.534347         629.778         256.904 
       0.550082         600.795         241.338 
       0.565732          593.04         227.097 
       0.581496         580.465         214.054 
       0.597222         567.274         202.093 
       0.612804         554.048         191.093 
       0.628434         531.122         180.841 
       0.644267         515.831         171.257 
       0.660051         509.963         162.423 
       0.675724         499.407         154.266 
       0.691403          486.16         146.662 
       0.707174         470.563         139.528 
       0.722871          464.67         132.897 
        0.73838         455.586         126.767 
       0.754018         443.156         120.978 
       0.769845         438.437         115.488 
        0.78569         429.268         110.334 
       0.801365           414.5         105.545 
       0.817031         411.545         101.045 
       0.832809         405.106         96.7807 
       0.848511          397.88         92.7824 
       0.864097         388.206         89.0385 
       0.879701         386.655         85.4987 
       0.895507         372.082         82.1104 
       0.911279         366.428         78.9136 
        0.92691         362.878         75.9143 
       0.942635         358.913          73.055 
       0.958396         346.765         70.3376 
       0.974128          343.02          67.764 
       0.989692          332.02         65.3451 
        1.00528         330.167         63.0412 
        1.02113         324.644         60.8127 
        1.03692         319.281         58.7007 
        1.05264         314.297          56.699 
        1.06832          308.99         54.7942 
        1.08405         305.971         52.9722 
        1.09979         300.231         51.2323 
        1.11537         292.497         49.5881 
        1.13105         289.036         48.0065 
        1.14679         284.758         46.4881 
        1.16256         282.956         45.0326 
        1.17828         278.179         43.6445 
        1.19395         271.083         42.3198 
         1.2097         270.594         41.0435 
        1.22537         265.752         39.8262 
          1.241         259.553         38.6621 
        1.25666         257.466         37.5418 
        1.27241         253.601         36.4608 
        1.28819         248.395         35.4207 
        1.30392         247.934         34.4243 
        1.31957         240.591         33.4708 
        1.33529         237.669         32.5501 
        1.35108         236.509         31.6604 
        1.36674         229.884         30.8105 
         1.3824          228.51         29.9926 
        1.39811         226.334         29.2018 
        1.41389         219.948         28.4365 
        1.42964         217.589         27.7001 
        1.44531         215.667         26.9934 
        1.46101         211.914         26.3099 
        1.47667         209.346         25.6522 
        1.49229         206.353         25.0188 
        1.50793         203.438         24.4061 
        1.52367         200.526         23.8101 
        1.53953         196.537           23.23 
        1.55526         195.243         22.6739 
        1.57092         193.581         22.1383 
        1.58662         188.978         21.6188 
        1.60235         187.113         21.1151 
        1.61809         184.719         20.6271 
        1.63369          181.23          20.159 
        1.64941         179.019          19.702 
        1.66519         176.799         19.2576 
        1.68085         173.789         18.8301 
        1.69652         172.164         18.4155 
        1.71228         169.253         18.0111 
        1.72806         167.572         17.6185 
        1.74368         165.427         17.2415 
        1.75933         164.239         16.8749 
        1.77505         161.703         16.5172 
        1.79081         158.169         16.1693 
         1.8065         156.885         15.8329 
        1.82218         153.625         15.5064 
        1.83797         152.721         15.1868 
        1.85367         150.478         14.8781 
        1.86928         148.343         14.5798 
        1.88497         147.227         14.2881 
        1.90073         145.539         14.0033 
        1.91647         142.638         13.7265 
        1.93218         140.924         13.4578 
        1.94787         139.002         13.1967 
        1.96363         138.444         12.9415 
        1.97935         136.609         12.6936 
        1.99499         134.538         12.4536 
        2.01064         131.811         12.2195 
         2.0264         131.128         11.9899 
        2.04216         129.175         11.7663 
        2.05781         126.996         11.5499 
        2.07353         125.891         11.3381 
        2.08928         124.285         11.1312 
        2.10499         123.089           10.93 
        2.12065         121.675         10.7344 
        2.13633         120.139         10.5435 
        2.15211          118.12         10.3559 
        2.16785         116.849         10.1734 
        2.18349         115.388         9.99651 
        2.19916         114.129         9.82343 
        2.21489         112.837         9.65388 
        2.23063         111.022         9.48822 
         2.2463         109.717         9.32719 
        2.26194         108.792         9.17031 
        2.27765          107.24         9.01623 
        2.29341         106.206          8.8653 
        2.30914         105.066         8.71813 
        2.32486         103.138          8.5744 
        2.34061         102.263         8.43366 
        2.35635         101.316         8.29622 
        2.37203         99.5193         8.16231 
        2.38768          98.836         8.03164 
        2.40339         97.4303         7.90336 
        2.41914         96.1854         7.77759 
        2.43483         95.5609         7.65499 
         2.4505         94.1459         7.53525 
        2.46622         92.9577         7.41766 
        2.48195         92.2215         7.30258 
        2.49759         90.8091         7.19055 
        2.51328         90.1128         7.08058 
        2.52906         88.7781         6.97221 
        2.54479         87.6813         6.86652 
        2.56049         86.5027         6.76323 
        2.57618         85.5825         6.66215 
        2.59189         84.9186         6.56299 
        2.60758         83.3898           6.466 
        2.62325         83.1278         6.37109 
        2.63898          82.011         6.27776 
        2.65468         81.0472         6.18649 
        2.67044         79.7979         6.09665 
        2.68618         79.0379         6.00879 
        2.70184          78.081         5.92303 
        2.71755         77.4393         5.83872 
        2.73329         76.2089         5.75592 
        2.74897         75.6451         5.67501 
        2.76462         74.9427         5.59582 
        2.78034         73.5322         5.51782 
        2.79607          72.839         5.44123 
        2.81179         72.3195         5.36618 
        2.82749         71.5905         5.29263 
        2.84321         70.6569         5.22037 
        2.85893         69.8044         5.14949 
        2.87462         69.1168         5.08004 
        2.89033         68.4467         5.01181 
        2.90605         67.8432         4.94478 
        2.92176         67.0337           4.879 
        2.93747         66.4676         4.81446 
        2.95318         65.3296         4.75107 
        2.96891         64.9412         4.68879 
        2.98456         64.1244         4.62791 
        3.00023         63.4791         4.56802 
        3.01596         63.0244           4.509 
        3.03164         62.2222         4.45119 
        3.04738         61.9269         4.39423 
         3.0631         60.8169         4.33828 
        3.07883         60.3363         4.28331 
        3.09456         59.6003         4.22929 
        3.11026         59.0675         4.17629 
        3.12596         58.4557         4.12421 
        3.14163         57.7562         4.07313 
        3.15734         57.0844          4.0228 
        3.17308         56.6494          3.9732 
        3.18879         56.0638         3.92457 
        3.20447         55.6499         3.87683 
         3.2202         54.8824         3.82973 
         3.2359         54.2262          3.7835 
        3.25157         53.8858         3.73814 
        3.26729         53.2647         3.69338 
        3.28304         52.6631         3.64928 
        3.29877         52.2102         3.60595 
        3.31446         51.7778         3.56341 
        3.33014         51.1837         3.52161 
        3.34585          50.589          3.4804 
        3.36158         50.2553          3.4398 
        3.37727         49.5894         3.39997 
        3.39294         49.2404         3.36081 
        3.40867         48.7442         3.32212 
        3.42439         48.1909         3.28406 
        3.44008         47.6304         3.24668 
        3.45578          47.323         3.20985 
        3.47153         46.7791          3.1735 
        3.48724         46.3422         3.13779 
        3.50292         45.9304          3.1027 
        3.51859         45.4001         3.06817 
        3.53431         44.8473         3.03406 
        3.55007         44.5083         3.00039 
        3.56577         44.1145         2.96735 
        3.58146         43.6117         2.93483 
        3.59719         43.2163         2.90272 
        3.61292         42.7406         2.87111 
        3.62859         42.4988         2.84008 
        3.64429         42.1079         2.80945 
        3.66003         41.7311         2.77918 
        3.67578         41.3159         2.74936 
        3.69146         40.9089          2.7201 
        3.70712         40.5049         2.69131 
        3.72284         40.1924         2.66284 
        3.73853         39.7633         2.63482 
        3.75422         39.3887          2.6072 
        3.76993         39.0452         2.57995 
        3.78564          38.716          2.5531 
        3.80137         38.3941         2.52659 
        3.81707         37.8654         2.50051 
        3.83279         37.6455         2.47478 
        3.84853         37.2791         2.44937 
        3.86424         36.8454         2.42436 
        3.87992         36.6316         2.39974 
        3.89561         36.3077         2.37546 
        3.91134         36.0265         2.35147 
        3.92704         35.6495         2.32783 
        3.94273          35.311         2.30455 
        3.95845         35.0453         2.28154 
        3.97418         34.7066         2.25884 
        3.98988         34.3097         2.23648 
        4.00554         34.0986         2.21448 
        4.02125         33.8371         2.19271 
        4.03698         33.4625         2.17121 
        4.05268         33.2504         2.15004 
        4.06839         32.8025         2.12913 
         4.0841         32.6478         2.10852 
        4.09983         32.3288         2.08814 
        4.11555         32.0488         2.06804 
        4.13124         31.7324         2.04827 
        4.14693         31.4606         2.02873 
        4.16266           31.17          2.0094 
        4.17839         30.9215         1.99034 
        4.19408         30.6783         1.97157 
        4.20977         30.4302         1.95303 
        4.22551         30.1057         1.93468 
        4.24123         29.8692         1.91659 
        4.25691         29.6133         1.89878 
        4.27259         29.4425         1.88119 
        4.28831         29.0828         1.86379 
        4.30404         28.8729         1.84659 
        4.31974         28.5771         1.82965 
        4.33543          28.396         1.81293 
        4.35116         28.1555         1.79637 
        4.36688         27.8786         1.78003 
        4.38255         27.7385         1.76396 
        4.39825         27.4111         1.74804 
        4.41398         27.2005         1.73229 
         4.4297         27.0097         1.71676 
        4.44541         26.8476         1.70141 
        4.46111          26.529         1.68627 
        4.47683         26.3226         1.67129 
        4.49251         26.1391         1.65653 
        4.50819         25.9522         1.64196 
         4.5239         25.6706         1.62753 
        4.53962         25.5306         1.61326 
        4.55535         25.2649         1.59916 
        4.57106         25.0713         1.58525 
        4.58678         24.8934         1.57149 
         4.6025         24.6496          1.5579 
        4.61821         24.4692         1.54447 
        4.63391         24.1665         1.53121 
         4.6496          24.056         1.51812 
        4.66532         23.8934         1.50516 
        4.68103         23.6087         1.49236 
        4.69673         23.4711         1.47971 
        4.71241         23.3007         1.46723 
        4.72811         23.0752         1.45487 
        4.74384         22.8746         1.44263 
        4.75955         22.7393         1.43056 
        4.77525         22.5616         1.41863 
        4.79096         22.3408         1.40682 
        4.80669         22.2096         1.39514 
         4.8224         22.0067         1.38361 
        4.83809         21.7937         1.37221 
        4.85379         21.6274         1.36094 
         4.8695         21.4997         1.34979 
        4.88521         21.2869         1.33877 
        4.90093         21.1518         1.32787 
        4.91663         20.9792         1.31709 
        4.93234         20.8342         1.30643 
        4.94807          20.663         1.29588 
        4.96377         20.5584         1.28546 
        4.97943         20.2935         1.27518 
        4.99514          20.177         1.26499 
        5.01086         20.0388          1.2549 
        5.02654         19.8899         1.24495 
        5.04227         19.7405         1.23507 
          5.058         19.5502          1.2253 
        5.07371         19.3901         1.21565 
        5.08942         19.2451          1.2061 
        5.10513         19.1364         1.19666 
        5.12084         19.0015         1.18731 
        5.13656         18.7905         1.17806 
        5.15225          18.665         1.16893 
        5.16796         18.5312         1.15988 
        5.18369         18.3941         1.15092 
         5.1994         18.2864         1.14207 
        5.21509         18.1279         1.13331 
        5.23079         18.0133         1.12464 
        5.24649         17.8615         1.11607 
        5.26217          17.757          1.1076 
        5.27788         17.5883         1.09919 
        5.29359           17.46         1.09088 
        5.30933         17.3281         1.08264 
        5.32504         17.1839          1.0745 
        5.34073         17.0887         1.06645 
        5.35646         16.9547         1.05846 
        5.37218         16.7998         1.05056 
        5.38789         16.6735         1.04275 
        5.40357         16.5578         1.03503 
        5.41929         16.4495         1.02737 
        5.43502         16.2945         1.01978 
         5.4507         16.2001         1.01229 
        5.46639         16.0796         1.00488 
        5.48212         15.9819        0.997518 
        5.49786         15.8615        0.990224 
        5.51353         15.7646        0.983039 
        5.52921         15.6334        0.975918 
        5.54495         15.5232        0.968847 
        5.56066           15.39        0.961854 
        5.57637         15.2787        0.954931 
        5.59207         15.1796        0.948081 
        5.60778         15.0694        0.941297 
        5.62346         14.9717        0.934588 
        5.63916         14.8501        0.927938 
        5.65487         14.7492        0.921349 
         5.6706         14.6238        0.914817 
        5.68633         14.5482        0.908345 
        5.70203         14.4414        0.901949 
        5.71773         14.3312        0.895616 
        5.73344          14.221        0.889341 
        5.74916         14.1337        0.883119 
        5.76486          14.041        0.876966 
        5.78054         13.9498         0.87088 
        5.79626         13.8149        0.864836 
          5.812          13.744        0.858842 
         5.8277         13.6385        0.852923 
        5.84339         13.5446         0.84706 
        5.85911         13.4416         0.84124 
        5.87484         13.3526        0.835476 
        5.89053         13.2476        0.829778 
        5.90623         13.1726        0.824129 
        5.92195         13.0481        0.818524 
        5.93767         12.9612        0.812974 
        5.95336         12.9049        0.807484 
        5.96905         12.8109        0.802048 
        5.98476         12.7435        0.796653 
        6.00048         12.6357        0.791306 
        6.01617         12.5727        0.786016 
        6.03185         12.4521         0.78078 
        6.04756         12.3663         0.77558 
        6.06331         12.3026        0.770415 
        6.07903         12.1903        0.765309 
        6.09473         12.1245        0.760253 
        6.11044         12.0222        0.755239 
        6.12616         11.9498         0.75027 
        6.14186         11.8623        0.745352 
        6.15755         11.7954        0.740477 
        6.17326         11.7117        0.735642 
        6.18898         11.6322        0.730848 
        6.20467         11.5432        0.726106 
        6.22036         11.4691        0.721406 
         6.2361         11.3844        0.716734 
         6.2518         11.3288        0.712112 
        6.26748         11.2594        0.707541 
        6.28319         11.1892        0.702997 
        6.29893         11.1041        0.698489 
        6.31463         11.0317        0.694028 
        6.33033         10.9587        0.689607 
        6.34604         10.8648        0.685222 
        6.36177         10.8206        0.680871 
        6.37747         10.7515        0.676566 
