# k  (h/Mpc)    Pcb(k)  (Mpc/h)^3    Pcb_linear(k) (Mpc/h)^3   ShotnoiseSubtracted = true
      0.0200456         17772.4         18066.9 
      0.0350414           13525           13134 
      0.0492313         9381.65         9542.95 
      0.0637834         7570.83         7932.97 
      0.0800726         5949.89          6296.2 
       0.096163         4740.01         4568.44 
       0.111083         3858.84         3643.91 
       0.126058         3196.14         3229.24 
       0.142273          2784.3         2735.88 
       0.158546          2286.9         2160.77 
        0.17375         2026.33         1820.45 
       0.188953         1904.52         1648.37 
       0.204907          1634.5         1458.47 
       0.220756          1472.5         1233.96 
        0.23588         1313.16         1073.44 
         0.2514         1182.13         975.206 
       0.267535         1145.51         882.394 
       0.283568          1011.9         778.153 
       0.299022         966.334         693.294 
       0.314451         998.392         633.624 
       0.330372          868.42         581.279 
       0.346141         800.066         527.599 
       0.361624         767.388         479.515 
       0.377134         730.475          441.23 
       0.392932         701.638         408.261 
       0.408854         669.748         376.338 
       0.424564          652.64         346.876 
       0.440253         598.888         321.594 
       0.455999         573.248         299.611 
       0.471626         583.352         279.408 
        0.48727         550.685          260.51 
       0.502856         517.879         243.532 
       0.518488         511.226         228.384 
       0.534347         482.813         214.302 
       0.550082         462.516         201.317 
       0.565732         458.306         189.438 
       0.581496         446.605         178.558 
       0.597222         434.421          168.58 
       0.612804         424.446         159.404 
       0.628434         407.331         150.852 
       0.644267         393.075         142.857 
       0.660051         387.893         135.488 
       0.675724         380.792         128.684 
       0.691403         372.029         122.341 
       0.707174         358.258          116.39 
       0.722871         352.565         110.858 
        0.73838         347.694         105.745 
       0.754018         335.445         100.916 
       0.769845         333.361         96.3365 
        0.78569         326.032          92.037 
       0.801365         315.924         88.0427 
       0.817031         312.704         84.2891 
       0.832809         307.236         80.7315 
       0.848511         300.199         77.3963 
       0.864097         292.812         74.2732 
       0.879701         291.058         71.3204 
       0.895507         282.423          68.494 
       0.911279         275.959         65.8274 
        0.92691         273.542         63.3254 
       0.942635         271.204         60.9403 
       0.958396         263.129         58.6735 
       0.974128         260.231         56.5267 
       0.989692         250.654         54.5089 
        1.00528         250.435         52.5871 
        1.02113         246.694         50.7281 
        1.03692          241.16         48.9663 
        1.05264         237.112         47.2966 
        1.06832         236.269         45.7077 
        1.08405         230.196         44.1878 
        1.09979         228.066         42.7365 
        1.11537         223.147         41.3649 
        1.13105         219.443         40.0456 
        1.14679         217.506          38.779 
        1.16256         214.718         37.5649 
        1.17828         211.981         36.4069 
        1.19395         206.339         35.3019 
         1.2097         205.902         34.2372 
        1.22537           203.7         33.2218 
          1.241         198.132         32.2508 
        1.25666          196.52         31.3163 
        1.27241         192.743         30.4145 
        1.28819         190.539         29.5469 
        1.30392         188.088         28.7157 
        1.31957         183.415         27.9204 
        1.33529         181.015         27.1523 
        1.35108         179.853         26.4102 
        1.36674         175.992         25.7012 
         1.3824         174.703         25.0189 
        1.39811         172.308         24.3592 
        1.41389         168.601         23.7209 
        1.42964         166.634         23.1066 
        1.44531          165.02         22.5171 
        1.46101         161.713         21.9469 
        1.47667         160.745         21.3983 
        1.49229         158.222         20.8699 
        1.50793         155.407         20.3588 
        1.52367          153.97         19.8616 
        1.53953         150.574         19.3777 
        1.55526         150.167         18.9139 
        1.57092         148.567         18.4671 
        1.58662          144.74         18.0338 
        1.60235         143.559         17.6135 
        1.61809         141.381         17.2065 
        1.63369         139.308          16.816 
        1.64941          138.27         16.4348 
        1.66519         136.344         16.0641 
        1.68085         133.814         15.7075 
        1.69652         132.482         15.3617 
        1.71228         131.118         15.0243 
        1.72806         129.814         14.6968 
        1.74368         127.882         14.3824 
        1.75933         126.782         14.0765 
        1.77505         124.585         13.7781 
        1.79081         122.611         13.4879 
         1.8065          120.76         13.2073 
        1.82218         119.274         12.9349 
        1.83797         118.769         12.6684 
        1.85367         116.984         12.4109 
        1.86928         115.938          12.162 
        1.88497         113.936         11.9187 
        1.90073         113.131         11.6811 
        1.91647         111.251         11.4502 
        1.93218         110.111         11.2261 
        1.94787         108.249         11.0083 
        1.96363         107.495         10.7954 
        1.97935         106.205         10.5886 
        1.99499         105.438         10.3884 
        2.01064         102.961         10.1931 
         2.0264         102.419         10.0016 
        2.04216         100.287         9.81513 
        2.05781         99.7947         9.63458 
        2.07353         98.4127         9.45793 
        2.08928         97.0478         9.28533 
        2.10499          96.029         9.11751 
        2.12065         95.3113         8.95435 
        2.13633         94.2031         8.79504 
        2.15211         92.6885         8.63858 
        2.16785         91.4076         8.48637 
        2.18349         90.1768         8.33879 
        2.19916         89.0571         8.19441 
        2.21489          88.452         8.05297 
        2.23063         86.9219         7.91478 
         2.2463         86.3525         7.78046 
        2.26194         85.2554         7.64959 
        2.27765         84.1388         7.52107 
        2.29341         83.2496         7.39516 
        2.30914          82.199          7.2724 
        2.32486         80.7195          7.1525 
        2.34061         80.2684         7.03511 
        2.35635         79.1032         6.92045 
        2.37203         78.0248         6.80875 
        2.38768         77.2599         6.69975 
        2.40339         76.6999         6.59275 
        2.41914         75.2893         6.48783 
        2.43483         74.7058         6.38557 
         2.4505         73.7368         6.28568 
        2.46622         73.1256         6.18759 
        2.48195          72.097         6.09159 
        2.49759         71.2415         5.99814 
        2.51328         70.3623          5.9064 
        2.52906         69.2521         5.81601 
        2.54479         68.7655         5.72785 
        2.56049         67.9504         5.64168 
        2.57618         67.0015         5.55736 
        2.59189         66.5852         5.47465 
        2.60758         65.5134         5.39374 
        2.62325         64.9127         5.31457 
        2.63898         64.2435         5.23671 
        2.65468          63.616         5.16058 
        2.67044         62.8629         5.08564 
        2.68618         62.2364         5.01236 
        2.70184         61.4226         4.94081 
        2.71755         60.6262         4.87048 
        2.73329         59.9906         4.80142 
        2.74897         59.4193         4.73392 
        2.76462         59.0499         4.66787 
        2.78034         58.3449          4.6028 
        2.79607         57.6145         4.53891 
        2.81179         56.9111          4.4763 
        2.82749         56.3674         4.41495 
        2.84321         55.8895         4.35468 
        2.85893           55.28         4.29555 
        2.87462         54.5767         4.23762 
        2.89033         53.8751          4.1807 
        2.90605         53.3504         4.12478 
        2.92176         52.8939         4.06992 
        2.93747         52.2181         4.01608 
        2.95318         51.7658          3.9632 
        2.96891         51.1081         3.91125 
        2.98456         50.6014         3.86046 
        3.00023         49.8994          3.8105 
        3.01596          49.465         3.76127 
        3.03164         49.0405         3.71305 
        3.04738         48.5481         3.66553 
         3.0631         47.8343         3.61886 
        3.07883         47.4294           3.573 
        3.09456         46.8569         3.52795 
        3.11026         46.4653         3.48374 
        3.12596         46.0576         3.44029 
        3.14163           45.43         3.39768 
        3.15734         45.0084          3.3557 
        3.17308         44.5483         3.31432 
        3.18879         44.2002         3.27376 
        3.20447          43.828         3.23393 
         3.2202           43.21         3.19464 
         3.2359         42.8546         3.15608 
        3.25157         42.4739         3.11824 
        3.26729         41.9531         3.08091 
        3.28304         41.6097         3.04412 
        3.29877         41.0044         3.00797 
        3.31446         40.7568         2.97249 
        3.33014          40.334         2.93762 
        3.34585         39.8315         2.90325 
        3.36158         39.4626         2.86938 
        3.37727          39.115         2.83615 
        3.39294         38.7432         2.80348 
        3.40867         38.3495         2.77121 
        3.42439         37.9185         2.73947 
        3.44008         37.5921         2.70828 
        3.45578         37.1727         2.67756 
        3.47153         36.8576         2.64724 
        3.48724         36.4665         2.61745 
        3.50292         36.0821         2.58818 
        3.51859         35.8533         2.55938 
        3.53431         35.5324         2.53092 
        3.55007         34.9717         2.50283 
        3.56577         34.9541         2.47528 
        3.58146         34.4163         2.44815 
        3.59719         34.1221         2.42136 
        3.61292         33.8554         2.39499 
        3.62859         33.4736         2.36911 
        3.64429         33.1758         2.34356 
        3.66003          32.847         2.31831 
        3.67578         32.5819         2.29344 
        3.69146         32.2504         2.26902 
        3.70712         31.8953         2.24501 
        3.72284         31.5942         2.22126 
        3.73853         31.4067         2.19789 
        3.75422         31.0786         2.17485 
        3.76993         30.7879         2.15212 
        3.78564         30.5547         2.12972 
        3.80137         30.2573         2.10761 
        3.81707         29.9868         2.08585 
        3.83279         29.6817         2.06439 
        3.84853         29.4137         2.04319 
        3.86424          29.097         2.02233 
        3.87992         28.8262         2.00179 
        3.89561         28.6391         1.98154 
        3.91134         28.3338         1.96152 
        3.92704         28.0392         1.94181 
        3.94273         27.7908         1.92239 
        3.95845         27.6208         1.90319 
        3.97418         27.2705         1.88425 
        3.98988         27.0377          1.8656 
        4.00554         26.7597         1.84725 
        4.02125         26.6043          1.8291 
        4.03698         26.3398         1.81116 
        4.05268         26.1066          1.7935 
        4.06839         25.8604         1.77606 
         4.0841         25.6542         1.75886 
        4.09983         25.3706         1.74186 
        4.11555          25.121          1.7251 
        4.13124         25.0411          1.7086 
        4.14693         24.6935         1.69231 
        4.16266         24.5091         1.67618 
        4.17839         24.3745         1.66028 
        4.19408         24.0653         1.64462 
        4.20977         23.9384         1.62916 
        4.22551         23.7275         1.61386 
        4.24123         23.4958         1.59876 
        4.25691         23.2519         1.58391 
        4.27259         23.1179         1.56924 
        4.28831         22.9045         1.55472 
        4.30404         22.7499         1.54037 
        4.31974         22.4723         1.52624 
        4.33543          22.311         1.51229 
        4.35116         22.1222         1.49848 
        4.36688         21.9024         1.48485 
        4.38255         21.7303         1.47144 
        4.39825         21.5576         1.45816 
        4.41398         21.3638         1.44503 
         4.4297         21.1601         1.43207 
        4.44541         20.9849         1.41927 
        4.46111         20.7888         1.40663 
        4.47683         20.6364         1.39414 
        4.49251         20.5075         1.38183 
        4.50819         20.3128         1.36967 
         4.5239         20.1605         1.35764 
        4.53962         20.0059         1.34574 
        4.55535          19.801         1.33397 
        4.57106         19.6963         1.32236 
        4.58678         19.5171         1.31089 
         4.6025         19.2615         1.29955 
        4.61821         19.1405         1.28835 
        4.63391         18.9972         1.27729 
         4.6496         18.8865         1.26637 
        4.66532         18.6906         1.25556 
        4.68103         18.5349         1.24488 
        4.69673         18.4455         1.23433 
        4.71241         18.3236         1.22392 
        4.72811         18.1188         1.21361 
        4.74384         17.9622          1.2034 
        4.75955         17.8634         1.19333 
        4.77525           17.71         1.18338 
        4.79096         17.5191         1.17353 
        4.80669         17.3916         1.16378 
         4.8224         17.2371         1.15416 
        4.83809         17.1102         1.14466 
        4.85379         16.9997         1.13526 
         4.8695         16.8577         1.12596 
        4.88521         16.7449         1.11676 
        4.90093         16.6082         1.10767 
        4.91663         16.4388         1.09868 
        4.93234          16.325         1.08979 
        4.94807         16.2272         1.08098 
        4.96377         16.0902          1.0723 
        4.97943         15.9648         1.06372 
        4.99514         15.8284         1.05522 
        5.01086         15.7218          1.0468 
        5.02654         15.6118          1.0385 
        5.04227         15.4643         1.03026 
          5.058         15.3211         1.02211 
        5.07371         15.2271         1.01406 
        5.08942         15.1601         1.00609 
        5.10513          15.014        0.998216 
        5.12084         14.8918        0.990418 
        5.13656         14.7802        0.982705 
        5.15225         14.6558        0.975087 
        5.16796         14.5231        0.967537 
        5.18369          14.418         0.96006 
         5.1994          14.358        0.952677 
        5.21509         14.2106        0.945377 
        5.23079         14.1275        0.938145 
        5.24649         14.0192        0.930994 
        5.26217         13.9082        0.923923 
        5.27788         13.8166        0.916915 
        5.29359         13.6653        0.909979 
        5.30933         13.6181        0.903104 
        5.32504         13.5049        0.896312 
        5.34073         13.4088        0.889597 
        5.35646         13.3104        0.882937 
        5.37218         13.1721        0.876344 
        5.38789         13.0802        0.869829 
        5.40357         12.9972        0.863388 
        5.41929         12.9265        0.856997 
        5.43502         12.8125        0.850671 
         5.4507         12.7269        0.844423 
        5.46639         12.6151        0.838237 
        5.48212         12.5265        0.832099 
        5.49786          12.442        0.826015 
        5.51353         12.3603        0.820022 
        5.52921         12.2719        0.814082 
        5.54495         12.1989        0.808183 
        5.56066         12.0892         0.80235 
        5.57637         11.9855        0.796574 
        5.59207         11.9313        0.790861 
        5.60778         11.8276        0.785201 
        5.62346         11.7231        0.779605 
        5.63916         11.6677        0.774058 
        5.65487          11.603        0.768562 
         5.6706         11.4937        0.763112 
        5.68633         11.4216        0.757714 
        5.70203         11.3338        0.752379 
        5.71773         11.2465        0.747096 
        5.73344         11.1567        0.741861 
        5.74916         11.1023        0.736671 
        5.76486         11.0184        0.731538 
        5.78054         10.9419        0.726462 
        5.79626           10.88         0.72142 
          5.812         10.7921         0.71642 
         5.8277         10.7122        0.711483 
        5.84339         10.6313        0.706592 
        5.85911         10.5613        0.701737 
        5.87484         10.4757        0.696929 
        5.89053         10.4118        0.692175 
        5.90623         10.3373        0.687464 
        5.92195         10.2625        0.682788 
        5.93767          10.221        0.678158 
        5.95336          10.132        0.673579 
        5.96905         10.0559        0.669044 
        5.98476         10.0117        0.664544 
        6.00048         9.93832        0.660084 
        6.01617         9.86321        0.655671 
        6.03185         9.78579        0.651303 
        6.04756         9.70531        0.646965 
        6.06331         9.65962        0.642657 
        6.07903         9.60679        0.638398 
        6.09473         9.54187         0.63418 
        6.11044         9.46194        0.629997 
        6.12616         9.40421        0.625853 
        6.14186         9.33011         0.62175 
        6.15755         9.27341        0.617684 
        6.17326         9.22269        0.613651 
        6.18898         9.15459        0.609652 
        6.20467         9.07919        0.605696 
        6.22036         9.02491        0.601775 
         6.2361         8.97382        0.597878 
         6.2518         8.91963        0.594022 
        6.26748         8.84439        0.590209 
        6.28319         8.80094        0.586419 
        6.29893         8.74328        0.582658 
        6.31463         8.66795        0.578937 
        6.33033           8.633         0.57525 
        6.34604         8.57266        0.571592 
        6.36177          8.5055        0.567962 
        6.37747         8.44828        0.564371 
