# k  (h/Mpc)    Pcb(k)  (Mpc/h)^3    Pcb_linear(k) (Mpc/h)^3   ShotnoiseSubtracted = true
      0.0200456         91.0945         92.2767 
      0.0350414         67.5115          67.082 
      0.0492313         48.9551         48.7405 
      0.0637834         40.3977         40.5176 
      0.0800726         32.0055         32.1578 
       0.096163         23.5352         23.3333 
       0.111083         18.7995         18.6112 
       0.126058         16.4486         16.4933 
       0.142273         13.9069         13.9735 
       0.158546         11.0695         11.0361 
        0.17375          9.3599         9.29792 
       0.188953         8.41642         8.41906 
       0.204907         7.37902         7.44915 
       0.220756         6.30598         6.30243 
        0.23588         5.48766         5.48257 
         0.2514         4.97991         4.98086 
       0.267535         4.50439         4.50682 
       0.283568         3.97606         3.97441 
       0.299022          3.5444         3.54099 
       0.314451         3.25746         3.23623 
       0.330372         2.97308         2.96888 
       0.346141         2.69966         2.69471 
       0.361624         2.45064         2.44912 
       0.377134         2.25022         2.25358 
       0.392932         2.10561         2.08519 
       0.408854         1.92063         1.92214 
       0.424564         1.78501         1.77167 
       0.440253         1.64715         1.64254 
       0.455999         1.52642         1.53026 
       0.471626         1.42292         1.42708 
        0.48727         1.33733         1.33055 
       0.502856         1.25155         1.24384 
       0.518488         1.16268         1.16647 
       0.534347         1.08737         1.09454 
       0.550082         1.03065         1.02822 
       0.565732        0.976157        0.967551 
       0.581496        0.913905        0.911982 
       0.597222        0.862064        0.861019 
       0.612804        0.814618        0.814157 
       0.628434        0.770007        0.770477 
       0.644267        0.731904        0.729641 
       0.660051        0.694553        0.692004 
       0.675724        0.656461        0.657251 
       0.691403        0.624035        0.624855 
       0.707174        0.593855         0.59446 
       0.722871         0.57139        0.566208 
        0.73838        0.538663        0.540094 
       0.754018        0.513626         0.51543 
       0.769845        0.488085        0.492038 
        0.78569        0.469332        0.470078 
       0.801365        0.449845        0.449677 
       0.817031        0.430815        0.430506 
       0.832809        0.410862        0.412336 
       0.848511        0.394414        0.395301 
       0.864097        0.379785         0.37935 
       0.879701        0.365789        0.364268 
       0.895507        0.347756        0.349833 
       0.911279        0.336063        0.336213 
        0.92691         0.32477        0.323434 
       0.942635        0.309861        0.311252 
       0.958396        0.299117        0.299675 
       0.974128        0.288229         0.28871 
       0.989692        0.277877        0.278404 
        1.00528        0.266566        0.268588 
        1.02113        0.259311        0.259094 
        1.03692        0.250404        0.250095 
        1.05264        0.240578        0.241567 
        1.06832        0.232771        0.233452 
        1.08405        0.224399        0.225689 
        1.09979        0.217572        0.218276 
        1.11537        0.209296        0.211271 
        1.13105        0.202256        0.204533 
        1.14679        0.196591        0.198063 
        1.16256        0.191058        0.191862 
        1.17828        0.185152        0.185948 
        1.19395        0.179548        0.180304 
         1.2097        0.173548        0.174866 
        1.22537         0.16784         0.16968 
          1.241        0.163083        0.164721 
        1.25666        0.158914        0.159948 
        1.27241        0.153763        0.155342 
        1.28819        0.149141         0.15091 
        1.30392        0.145504        0.146665 
        1.31957        0.140979        0.142603 
        1.33529        0.137639         0.13868 
        1.35108         0.13307         0.13489 
        1.36674        0.129985        0.131268 
         1.3824        0.126185        0.127784 
        1.39811        0.122403        0.124415 
        1.41389        0.119877        0.121154 
        1.42964        0.116414        0.118017 
        1.44531        0.113264        0.115006 
        1.46101        0.110137        0.112094 
        1.47667        0.107589        0.109292 
        1.49229        0.104914        0.106593 
        1.50793        0.102298        0.103983 
        1.52367       0.0996656        0.101443 
        1.53953       0.0968908       0.0989716 
        1.55526        0.094617       0.0966024 
        1.57092       0.0928539       0.0943207 
        1.58662       0.0904231       0.0921074 
        1.60235       0.0881699       0.0899611 
        1.61809       0.0860125       0.0878822 
        1.63369       0.0839856       0.0858876 
        1.64941       0.0820304       0.0839408 
        1.66519       0.0802607       0.0820475 
        1.68085       0.0782947       0.0802261 
        1.69652       0.0767065       0.0784596 
        1.71228       0.0746703       0.0767364 
        1.72806       0.0733082       0.0750637 
        1.74368       0.0715461       0.0734578 
        1.75933       0.0700794       0.0718957 
        1.77505       0.0686774       0.0703718 
        1.79081       0.0669696       0.0688894 
         1.8065       0.0657072       0.0674562 
        1.82218       0.0640131       0.0660651 
        1.83797       0.0627656       0.0647038 
        1.85367       0.0613913       0.0633884 
        1.86928       0.0598859       0.0621175 
        1.88497       0.0588258       0.0608746 
        1.90073       0.0574408       0.0596612 
        1.91647       0.0566682        0.058482 
        1.93218         0.05572       0.0573373 
        1.94787       0.0541407       0.0562249 
        1.96363       0.0531243       0.0551376 
        1.97935       0.0520268       0.0540814 
        1.99499       0.0510899       0.0530588 
        2.01064       0.0500276       0.0520613 
         2.0264        0.049212       0.0510832 
        2.04216       0.0482269       0.0501307 
        2.05781       0.0471267       0.0492085 
        2.07353       0.0463204       0.0483063 
        2.08928       0.0455162       0.0474248 
        2.10499       0.0446549       0.0465676 
        2.12065       0.0438088       0.0457343 
        2.13633       0.0429795       0.0449206 
        2.15211        0.042258       0.0441215 
        2.16785        0.041202       0.0433441 
        2.18349       0.0405917       0.0425903 
        2.19916       0.0397824       0.0418529 
        2.21489        0.039061       0.0411305 
        2.23063       0.0385178       0.0404247 
         2.2463       0.0377875       0.0397386 
        2.26194       0.0371225       0.0390702 
        2.27765       0.0365441       0.0384138 
        2.29341       0.0357312       0.0377707 
        2.30914       0.0351502       0.0371437 
        2.32486       0.0344805       0.0365314 
        2.34061       0.0338815       0.0359318 
        2.35635       0.0333822       0.0353462 
        2.37203       0.0330091       0.0347757 
        2.38768       0.0324668       0.0342189 
        2.40339       0.0318093       0.0336724 
        2.41914       0.0312167       0.0331365 
        2.43483       0.0308213       0.0326142 
         2.4505       0.0302053       0.0321041 
        2.46622       0.0296895       0.0316031 
        2.48195        0.029193       0.0311127 
        2.49759        0.028747       0.0306354 
        2.51328       0.0281904       0.0301669 
        2.52906       0.0278038       0.0297052 
        2.54479       0.0274104       0.0292549 
        2.56049       0.0268955       0.0288148 
        2.57618       0.0265199       0.0283842 
        2.59189       0.0260072       0.0279617 
        2.60758       0.0257547       0.0275485 
        2.62325       0.0252022       0.0271441 
        2.63898       0.0249154       0.0267465 
        2.65468        0.024439       0.0263576 
        2.67044       0.0240783       0.0259749 
        2.68618       0.0236962       0.0256006 
        2.70184       0.0234788       0.0252351 
        2.71755        0.023062        0.024876 
        2.73329       0.0227568       0.0245232 
        2.74897       0.0223714       0.0241785 
        2.76462       0.0220119       0.0238411 
        2.78034       0.0217405       0.0235088 
        2.79607       0.0213934       0.0231824 
        2.81179       0.0210802       0.0228627 
        2.82749       0.0208378       0.0225493 
        2.84321       0.0204789       0.0222415 
        2.85893       0.0201924       0.0219395 
        2.87462       0.0198909       0.0216436 
        2.89033       0.0196118       0.0213529 
        2.90605       0.0193014       0.0210673 
        2.92176       0.0191152       0.0207871 
        2.93747       0.0187704       0.0205121 
        2.95318       0.0185555        0.020242 
        2.96891       0.0182539       0.0199767 
        2.98456       0.0179782       0.0197173 
        3.00023       0.0178454       0.0194621 
        3.01596        0.017495       0.0192107 
        3.03164       0.0172862       0.0189644 
        3.04738       0.0170656       0.0187217 
         3.0631       0.0167484       0.0184833 
        3.07883       0.0166234       0.0182491 
        3.09456       0.0163811        0.018019 
        3.11026       0.0161083       0.0177932 
        3.12596       0.0159842       0.0175713 
        3.14163       0.0157607       0.0173536 
        3.15734       0.0155762       0.0171392 
        3.17308       0.0153716       0.0169279 
        3.18879       0.0151259       0.0167207 
        3.20447       0.0149538       0.0165173 
         3.2202       0.0147456       0.0163166 
         3.2359       0.0145824       0.0161196 
        3.25157       0.0143794       0.0159264 
        3.26729       0.0142153       0.0157357 
        3.28304       0.0140646       0.0155478 
        3.29877       0.0138828       0.0153632 
        3.31446       0.0136647        0.015182 
        3.33014       0.0135366       0.0150039 
        3.34585       0.0133948       0.0148283 
        3.36158       0.0132003       0.0146553 
        3.37727       0.0130199       0.0144856 
        3.39294        0.012871       0.0143188 
        3.40867       0.0127651       0.0141539 
        3.42439       0.0125919       0.0139918 
        3.44008        0.012455       0.0138325 
        3.45578       0.0122955       0.0136756 
        3.47153       0.0121695       0.0135208 
        3.48724       0.0120106       0.0133686 
        3.50292       0.0119174       0.0132191 
        3.51859        0.011799        0.013072 
        3.53431        0.011622       0.0129267 
        3.55007       0.0115041       0.0127832 
        3.56577       0.0113768       0.0126425 
        3.58146       0.0112417       0.0125039 
        3.59719       0.0111719       0.0123671 
        3.61292       0.0110187       0.0122324 
        3.62859       0.0108713       0.0121002 
        3.64429       0.0107821       0.0119697 
        3.66003       0.0106971       0.0118407 
        3.67578       0.0105669       0.0117137 
        3.69146       0.0104697        0.011589 
        3.70712       0.0103459       0.0114664 
        3.72284       0.0102433       0.0113451 
        3.73853       0.0101332       0.0112257 
        3.75422       0.0100396        0.011108 
        3.76993      0.00995081       0.0109919 
        3.78564      0.00985098       0.0108775 
        3.80137      0.00975644       0.0107646 
        3.81707        0.009639       0.0106535 
        3.83279      0.00954295       0.0105438 
        3.84853      0.00947477       0.0104356 
        3.86424      0.00937089        0.010329 
        3.87992      0.00930771       0.0102241 
        3.89561      0.00921656       0.0101207 
        3.91134      0.00912536       0.0100185 
        3.92704      0.00904671      0.00991778 
        3.94273      0.00897088      0.00981857 
        3.95845      0.00888048      0.00972053 
        3.97418      0.00880693      0.00962382 
        3.98988      0.00868758      0.00952854 
        4.00554      0.00861936      0.00943482 
        4.02125      0.00852202      0.00934209 
        4.03698      0.00839448      0.00925046 
        4.05268      0.00830332      0.00916027 
        4.06839      0.00820827      0.00907121 
         4.0841      0.00809029      0.00898337 
        4.09983      0.00800614      0.00889656 
        4.11555      0.00790665      0.00881094 
        4.13124      0.00781257      0.00872667 
        4.14693      0.00773445      0.00864344 
        4.16266      0.00764423       0.0085611 
        4.17839      0.00755978      0.00847988 
        4.19408       0.0074585       0.0083999 
        4.20977      0.00737625      0.00832091 
        4.22551      0.00731793      0.00824275 
        4.24123      0.00725216      0.00816568 
        4.25691      0.00720224       0.0080898 
        4.27259      0.00710335      0.00801486 
        4.28831      0.00705341      0.00794072 
        4.30404      0.00698709      0.00786744 
        4.31974      0.00695131      0.00779525 
        4.33543      0.00688351        0.007724 
        4.35116      0.00682122      0.00765348 
        4.36688      0.00678342      0.00758386 
        4.38255      0.00676207      0.00751536 
        4.39825      0.00673156      0.00744756 
        4.41398      0.00667111      0.00738047 
         4.4297      0.00664512      0.00731427 
        4.44541      0.00660944      0.00724889 
        4.46111      0.00656315      0.00718437 
        4.47683       0.0065632      0.00712058 
        4.49251      0.00652473      0.00705769 
        4.50819      0.00650979      0.00699558 
         4.5239      0.00648616      0.00693413 
        4.53962      0.00648418      0.00687334 
        4.55535      0.00645859      0.00681325 
        4.57106       0.0064752      0.00675396 
        4.58678       0.0064582      0.00669537 
         4.6025      0.00645713      0.00663745 
        4.61821      0.00645086      0.00658023 
        4.63391      0.00646036      0.00652376 
         4.6496      0.00644557      0.00646798 
        4.66532      0.00646874      0.00641276 
        4.68103      0.00646859      0.00635821 
        4.69673      0.00647325      0.00630434 
        4.71241       0.0065339      0.00625115 
        4.72811      0.00654045      0.00619849 
        4.74384      0.00656525      0.00614637 
        4.75955      0.00657554      0.00609492 
        4.77525      0.00660083      0.00604409 
        4.79096      0.00665203      0.00599378 
        4.80669      0.00667957      0.00594402 
         4.8224      0.00673626      0.00589488 
        4.83809      0.00677267      0.00584634 
        4.85379      0.00682745      0.00579833 
         4.8695      0.00683701      0.00575081 
        4.88521       0.0069027      0.00570384 
        4.90093      0.00694497      0.00565739 
        4.91663      0.00702127       0.0056115 
        4.93234      0.00707776      0.00556607 
        4.94807      0.00712671      0.00552112 
        4.96377      0.00721794      0.00547674 
        4.97943      0.00732972      0.00543294 
        4.99514      0.00734919      0.00538951 
        5.01086      0.00744203      0.00534652 
        5.02654      0.00750614      0.00530411 
        5.04227      0.00759541      0.00526204 
          5.058      0.00770829       0.0052204 
        5.07371       0.0077753      0.00517929 
        5.08942      0.00792144      0.00513862 
        5.10513      0.00796858      0.00509838 
        5.12084      0.00806292      0.00505855 
        5.13656      0.00817192      0.00501916 
        5.15225      0.00830364      0.00498025 
        5.16796      0.00847171      0.00494169 
        5.18369      0.00855206       0.0049035 
         5.1994      0.00869208      0.00486579 
        5.21509      0.00880256       0.0048285 
        5.23079      0.00893839      0.00479157 
        5.24649      0.00907249      0.00475505 
        5.26217      0.00921787      0.00471893 
        5.27788      0.00936022      0.00468314 
        5.29359      0.00950562      0.00464771 
        5.30933      0.00969264       0.0046126 
        5.32504      0.00984953       0.0045779 
        5.34073      0.00998395      0.00454361 
        5.35646       0.0102175      0.00450959 
        5.37218       0.0103992      0.00447592 
        5.38789       0.0105244      0.00444264 
        5.40357       0.0107179      0.00440975 
        5.41929       0.0109202      0.00437711 
        5.43502       0.0111718      0.00434479 
         5.4507       0.0113406      0.00431288 
        5.46639       0.0115414      0.00428129 
        5.48212       0.0117415      0.00424994 
        5.49786       0.0120831      0.00421886 
        5.51353       0.0122916      0.00418825 
        5.52921       0.0124796      0.00415792 
        5.54495        0.012729      0.00412779 
        5.56066       0.0130361      0.00409799 
        5.57637       0.0132856       0.0040685 
        5.59207       0.0135758      0.00403932 
        5.60778       0.0138861      0.00401041 
        5.62346       0.0141309      0.00398183 
        5.63916       0.0143399      0.00395349 
        5.65487       0.0147095      0.00392542 
         5.6706       0.0150004      0.00389759 
        5.68633       0.0153808      0.00387002 
        5.70203       0.0157067      0.00384277 
        5.71773       0.0160775      0.00381579 
        5.73344       0.0162956      0.00378905 
        5.74916       0.0166844      0.00376254 
        5.76486        0.017181      0.00373633 
        5.78054       0.0174737       0.0037104 
        5.79626       0.0178513      0.00368465 
          5.812         0.01832      0.00365911 
         5.8277       0.0186476      0.00363389 
        5.84339       0.0191233      0.00360891 
        5.85911       0.0196916      0.00358412 
        5.87484       0.0201041      0.00355956 
        5.89053       0.0205308      0.00353528 
        5.90623       0.0211472      0.00351122 
        5.92195       0.0214451      0.00348734 
        5.93767       0.0220264      0.00346369 
        5.95336       0.0226281       0.0034403 
        5.96905       0.0231476      0.00341714 
        5.98476       0.0235454      0.00339415 
        6.00048        0.024328      0.00337137 
        6.01617       0.0247706      0.00334883 
        6.03185       0.0253658      0.00332653 
        6.04756       0.0261924      0.00330437 
        6.06331       0.0267388      0.00328237 
        6.07903       0.0274189      0.00326061 
        6.09473       0.0281031      0.00323907 
        6.11044       0.0290088      0.00321771 
        6.12616       0.0295299      0.00319654 
        6.14186         0.03043      0.00317558 
        6.15755       0.0311827      0.00315481 
        6.17326       0.0318809      0.00313422 
        6.18898       0.0327278      0.00311379 
        6.20467        0.033642      0.00309359 
        6.22036       0.0347092      0.00307356 
         6.2361       0.0353802      0.00305366 
         6.2518       0.0364046      0.00303396 
        6.26748       0.0370944      0.00301449 
        6.28319       0.0385773      0.00299513 
        6.29893       0.0394377      0.00297592 
        6.31463       0.0407615      0.00295692 
        6.33033       0.0413222      0.00293808 
        6.34604       0.0425014       0.0029194 
        6.36177       0.0435773      0.00290086 
        6.37747       0.0452563      0.00288252 
