# k  (h/Mpc)    Pcb(k)  (Mpc/h)^3    Pcb_linear(k) (Mpc/h)^3   ShotnoiseSubtracted = true
      0.0200456         256.383         259.813 
      0.0350414         195.609         195.848 
      0.0492313         148.397         147.961 
      0.0637834         124.049         123.595 
      0.0800726         96.9607         96.5143 
       0.096163         71.5281         71.4436 
       0.111083         58.7692         58.9874 
       0.126058         51.9677         51.9703 
       0.142273         42.9828         42.7601 
       0.158546         34.5367         34.2871 
        0.17375         29.7796         29.8845 
       0.188953         26.8821         26.8738 
       0.204907         23.5423         23.1458 
       0.220756         19.9038          19.724 
        0.23588         17.7273         17.6126 
         0.2514         16.0104         15.9975 
       0.267535         14.2559         14.1943 
       0.283568         12.6259         12.5289 
       0.299022         11.4607         11.3509 
       0.314451          10.374         10.4046 
       0.330372         9.47797         9.43864 
       0.346141         8.59281         8.54895 
       0.361624         7.90571         7.83965 
       0.377134          7.3354         7.24102 
       0.392932         6.61265         6.66643 
       0.408854         6.20615         6.12931 
       0.424564         5.71009         5.67277 
       0.440253         5.31149         5.27478 
       0.455999         4.97308         4.90581 
       0.471626          4.6492         4.56774 
        0.48727         4.31277         4.26455 
       0.502856         4.02559         3.99421 
       0.518488         3.82369         3.74493 
       0.534347         3.61091          3.5112 
       0.550082         3.33413         3.29967 
       0.565732         3.09916           3.108 
       0.581496         2.98029         2.93013 
       0.597222         2.82502         2.76581 
       0.612804         2.65215          2.6154 
       0.628434         2.53873         2.47627 
       0.644267         2.39296         2.34577 
       0.660051         2.26101         2.22497 
       0.675724         2.15501         2.11338 
       0.691403         2.06141         2.00938 
       0.707174         1.95108         1.91181 
       0.722871         1.85183         1.82112 
        0.73838         1.78204         1.73729 
       0.754018         1.71316         1.65812 
       0.769845         1.62712         1.58303 
        0.78569         1.55523         1.51253 
       0.801365         1.48434         1.44702 
       0.817031         1.42656         1.38546 
       0.832809         1.36627          1.3271 
       0.848511         1.30287         1.27237 
       0.864097         1.24485         1.22112 
       0.879701          1.1962         1.17265 
       0.895507         1.15781         1.12625 
       0.911279         1.11777         1.08246 
        0.92691         1.07175         1.04137 
       0.942635         1.03112          1.0022 
       0.958396        0.989263         0.96496 
       0.974128        0.954318        0.929689 
       0.989692        0.925354        0.896535 
        1.00528        0.891839        0.864955 
        1.02113        0.853031        0.834405 
        1.03692        0.831437        0.805448 
        1.05264        0.801993        0.778004 
        1.06832        0.776954        0.751885 
        1.08405        0.743623        0.726899 
        1.09979         0.72092        0.703038 
        1.11537        0.703902        0.680487 
        1.13105        0.681613        0.658794 
        1.14679        0.663409        0.637965 
        1.16256        0.635199        0.617999 
        1.17828        0.617179        0.598956 
        1.19395        0.596929        0.580781 
         1.2097        0.575634         0.56327 
        1.22537        0.564786        0.546567 
          1.241        0.547397        0.530593 
        1.25666        0.536304         0.51522 
        1.27241        0.515357        0.500385 
        1.28819        0.500382         0.48611 
        1.30392        0.488457        0.472436 
        1.31957        0.475108        0.459349 
        1.33529        0.460724        0.446711 
        1.35108        0.447558        0.434499 
        1.36674        0.431806        0.422832 
         1.3824        0.426461        0.411605 
        1.39811        0.412785         0.40075 
        1.41389        0.402973        0.390245 
        1.42964        0.393935        0.380135 
        1.44531        0.380379        0.370433 
        1.46101        0.373423         0.36105 
        1.47667         0.35962         0.35202 
        1.49229        0.354204        0.343324 
        1.50793        0.343272        0.334912 
        1.52367        0.336487        0.326729 
        1.53953        0.327922        0.318764 
        1.55526        0.320603        0.311129 
        1.57092        0.310956        0.303776 
        1.58662        0.305319        0.296644 
        1.60235        0.298876        0.289727 
        1.61809        0.288983        0.283028 
        1.63369        0.286138          0.2766 
        1.64941        0.278024        0.270326 
        1.66519         0.27092        0.264224 
        1.68085        0.263935        0.258354 
        1.69652         0.25822        0.252661 
        1.71228        0.254161        0.247108 
        1.72806        0.246187        0.241717 
        1.74368        0.243272        0.236541 
        1.75933        0.237075        0.231507 
        1.77505        0.231629        0.226596 
        1.79081        0.227735        0.221818 
         1.8065        0.220818        0.217199 
        1.82218        0.217412        0.212716 
        1.83797        0.212323        0.208328 
        1.85367        0.208952        0.204089 
        1.86928        0.204605        0.199993 
        1.88497         0.20061        0.195987 
        1.90073        0.195962        0.192076 
        1.91647        0.192243        0.188276 
        1.93218        0.187681        0.184586 
        1.94787        0.184016        0.181001 
        1.96363        0.180892        0.177497 
        1.97935        0.176335        0.174093 
        1.99499        0.173656        0.170797 
        2.01064        0.170487        0.167582 
         2.0264        0.166496         0.16443 
        2.04216        0.164568         0.16136 
        2.05781        0.160967        0.158388 
        2.07353        0.156813         0.15548 
        2.08928        0.154099        0.152639 
        2.10499        0.151312        0.149877 
        2.12065        0.149387        0.147191 
        2.13633        0.145846        0.144569 
        2.15211        0.144078        0.141993 
        2.16785        0.140827        0.139488 
        2.18349        0.137413        0.137059 
        2.19916        0.136444        0.134682 
        2.21489        0.133635        0.132354 
        2.23063        0.131412         0.13008 
         2.2463        0.128698        0.127869 
        2.26194        0.126173        0.125715 
        2.27765        0.123983        0.123599 
        2.29341        0.122322        0.121527 
        2.30914        0.119784        0.119507 
        2.32486        0.117704        0.117533 
        2.34061        0.115906        0.115601 
        2.35635        0.113648        0.113714 
        2.37203        0.111997        0.111876 
        2.38768        0.109923        0.110082 
        2.40339         0.10828        0.108321 
        2.41914        0.106884        0.106594 
        2.43483        0.104586        0.104911 
         2.4505        0.102479        0.103268 
        2.46622        0.100944        0.101653 
        2.48195       0.0992024        0.100074 
        2.49759       0.0983967       0.0985357 
        2.51328       0.0967445       0.0970262 
        2.52906       0.0949641       0.0955387 
        2.54479        0.093226        0.094088 
        2.56049       0.0916906       0.0926701 
        2.57618       0.0903025       0.0912827 
        2.59189       0.0890922       0.0899216 
        2.60758       0.0880687       0.0885904 
        2.62325       0.0863126       0.0872878 
        2.63898       0.0850893       0.0860067 
        2.65468       0.0833263       0.0847541 
        2.67044       0.0825628        0.083521 
        2.68618       0.0813411       0.0823153 
        2.70184        0.079798       0.0811382 
        2.71755       0.0784128       0.0799812 
        2.73329       0.0775644       0.0788449 
        2.74897       0.0766591       0.0777344 
        2.76462       0.0752233       0.0766477 
        2.78034       0.0741886       0.0755773 
        2.79607       0.0729459       0.0745262 
        2.81179       0.0722169       0.0734963 
        2.82749       0.0709334        0.072487 
        2.84321       0.0699516       0.0714955 
        2.85893        0.069121       0.0705228 
        2.87462       0.0683985       0.0695699 
        2.89033       0.0671502       0.0686337 
        2.90605       0.0659023       0.0677139 
        2.92176       0.0653316       0.0668114 
        2.93747       0.0642789       0.0659258 
        2.95318       0.0632763        0.065056 
        2.96891        0.062549       0.0642016 
        2.98456       0.0617517       0.0633662 
        3.00023       0.0608268       0.0625445 
        3.01596       0.0600051       0.0617348 
        3.03164       0.0594899       0.0609417 
        3.04738       0.0584461       0.0601602 
         3.0631       0.0575784       0.0593927 
        3.07883       0.0568198       0.0586385 
        3.09456       0.0562247       0.0578975 
        3.11026       0.0553454       0.0571704 
        3.12596       0.0548862       0.0564559 
        3.14163       0.0539894       0.0557553 
        3.15734       0.0534474       0.0550649 
        3.17308       0.0527596       0.0543845 
        3.18879        0.051945       0.0537174 
        3.20447       0.0514277       0.0530625 
         3.2202       0.0508564       0.0524165 
         3.2359       0.0502153       0.0517824 
        3.25157       0.0494133       0.0511602 
        3.26729       0.0488414       0.0505464 
        3.28304       0.0484375       0.0499414 
        3.29877       0.0477272       0.0493471 
        3.31446        0.047154       0.0487638 
        3.33014       0.0467208       0.0481904 
        3.34585       0.0461378       0.0476254 
        3.36158       0.0454679       0.0470685 
        3.37727        0.045074       0.0465223 
        3.39294       0.0446101       0.0459852 
        3.40867       0.0440206       0.0454547 
        3.42439       0.0435221       0.0449328 
        3.44008         0.04297       0.0444201 
        3.45578       0.0427208       0.0439151 
        3.47153       0.0420518       0.0434167 
        3.48724       0.0418148        0.042927 
        3.50292       0.0411183       0.0424459 
        3.51859       0.0406489       0.0419724 
        3.53431        0.040414       0.0415047 
        3.55007       0.0399264        0.041043 
        3.56577       0.0395087       0.0405901 
        3.58146        0.039098       0.0401442 
        3.59719       0.0387967       0.0397039 
        3.61292       0.0382564       0.0392705 
        3.62859       0.0378464       0.0388451 
        3.64429       0.0375761       0.0384252 
        3.66003       0.0371011       0.0380102 
        3.67578       0.0367714       0.0376014 
        3.69146       0.0363889       0.0372002 
        3.70712       0.0362014       0.0368056 
        3.72284       0.0358085       0.0364153 
        3.73853       0.0353645       0.0360313 
        3.75422       0.0351874       0.0356526 
        3.76993       0.0346613       0.0352791 
        3.78564       0.0344081        0.034911 
        3.80137       0.0340529       0.0345477 
        3.81707       0.0337034       0.0341902 
        3.83279       0.0334949       0.0338375 
        3.84853       0.0331839       0.0334892 
        3.86424       0.0328608       0.0331465 
        3.87992       0.0325439        0.032809 
        3.89561       0.0322655       0.0324763 
        3.91134       0.0319911       0.0321474 
        3.92704       0.0316572       0.0318235 
        3.94273       0.0313637       0.0315044 
        3.95845       0.0311443       0.0311891 
        3.97418       0.0308337        0.030878 
        3.98988       0.0305187       0.0305715 
        4.00554       0.0302009       0.0302701 
        4.02125       0.0298147       0.0299718 
        4.03698       0.0294385       0.0296771 
        4.05268       0.0291491        0.029387 
        4.06839       0.0286908       0.0291006 
         4.0841       0.0283282       0.0288181 
        4.09983       0.0279492       0.0285389 
        4.11555       0.0276599       0.0282636 
        4.13124        0.027296       0.0279926 
        4.14693       0.0268219       0.0277249 
        4.16266       0.0265935       0.0274601 
        4.17839       0.0263382       0.0271989 
        4.19408       0.0259944       0.0269417 
        4.20977       0.0256925       0.0266877 
        4.22551       0.0253237       0.0264364 
        4.24123       0.0250694       0.0261886 
        4.25691       0.0248255       0.0259446 
        4.27259       0.0245269       0.0257036 
        4.28831       0.0243524       0.0254652 
        4.30404        0.024079       0.0252296 
        4.31974       0.0238905       0.0249975 
        4.33543        0.023713       0.0247685 
        4.35116       0.0234784       0.0245417 
        4.36688        0.023295       0.0243179 
        4.38255       0.0230468       0.0240977 
        4.39825       0.0229411       0.0238797 
        4.41398       0.0228737        0.023664 
         4.4297       0.0227072       0.0234512 
        4.44541       0.0225232        0.023241 
        4.46111       0.0223793       0.0230336 
        4.47683       0.0223226       0.0228285 
        4.49251       0.0221325       0.0226264 
        4.50819       0.0220462       0.0224267 
         4.5239       0.0219421       0.0222292 
        4.53962       0.0219307       0.0220338 
        4.55535       0.0218627       0.0218407 
        4.57106       0.0218533       0.0216501 
        4.58678       0.0216635       0.0214618 
         4.6025       0.0217083       0.0212756 
        4.61821       0.0217001       0.0210917 
        4.63391       0.0216801       0.0209102 
         4.6496        0.021631       0.0207309 
        4.66532       0.0216566       0.0205535 
        4.68103       0.0216567       0.0203781 
        4.69673       0.0216619        0.020205 
        4.71241        0.021773       0.0200341 
        4.72811       0.0217058       0.0198649 
        4.74384       0.0217772       0.0196974 
        4.75955       0.0218816        0.019532 
        4.77525       0.0219214       0.0193687 
        4.79096       0.0219848        0.019207 
        4.80669       0.0220262       0.0190471 
         4.8224       0.0222234       0.0188892 
        4.83809       0.0223142       0.0187333 
        4.85379        0.022427        0.018579 
         4.8695       0.0225039       0.0184263 
        4.88521       0.0226648       0.0182754 
        4.90093       0.0229012       0.0181262 
        4.91663       0.0230823       0.0179787 
        4.93234       0.0231654       0.0178328 
        4.94807       0.0232229       0.0176883 
        4.96377       0.0235576       0.0175458 
        4.97943       0.0237799       0.0174051 
        4.99514        0.023951       0.0172655 
        5.01086       0.0241485       0.0171274 
        5.02654       0.0243577       0.0169912 
        5.04227       0.0246642        0.016856 
          5.058       0.0249128       0.0167223 
        5.07371       0.0250283       0.0165902 
        5.08942       0.0255448       0.0164596 
        5.10513       0.0258757       0.0163303 
        5.12084       0.0260267       0.0162024 
        5.13656       0.0264024       0.0160759 
        5.15225       0.0267233       0.0159509 
        5.16796       0.0271504        0.015827 
        5.18369       0.0273705       0.0157044 
         5.1994       0.0277729       0.0155832 
        5.21509       0.0282115       0.0154635 
        5.23079       0.0285409       0.0153449 
        5.24649        0.028963       0.0152276 
        5.26217        0.029403       0.0151116 
        5.27788       0.0298728       0.0149966 
        5.29359       0.0304035       0.0148829 
        5.30933       0.0307046       0.0147701 
        5.32504       0.0312343       0.0146587 
        5.34073       0.0318319       0.0145486 
        5.35646       0.0322704       0.0144393 
        5.37218       0.0328482       0.0143312 
        5.38789       0.0335973       0.0142244 
        5.40357       0.0340706       0.0141187 
        5.41929       0.0346207       0.0140139 
        5.43502       0.0352327       0.0139102 
         5.4507       0.0358075       0.0138077 
        5.46639       0.0365409       0.0137063 
        5.48212       0.0372179       0.0136056 
        5.49786        0.037953       0.0135058 
        5.51353        0.038743       0.0134076 
        5.52921       0.0394135       0.0133102 
        5.54495       0.0402595       0.0132134 
        5.56066       0.0410265       0.0131178 
        5.57637       0.0418216       0.0130231 
        5.59207       0.0426614       0.0129294 
        5.60778       0.0435913       0.0128366 
        5.62346       0.0445299       0.0127448 
        5.63916       0.0453111       0.0126539 
        5.65487       0.0460892       0.0125638 
         5.6706       0.0470344       0.0124744 
        5.68633        0.048462       0.0123859 
        5.70203       0.0492408       0.0122985 
        5.71773       0.0503237       0.0122119 
        5.73344         0.05126        0.012126 
        5.74916        0.052715        0.012041 
        5.76486       0.0536693       0.0119568 
        5.78054       0.0548167       0.0118736 
        5.79626        0.056031       0.0117909 
          5.812       0.0574091        0.011709 
         5.8277       0.0585736        0.011628 
        5.84339       0.0597253       0.0115479 
        5.85911       0.0611496       0.0114683 
        5.87484        0.062582       0.0113895 
        5.89053       0.0642053       0.0113116 
        5.90623       0.0658509       0.0112344 
        5.92195       0.0671639       0.0111577 
        5.93767       0.0688605       0.0110818 
        5.95336       0.0702496       0.0110068 
        5.96905       0.0723691       0.0109324 
        5.98476       0.0735548       0.0108587 
        6.00048       0.0751379       0.0107856 
        6.01617       0.0771692       0.0107133 
        6.03185       0.0789194       0.0106417 
        6.04756       0.0810642       0.0105706 
        6.06331       0.0829739          0.0105 
        6.07903       0.0848236       0.0104302 
        6.09473       0.0870807       0.0103611 
        6.11044       0.0895714       0.0102925 
        6.12616       0.0916249       0.0102246 
        6.14186       0.0940774       0.0101574 
        6.15755       0.0962691       0.0100908 
        6.17326       0.0982637       0.0100247 
        6.18898        0.101255      0.00995916 
        6.20467        0.103617      0.00989434 
        6.22036        0.105886      0.00983009 
         6.2361        0.108277      0.00976625 
         6.2518        0.111569      0.00970307 
        6.26748        0.113796      0.00964059 
        6.28319        0.117778      0.00957849 
        6.29893        0.120425      0.00951688 
        6.31463        0.123252      0.00945592 
        6.33033        0.126124      0.00939551 
        6.34604        0.129533      0.00933558 
        6.36177        0.132166      0.00927612 
        6.37747        0.136678      0.00921728 
