# k  (h/Mpc)    Pcb(k)  (Mpc/h)^3    Pcb_linear(k) (Mpc/h)^3   ShotnoiseSubtracted = true
      0.0200456         13566.5         13848.5 
      0.0350414         10066.9           10439 
      0.0492313         7764.57         7886.56 
      0.0637834         6693.57         6587.83 
      0.0800726          5222.6         5144.38 
       0.096163         3699.19         3808.07 
       0.111083         3028.27         3144.13 
       0.126058         2785.35         2770.11 
       0.142273         2361.26         2279.19 
       0.158546          2024.5         1827.56 
        0.17375         1651.97          1592.9 
       0.188953         1597.85         1432.42 
       0.204907         1488.04         1233.71 
       0.220756         1279.05         1051.33 
        0.23588         1138.27         938.785 
         0.2514         993.718         852.695 
       0.267535         975.684         756.581 
       0.283568         885.572         667.814 
       0.299022         831.831          605.02 
       0.314451         788.921         554.583 
       0.330372         726.825         503.096 
       0.346141          670.71         455.674 
       0.361624         644.162         417.867 
       0.377134         598.842         385.959 
       0.392932         575.002         355.332 
       0.408854          554.38         326.703 
       0.424564         522.758         302.368 
       0.440253         510.516         281.155 
       0.455999          482.14         261.488 
       0.471626          454.32         243.468 
        0.48727         440.499         227.308 
       0.502856         427.342         212.898 
       0.518488         422.765         199.611 
       0.534347         395.265         187.153 
       0.550082          376.82         175.878 
       0.565732         375.448         165.662 
       0.581496         353.763         156.181 
       0.597222          347.92         147.423 
       0.612804         336.929         139.405 
       0.628434         324.147         131.989 
       0.644267          314.78         125.033 
       0.660051         307.966         118.595 
       0.675724         303.777         112.647 
       0.691403         294.462         107.103 
       0.707174         283.411         101.903 
       0.722871         280.195         97.0687 
        0.73838         275.496         92.6007 
       0.754018         267.684         88.3806 
       0.769845         258.513         84.3781 
        0.78569         258.178         80.6203 
       0.801365         249.363         77.1289 
       0.817031         242.032         73.8475 
       0.832809         239.125         70.7367 
       0.848511         232.883         67.8197 
       0.864097         229.644         65.0878 
       0.879701         225.388         62.5042 
       0.895507         219.825         60.0309 
       0.911279          213.22          57.697 
        0.92691         212.892         55.5069 
       0.942635          207.71         53.4188 
       0.958396         206.045          51.434 
       0.974128          201.19         49.5541 
       0.989692         196.294         47.7869 
        1.00528         193.825         46.1036 
        1.02113         192.407         44.4752 
        1.03692         186.671         42.9318 
        1.05264         183.092          41.469 
        1.06832         179.957         40.0768 
        1.08405         176.801          38.745 
        1.09979         175.629         37.4731 
        1.11537         170.556         36.2711 
        1.13105         168.269         35.1149 
        1.14679         168.088         34.0047 
        1.16256         164.782         32.9404 
        1.17828         161.269         31.9254 
        1.19395          159.07         30.9566 
         1.2097         157.767         30.0232 
        1.22537         154.403          29.133 
          1.241         152.564         28.2815 
        1.25666         149.647         27.4621 
        1.27241         147.296         26.6714 
        1.28819         145.462         25.9105 
        1.30392         143.458         25.1816 
        1.31957         142.017         24.4841 
        1.33529         138.288         23.8105 
        1.35108         137.437         23.1596 
        1.36674         136.112         22.5377 
         1.3824         133.163         21.9393 
        1.39811         132.775         21.3607 
        1.41389         130.003         20.8007 
        1.42964         127.329         20.2618 
        1.44531         125.131         19.7447 
        1.46101         123.928         19.2446 
        1.47667         122.106         18.7633 
        1.49229         120.559         18.2998 
        1.50793         119.554         17.8514 
        1.52367         117.996         17.4152 
        1.53953         115.547         16.9907 
        1.55526         114.292         16.5837 
        1.57092         112.885         16.1918 
        1.58662         110.942         15.8116 
        1.60235         110.258          15.443 
        1.61809          108.17         15.0859 
        1.63369         107.153         14.7432 
        1.64941         106.062         14.4088 
        1.66519         103.912         14.0836 
        1.68085         103.264         13.7707 
        1.69652         100.517         13.4673 
        1.71228          100.78         13.1713 
        1.72806         99.1733         12.8839 
        1.74368         97.8985         12.6081 
        1.75933         96.5013         12.3397 
        1.77505         95.1815         12.0779 
        1.79081         93.9589         11.8233 
         1.8065         92.7928         11.5771 
        1.82218         90.9939         11.3381 
        1.83797         90.0552         11.1043 
        1.85367           88.92         10.8783 
        1.86928          88.357           10.66 
        1.88497         86.4503         10.4465 
        1.90073         86.0103          10.238 
        1.91647         84.6938         10.0354 
        1.93218         83.6407         9.83878 
        1.94787         82.7521         9.64768 
        1.96363         81.3258          9.4609 
        1.97935         80.4585         9.27945 
        1.99499         79.6012         9.10379 
        2.01064         78.6672         8.93243 
         2.0264         77.2476         8.76439 
        2.04216          76.389         8.60077 
        2.05781         75.5363         8.44236 
        2.07353         74.1785         8.28737 
        2.08928         73.2427         8.13593 
        2.10499          72.534         7.98869 
        2.12065         72.0227         7.84553 
        2.13633         71.0323         7.70576 
        2.15211         70.0875         7.56849 
        2.16785         69.2323         7.43495 
        2.18349         68.4062         7.30547 
        2.19916         67.5306          7.1788 
        2.21489         66.7754         7.05471 
        2.23063         66.0824         6.93347 
         2.2463         65.2386         6.81563 
        2.26194         64.6468         6.70082 
        2.27765         63.8179         6.58807 
        2.29341         62.9587         6.47761 
        2.30914         61.9909         6.36992 
        2.32486         61.2922         6.26473 
        2.34061         60.5617         6.16175 
        2.35635         60.1162         6.06117 
        2.37203          58.963         5.96318 
        2.38768         58.5199         5.86756 
        2.40339          57.651          5.7737 
        2.41914         57.1926         5.68166 
        2.43483         56.8682         5.59196 
         2.4505         55.9818         5.50434 
        2.46622         55.4032          5.4183 
        2.48195         54.6367         5.33409 
        2.49759         53.7885         5.25213 
        2.51328         53.3773         5.17166 
        2.52906         52.8646         5.09238 
        2.54479         52.2075         5.01505 
        2.56049           51.49         4.93948 
        2.57618         51.0129         4.86553 
        2.59189         50.4539         4.79298 
        2.60758          49.999         4.72202 
        2.62325         49.3409         4.65259 
        2.63898         48.8762         4.58431 
        2.65468         48.3442         4.51754 
        2.67044         47.6019         4.45182 
        2.68618         47.3506         4.38755 
        2.70184         46.5698         4.32481 
        2.71755         46.4341         4.26314 
        2.73329         45.5226         4.20257 
        2.74897         45.0877         4.14338 
        2.76462         44.7026         4.08546 
        2.78034         44.2739          4.0284 
        2.79607         43.5896         3.97238 
        2.81179          43.207         3.91748 
        2.82749         42.5144         3.86368 
        2.84321         42.2392         3.81083 
        2.85893         41.7368         3.75899 
        2.87462         41.1706          3.7082 
        2.89033         40.8444         3.65829 
        2.90605         40.3024         3.60927 
        2.92176         39.9693         3.56116 
        2.93747         39.5358         3.51396 
        2.95318         39.0974          3.4676 
        2.96891         38.4336         3.42205 
        2.98456         38.3531         3.37753 
        3.00023         37.8639         3.33373 
        3.01596         37.5019         3.29057 
        3.03164          36.961          3.2483 
        3.04738         36.7882         3.20664 
         3.0631         36.2384         3.16573 
        3.07883         35.9041         3.12553 
        3.09456         35.5044         3.08604 
        3.11026         35.0822         3.04728 
        3.12596         34.8405          3.0092 
        3.14163         34.4075         2.97185 
        3.15734          33.911         2.93505 
        3.17308          33.755         2.89879 
        3.18879         33.4513         2.86323 
        3.20447         32.9398         2.82832 
         3.2202         32.5681         2.79389 
         3.2359         32.2777         2.76009 
        3.25157         31.9195         2.72693 
        3.26729         31.6895         2.69421 
        3.28304         31.3067         2.66196 
        3.29877         31.0449         2.63029 
        3.31446         30.7471          2.5992 
        3.33014         30.4157         2.56863 
        3.34585         30.1184         2.53851 
        3.36158         29.8355         2.50883 
        3.37727         29.5013         2.47972 
        3.39294         29.2003         2.45109 
        3.40867         28.9256         2.42281 
        3.42439         28.6345           2.395 
        3.44008         28.4974         2.36767 
        3.45578         27.9816         2.34075 
        3.47153         27.8096         2.31419 
        3.48724         27.5068         2.28808 
        3.50292         27.2171         2.26244 
        3.51859         26.9622          2.2372 
        3.53431         26.7796         2.21227 
        3.55007         26.4885         2.18766 
        3.56577         26.2121         2.16352 
        3.58146          26.003         2.13975 
        3.59719         25.6708         2.11629 
        3.61292         25.4548         2.09318 
        3.62859         25.2036         2.07051 
        3.64429         24.9069         2.04813 
        3.66003         24.7153         2.02601 
        3.67578         24.5122         2.00422 
        3.69146         24.2924         1.98284 
        3.70712         24.0444          1.9618 
        3.72284          23.882           1.941 
        3.73853         23.6202         1.92053 
        3.75422         23.3962         1.90035 
        3.76993         23.2233         1.88044 
        3.78564         22.9691         1.86082 
        3.80137         22.7843         1.84145 
        3.81707          22.556          1.8224 
        3.83279         22.2771          1.8036 
        3.84853         22.0294         1.78503 
        3.86424         21.8445         1.76676 
        3.87992         21.6473         1.74878 
        3.89561         21.4686         1.73104 
        3.91134         21.3007         1.71351 
        3.92704         21.1074         1.69625 
        3.94273         20.8407         1.67924 
        3.95845         20.6881         1.66243 
        3.97418         20.5209         1.64585 
        3.98988         20.2838         1.62952 
        4.00554         20.1359         1.61345 
        4.02125         20.0072         1.59755 
        4.03698         19.7141         1.58184 
        4.05268         19.5844         1.56638 
        4.06839          19.405         1.55111 
         4.0841         19.2738         1.53605 
        4.09983          19.129         1.52117 
        4.11555          18.921          1.5065 
        4.13124          18.694         1.49205 
        4.14693         18.5008         1.47779 
        4.16266         18.3452         1.46367 
        4.17839         18.1755         1.44975 
        4.19408         18.0123         1.43604 
        4.20977         17.9301          1.4225 
        4.22551         17.7519         1.40911 
        4.24123         17.5631          1.3959 
        4.25691         17.4333         1.38289 
        4.27259         17.2726         1.37005 
        4.28831         17.1098         1.35734 
        4.30404         16.9309         1.34478 
        4.31974         16.7844         1.33241 
        4.33543         16.6897          1.3202 
        4.35116         16.5572         1.30812 
        4.36688         16.3669         1.29619 
        4.38255         16.2485         1.28445 
        4.39825         16.1346         1.27283 
        4.41398         15.9496         1.26133 
         4.4297         15.8324         1.24999 
        4.44541          15.724         1.23879 
        4.46111         15.5566         1.22773 
        4.47683         15.4308          1.2168 
        4.49251         15.3132         1.20603 
        4.50819         15.1573         1.19538 
         4.5239          15.069         1.18486 
        4.53962         14.9035         1.17444 
        4.55535         14.7951         1.16414 
        4.57106         14.6346         1.15399 
        4.58678         14.5849         1.14395 
         4.6025         14.4175         1.13403 
        4.61821         14.2934         1.12422 
        4.63391         14.2075         1.11455 
         4.6496         14.0466         1.10499 
        4.66532         13.9227         1.09553 
        4.68103         13.8329         1.08619 
        4.69673         13.7669         1.07696 
        4.71241         13.6051         1.06785 
        4.72811         13.4877         1.05883 
        4.74384         13.3951          1.0499 
        4.75955         13.2855         1.04109 
        4.77525         13.1795         1.03239 
        4.79096         13.0568         1.02377 
        4.80669         12.9726         1.01525 
         4.8224         12.8337         1.00683 
        4.83809         12.7401        0.998516 
        4.85379         12.6358        0.990292 
         4.8695         12.5707        0.982154 
        4.88521         12.4412        0.974111 
        4.90093         12.3646        0.966157 
        4.91663         12.2795        0.958298 
        4.93234         12.1178        0.950518 
        4.94807         12.0626        0.942819 
        4.96377         11.9504         0.93522 
        4.97943         11.8728         0.92772 
        4.99514         11.7584        0.920283 
        5.01086         11.6894        0.912922 
        5.02654         11.5803         0.90566 
        5.04227         11.4819        0.898456 
          5.058         11.4264        0.891326 
        5.07371         11.3269        0.884288 
        5.08942         11.2342        0.877324 
        5.10513         11.1434        0.870435 
        5.12084         11.0533        0.863616 
        5.13656         10.9811        0.856871 
        5.15225         10.8855        0.850209 
        5.16796          10.814        0.843608 
        5.18369         10.7089        0.837071 
         5.1994          10.658        0.830614 
        5.21509         10.5556        0.824232 
        5.23079         10.4834        0.817908 
        5.24649         10.4121        0.811656 
        5.26217         10.3225        0.805474 
        5.27788         10.2404        0.799347 
        5.29359         10.1885        0.793283 
        5.30933          10.107        0.787272 
        5.32504         10.0179        0.781334 
        5.34073         9.95314        0.775464 
        5.35646         9.87402        0.769642 
        5.37218         9.78857        0.763878 
        5.38789         9.73185        0.758183 
        5.40357         9.66039        0.752552 
        5.41929         9.58352        0.746966 
        5.43502         9.52836        0.741436 
         5.4507         9.43647        0.735975 
        5.46639         9.37615        0.730568 
        5.48212         9.30804        0.725203 
        5.49786         9.24417        0.719885 
        5.51353         9.16234        0.714646 
        5.52921         9.10227        0.709454 
        5.54495         9.03492        0.704299 
        5.56066         8.95739          0.6992 
        5.57637         8.90051        0.694153 
        5.59207         8.84123         0.68916 
        5.60778         8.76954        0.684213 
        5.62346         8.72972        0.679322 
        5.63916         8.64935        0.674475 
        5.65487         8.58684        0.669672 
         5.6706         8.53628         0.66491 
        5.68633         8.47139        0.660192 
        5.70203         8.40721         0.65553 
        5.71773         8.35728        0.650913 
        5.73344         8.28188        0.646339 
        5.74916         8.21068        0.641804 
        5.76486         8.17548        0.637319 
        5.78054         8.11374        0.632883 
        5.79626         8.05282        0.628478 
          5.812         7.99502        0.624109 
         5.8277         7.93277        0.619795 
        5.84339         7.89113        0.615522 
        5.85911         7.82318         0.61128 
        5.87484         7.76914         0.60708 
        5.89053         7.71734        0.602927 
        5.90623          7.6674         0.59881 
        5.92195         7.62553        0.594725 
        5.93767         7.55802        0.590681 
        5.95336         7.52771         0.58668 
        5.96905         7.45184        0.582718 
        5.98476         7.41984        0.578787 
        6.00048         7.36322        0.574891 
        6.01617         7.32592        0.571036 
        6.03185         7.26964        0.567221 
        6.04756          7.1981        0.563432 
        6.06331         7.16819        0.559669 
        6.07903         7.11833        0.555948 
        6.09473         7.06207        0.552264 
        6.11044         7.01833        0.548611 
        6.12616         6.96638        0.544991 
        6.14186         6.91984        0.541407 
        6.15755         6.86462        0.537855 
        6.17326          6.8291        0.534333 
        6.18898         6.78911         0.53084 
        6.20467         6.74508        0.527385 
        6.22036         6.68438        0.523961 
         6.2361         6.65847        0.520558 
         6.2518         6.60855        0.517191 
        6.26748         6.55815         0.51386 
        6.28319         6.51464         0.51055 
        6.29893         6.47601        0.507266 
        6.31463         6.44102        0.504017 
        6.33033         6.39756        0.500797 
        6.34604         6.35506        0.497603 
        6.36177          6.3083        0.494433 
        6.37747         6.26745        0.491297 
