# k  (h/Mpc)    Pcb(k)  (Mpc/h)^3    Pcb_linear(k) (Mpc/h)^3   ShotnoiseSubtracted = true
      0.0200456           12176         12357.6 
      0.0350414         9547.68         9315.21 
      0.0492313         6943.79         7037.52 
      0.0637834         5643.31          5878.6 
      0.0800726         4385.94         4590.55 
       0.096163         3498.23          3398.1 
       0.111083         2928.23         2805.64 
       0.126058          2428.9         2471.89 
       0.142273         2058.72         2033.81 
       0.158546         1708.22         1630.81 
        0.17375         1527.14         1421.41 
       0.188953         1413.56         1278.21 
       0.204907         1196.91         1100.89 
       0.220756         1076.63         938.143 
        0.23588         966.793         837.718 
         0.2514         867.889         760.896 
       0.267535         838.088          675.13 
       0.283568         734.674         595.919 
       0.299022         703.143         539.886 
       0.314451         713.863         494.878 
       0.330372         614.569         448.934 
       0.346141         569.455         406.617 
       0.361624         545.188         372.881 
       0.377134         512.291         344.408 
       0.392932         496.476         317.078 
       0.408854         472.206         291.531 
       0.424564         457.087         269.816 
       0.440253         414.877         250.886 
       0.455999         397.802         233.337 
       0.471626         400.298         217.257 
        0.48727         379.659         202.836 
       0.502856         349.633         189.978 
       0.518488         350.537         178.122 
       0.534347         325.924         167.005 
       0.550082         316.302         156.944 
       0.565732         314.328         147.827 
       0.581496         300.164         139.367 
       0.597222          291.83         131.552 
       0.612804         284.452         124.397 
       0.628434         273.065          117.78 
       0.644267         261.683         111.573 
       0.660051         257.251         105.827 
       0.675724         254.714          100.52 
       0.691403         247.194         95.5729 
       0.707174         238.465         90.9321 
       0.722871         234.896         86.6186 
        0.73838         232.973         82.6315 
       0.754018         220.997         78.8658 
       0.769845         220.414         75.2942 
        0.78569         215.071         71.9409 
       0.801365          209.45         68.8254 
       0.817031         204.323         65.8972 
       0.832809         201.299         63.1214 
       0.848511         196.194         60.5184 
       0.864097         191.657         58.0806 
       0.879701         190.423         55.7752 
       0.895507          185.66         53.5682 
       0.911279         180.224         51.4855 
        0.92691         177.924         49.5312 
       0.942635         175.848         47.6679 
       0.958396         172.064         45.8968 
       0.974128         168.363         44.2192 
       0.989692         163.735         42.6423 
        1.00528         162.481         41.1402 
        1.02113         158.923         39.6871 
        1.03692         156.674         38.3099 
        1.05264         154.401         37.0045 
        1.06832         152.007         35.7622 
        1.08405         148.945         34.5738 
        1.09979         148.042         33.4389 
        1.11537         144.503         32.3663 
        1.13105         142.843         31.3345 
        1.14679         140.455         30.3438 
        1.16256         138.269         29.3942 
        1.17828         136.352         28.4884 
        1.19395         132.896         27.6239 
         1.2097         132.295          26.791 
        1.22537         129.885         25.9966 
          1.241         128.436         25.2368 
        1.25666         125.136         24.5056 
        1.27241         122.666            23.8 
        1.28819         121.824         23.1211 
        1.30392         119.467         22.4706 
        1.31957         117.634         21.8482 
        1.33529         116.385         21.2471 
        1.35108         114.939         20.6663 
        1.36674         112.825         20.1113 
         1.3824         112.425         19.5774 
        1.39811         109.306          19.061 
        1.41389         108.589         18.5614 
        1.42964         106.291         18.0805 
        1.44531          105.25         17.6191 
        1.46101         103.611         17.1728 
        1.47667         102.989         16.7433 
        1.49229         101.781         16.3297 
        1.50793         99.7195         15.9296 
        1.52367         98.7784         15.5403 
        1.53953          97.217         15.1615 
        1.55526         95.9592         14.7984 
        1.57092         95.3322         14.4486 
        1.58662         93.8559         14.1094 
        1.60235         92.1571         13.7804 
        1.61809         91.4879         13.4618 
        1.63369         89.7818          13.156 
        1.64941         89.7274         12.8576 
        1.66519         87.7208         12.5674 
        1.68085         86.7102         12.2882 
        1.69652         85.0683         12.0174 
        1.71228         84.3805         11.7533 
        1.72806         83.4543         11.4969 
        1.74368         82.1332         11.2507 
        1.75933         81.3862         11.0113 
        1.77505         80.6049         10.7777 
        1.79081         79.1371         10.5504 
         1.8065         78.6881         10.3307 
        1.82218         77.0455         10.1175 
        1.83797         76.6885          9.9088 
        1.85367         75.3071         9.70716 
        1.86928         74.5742         9.51235 
        1.88497         73.8358         9.32182 
        1.90073         72.8587         9.13581 
        1.91647          71.648         8.95505 
        1.93218         70.9708         8.77956 
        1.94787         70.1126         8.60903 
        1.96363         69.1338         8.44236 
        1.97935         68.5407         8.28045 
        1.99499         67.6823          8.1237 
        2.01064         66.8757         7.97078 
         2.0264         65.7903         7.82084 
        2.04216         65.1418         7.67483 
        2.05781         64.3791         7.53347 
        2.07353         63.5765         7.39517 
        2.08928         62.7943         7.26004 
        2.10499         62.0619         7.12865 
        2.12065         61.5686          7.0009 
        2.13633         60.8886         6.87618 
        2.15211         59.9443         6.75369 
        2.16785         59.0067         6.63452 
        2.18349         58.4768         6.51898 
        2.19916         57.7176         6.40595 
        2.21489         57.1474         6.29522 
        2.23063         56.2974         6.18704 
         2.2463         55.8205         6.08188 
        2.26194         55.3546         5.97943 
        2.27765         54.4751         5.87881 
        2.29341         53.7897         5.78025 
        2.30914         53.1047         5.68415 
        2.32486         52.5058         5.59029 
        2.34061          52.156         5.49839 
        2.35635         51.2516         5.40864 
        2.37203         50.9369          5.3212 
        2.38768         50.2912         5.23588 
        2.40339         49.7313         5.15211 
        2.41914         49.1741         5.06999 
        2.43483         48.4575         4.98994 
         2.4505         48.0819         4.91176 
        2.46622         47.5759         4.83498 
        2.48195         46.9333         4.75984 
        2.49759         46.3476          4.6867 
        2.51328         46.0281          4.6149 
        2.52906         45.3752         4.54415 
        2.54479         44.9685         4.47514 
        2.56049         44.2305         4.40771 
        2.57618         43.8504         4.34172 
        2.59189         43.4573         4.27698 
        2.60758         42.8038         4.21366 
        2.62325          42.436          4.1517 
        2.63898         41.9876         4.09077 
        2.65468         41.6248         4.03119 
        2.67044         41.1655         3.97254 
        2.68618         40.7934          3.9152 
        2.70184         40.1197         3.85921 
        2.71755          39.886         3.80418 
        2.73329         39.2324         3.75013 
        2.74897         38.9985         3.69731 
        2.76462         38.4562         3.64563 
        2.78034         38.1271         3.59472 
        2.79607         37.6455         3.54472 
        2.81179         37.3029         3.49574 
        2.82749         36.8567         3.44773 
        2.84321         36.4457         3.40057 
        2.85893         36.0441         3.35431 
        2.87462         35.6064         3.30898 
        2.89033         35.3756         3.26445 
        2.90605         34.9189          3.2207 
        2.92176         34.6719         3.17778 
        2.93747         34.3341         3.13565 
        2.95318         33.9167         3.09429 
        2.96891         33.5657         3.05365 
        2.98456         33.2592         3.01391 
        3.00023         32.8262         2.97483 
        3.01596         32.5463         2.93632 
        3.03164         32.2123         2.89859 
        3.04738         31.9223         2.86142 
         3.0631         31.6562         2.82492 
        3.07883         31.2276         2.78905 
        3.09456         30.7653          2.7538 
        3.11026         30.5316         2.71922 
        3.12596         30.2435         2.68524 
        3.14163         29.9307         2.65191 
        3.15734         29.6089         2.61907 
        3.17308         29.3263         2.58671 
        3.18879         29.0375         2.55498 
        3.20447          28.742         2.52383 
         3.2202         28.4413         2.49311 
         3.2359         28.1577         2.46295 
        3.25157         27.9261         2.43335 
        3.26729         27.5819         2.40416 
        3.28304         27.2662         2.37538 
        3.29877         26.9628         2.34712 
        3.31446         26.7017         2.31937 
        3.33014         26.5158          2.2921 
        3.34585         26.2214         2.26522 
        3.36158         25.9825         2.23874 
        3.37727         25.7102         2.21276 
        3.39294          25.422         2.18721 
        3.40867         25.1851         2.16198 
        3.42439         24.9981         2.13716 
        3.44008         24.7329         2.11277 
        3.45578         24.5889         2.08875 
        3.47153         24.2366         2.06505 
        3.48724          23.962         2.04175 
        3.50292         23.7783         2.01887 
        3.51859         23.5093         1.99635 
        3.53431         23.2827         1.97411 
        3.55007         23.0434         1.95214 
        3.56577         22.8739          1.9306 
        3.58146         22.6673         1.90939 
        3.59719         22.4527         1.88846 
        3.61292         22.2285         1.86784 
        3.62859         22.0213          1.8476 
        3.64429         21.7762         1.82763 
        3.66003         21.6377         1.80789 
        3.67578         21.4366         1.78845 
        3.69146         21.2124         1.76937 
        3.70712         21.0218          1.7506 
        3.72284         20.8235         1.73203 
        3.73853         20.6407         1.71377 
        3.75422         20.3278         1.69576 
        3.76993         20.2219         1.67799 
        3.78564         20.0254         1.66049 
        3.80137         19.8663          1.6432 
        3.81707          19.702          1.6262 
        3.83279         19.5099         1.60943 
        3.84853         19.3181         1.59286 
        3.86424         19.1233         1.57656 
        3.87992         18.9242         1.56051 
        3.89561         18.8027         1.54468 
        3.91134         18.5564         1.52904 
        3.92704         18.4422         1.51364 
        3.94273          18.258         1.49846 
        3.95845         18.0941         1.48346 
        3.97418         17.8898         1.46866 
        3.98988         17.7843         1.45409 
        4.00554         17.6644         1.43975 
        4.02125         17.3983         1.42556 
        4.03698         17.2543         1.41155 
        4.05268         17.1356         1.39775 
        4.06839         16.9795         1.38412 
         4.0841         16.8035         1.37069 
        4.09983         16.6253         1.35741 
        4.11555         16.5042         1.34431 
        4.13124         16.3828         1.33142 
        4.14693         16.2434         1.31869 
        4.16266         16.1569          1.3061 
        4.17839         15.9613         1.29367 
        4.19408         15.7821         1.28144 
        4.20977         15.6766         1.26936 
        4.22551         15.5188         1.25741 
        4.24123         15.4089         1.24562 
        4.25691         15.2164         1.23401 
        4.27259         15.1463         1.22255 
        4.28831         15.0275         1.21121 
        4.30404         14.8827         1.20001 
        4.31974         14.7714         1.18897 
        4.33543         14.6355         1.17807 
        4.35116         14.4878         1.16729 
        4.36688         14.3883         1.15664 
        4.38255          14.249         1.14617 
        4.39825         14.0801          1.1358 
        4.41398         14.0192         1.12554 
         4.4297         13.8844         1.11542 
        4.44541         13.7403         1.10542 
        4.46111         13.6653         1.09556 
        4.47683         13.5007          1.0858 
        4.49251         13.4062         1.07619 
        4.50819         13.3058         1.06669 
         4.5239         13.1892          1.0573 
        4.53962         13.0946           1.048 
        4.55535         12.9714         1.03882 
        4.57106         12.8685         1.02975 
        4.58678         12.7641         1.02079 
         4.6025         12.6655         1.01194 
        4.61821         12.5519         1.00319 
        4.63391         12.4482        0.994561 
         4.6496         12.3206        0.986033 
        4.66532         12.2057        0.977592 
        4.68103         12.1378        0.969254 
        4.69673         12.0252         0.96102 
        4.71241           11.96         0.95289 
        4.72811          11.851         0.94484 
        4.74384         11.7504        0.936873 
        4.75955         11.6355         0.92901 
        4.77525         11.5553        0.921242 
        4.79096         11.4693        0.913552 
        4.80669         11.3799        0.905947 
         4.8224         11.2766        0.898436 
        4.83809         11.2091        0.891019 
        4.85379         11.1207         0.88368 
         4.8695         11.0142        0.876418 
        4.88521         10.9536        0.869241 
        4.90093         10.8622        0.862143 
        4.91663         10.7801         0.85513 
        4.93234         10.6944        0.848188 
        4.94807          10.606        0.841318 
        4.96377         10.5308        0.834537 
        4.97943         10.4579        0.827844 
        4.99514         10.3155        0.821208 
        5.01086         10.2773        0.814639 
        5.02654         10.1877        0.808159 
        5.04227         10.0768         0.80173 
          5.058         10.0433        0.795368 
        5.07371         9.95777        0.789088 
        5.08942         9.89766        0.782874 
        5.10513         9.80125        0.776726 
        5.12084         9.73981        0.770641 
        5.13656         9.67266        0.764623 
        5.15225         9.56592        0.758678 
        5.16796          9.5045        0.752787 
        5.18369         9.44639        0.746954 
         5.1994         9.35922        0.741193 
        5.21509         9.27989        0.735497 
        5.23079         9.20329        0.729855 
        5.24649         9.15208        0.724276 
        5.26217         9.06452        0.718759 
        5.27788         9.02528        0.713292 
        5.29359         8.92887         0.70788 
        5.30933         8.88541        0.702517 
        5.32504         8.81868        0.697218 
        5.34073         8.75784        0.691979 
        5.35646         8.67662        0.686784 
        5.37218         8.62505        0.681641 
        5.38789         8.54993        0.676559 
        5.40357         8.47673        0.671535 
        5.41929         8.43298         0.66655 
        5.43502         8.36973        0.661615 
         5.4507          8.2971        0.656742 
        5.46639         8.24461        0.651917 
        5.48212         8.16958        0.647129 
        5.49786          8.1169        0.642384 
        5.51353         8.06961        0.637709 
        5.52921         8.01156        0.633076 
        5.54495         7.94315        0.628476 
        5.56066         7.89327        0.623926 
        5.57637         7.82871        0.619422 
        5.59207         7.78043        0.614966 
        5.60778         7.71494        0.610553 
        5.62346          7.6642        0.606188 
        5.63916         7.61846        0.601862 
        5.65487         7.56136        0.597576 
         5.6706          7.4992        0.593327 
        5.68633          7.4478        0.589117 
        5.70203         7.38238        0.584957 
        5.71773         7.35027        0.580838 
        5.73344         7.29678        0.576756 
        5.74916         7.26598        0.572709 
        5.76486         7.19457        0.568707 
        5.78054         7.14125        0.564749 
        5.79626         7.08489        0.560817 
          5.812         7.03994        0.556919 
         5.8277          6.9997         0.55307 
        5.84339         6.95263        0.549256 
        5.85911         6.89378        0.545472 
        5.87484          6.8537        0.541723 
        5.89053          6.7934        0.538017 
        5.90623         6.74834        0.534344 
        5.92195         6.72135        0.530699 
        5.93767         6.66346         0.52709 
        5.95336         6.61634         0.52352 
        5.96905         6.57732        0.519984 
        5.98476          6.5383        0.516477 
        6.00048         6.48422           0.513 
        6.01617         6.43902         0.50956 
        6.03185         6.40052        0.506156 
        6.04756          6.3496        0.502774 
        6.06331         6.30116        0.499416 
        6.07903         6.27531        0.496096 
        6.09473         6.22332        0.492809 
        6.11044         6.19587        0.489549 
        6.12616         6.14056        0.486318 
        6.14186         6.11413         0.48312 
        6.15755         6.06008        0.479951 
        6.17326         6.03116        0.476808 
        6.18898         5.98324        0.473692 
        6.20467          5.9462        0.470608 
        6.22036         5.90745        0.467553 
         6.2361         5.86895        0.464516 
         6.2518         5.82157        0.461511 
        6.26748         5.78588         0.45854 
        6.28319         5.74972        0.455586 
        6.29893         5.71473        0.452655 
        6.31463         5.68212        0.449756 
        6.33033         5.64063        0.446882 
        6.34604         5.60541        0.444032 
        6.36177         5.56814        0.441204 
        6.37747         5.53501        0.438405 
