# k  (h/Mpc)    Pcb(k)  (Mpc/h)^3    Pcb_linear(k) (Mpc/h)^3   ShotnoiseSubtracted = true
      0.0200456         574.255         581.467 
      0.0350414         442.337         438.312 
      0.0492313         331.992         331.139 
      0.0637834         274.455         276.608 
      0.0800726          214.33         216.001 
       0.096163         161.873         159.892 
       0.111083         133.943         132.015 
       0.126058         115.631         116.311 
       0.142273         95.2657         95.6979 
       0.158546         77.1844         76.7351 
        0.17375         67.6403         66.8821 
       0.188953         60.4027         60.1441 
       0.204907         51.1376         51.8007 
       0.220756         44.4504         44.1428 
        0.23588          39.618         39.4174 
         0.2514         35.9819         35.8027 
       0.267535         32.1993         31.7671 
       0.283568         28.3862           28.04 
       0.299022         25.7973         25.4034 
       0.314451         24.0127         23.2857 
       0.330372         21.5681         21.1239 
       0.346141         19.5768         19.1327 
       0.361624          17.908         17.5453 
       0.377134         16.4704         16.2056 
       0.392932          15.615         14.9196 
       0.408854         14.0839         13.7175 
       0.424564         13.3249         12.6958 
       0.440253         12.2361         11.8051 
       0.455999         11.2342         10.9793 
       0.471626         10.4983         10.2227 
        0.48727          10.033         9.54414 
       0.502856         9.40594         8.93913 
       0.518488         8.67109         8.38124 
       0.534347         8.09882         7.85814 
       0.550082         7.74978         7.38473 
       0.565732         7.39477         6.95576 
       0.581496         6.93227         6.55768 
       0.597222          6.5298         6.18995 
       0.612804         6.15786         5.85331 
       0.628434         5.89337         5.54194 
       0.644267         5.60736         5.24987 
       0.660051          5.3156         4.97952 
       0.675724         5.01291         4.72979 
       0.691403         4.80383         4.49703 
       0.707174         4.57004         4.27866 
       0.722871         4.45423          4.0757 
        0.73838         4.15331         3.88809 
       0.754018         3.96967          3.7109 
       0.769845         3.76021         3.54284 
        0.78569         3.65675         3.38506 
       0.801365         3.49965         3.23847 
       0.817031         3.37376         3.10069 
       0.832809         3.19724         2.97007 
       0.848511         3.09549          2.8476 
       0.864097         2.98483         2.73289 
       0.879701         2.89332         2.62441 
       0.895507         2.75314         2.52056 
       0.911279         2.66396         2.42257 
        0.92691         2.58691         2.33061 
       0.942635          2.4576         2.24294 
       0.958396          2.3788          2.1596 
       0.974128         2.30619         2.08066 
       0.989692          2.2147         2.00646 
        1.00528         2.14272         1.93579 
        1.02113         2.08832         1.86741 
        1.03692          2.0269         1.80261 
        1.05264         1.93631         1.74119 
        1.06832         1.88506         1.68273 
        1.08405         1.81595         1.62681 
        1.09979         1.77302         1.57341 
        1.11537         1.71079         1.52294 
        1.13105         1.64663         1.47439 
        1.14679         1.60784         1.42778 
        1.16256         1.55694         1.38309 
        1.17828         1.52631         1.34047 
        1.19395         1.47257          1.2998 
         1.2097         1.42774         1.26061 
        1.22537         1.37996         1.22323 
          1.241          1.3487         1.18748 
        1.25666         1.32332         1.15307 
        1.27241         1.28257         1.11987 
        1.28819         1.23725         1.08792 
        1.30392         1.20798         1.05732 
        1.31957         1.18137         1.02803 
        1.33529         1.13775        0.999747 
        1.35108         1.11363        0.972418 
        1.36674         1.08137        0.946307 
         1.3824         1.06602        0.921181 
        1.39811         1.03363        0.896886 
        1.41389         1.00751        0.873375 
        1.42964        0.982153        0.850749 
        1.44531        0.960967        0.829036 
        1.46101        0.931474        0.808036 
        1.47667        0.915303        0.787828 
        1.49229        0.884629        0.768366 
        1.50793        0.867711        0.749541 
        1.52367        0.843991        0.731226 
        1.53953        0.824837        0.713401 
        1.55526        0.812445        0.696314 
        1.57092        0.799279        0.679858 
        1.58662        0.782964        0.663895 
        1.60235         0.75934        0.648415 
        1.61809        0.742037        0.633422 
        1.63369         0.72097        0.619036 
        1.64941         0.71034        0.604995 
        1.66519        0.698167        0.591339 
        1.68085        0.678758        0.578202 
        1.69652        0.664741        0.565461 
        1.71228         0.64989        0.553032 
        1.72806        0.637416        0.540967 
        1.74368        0.625379        0.529384 
        1.75933        0.613574        0.518117 
        1.77505        0.603171        0.507125 
        1.79081        0.584192        0.496433 
         1.8065        0.578828        0.486096 
        1.82218        0.562758        0.476062 
        1.83797        0.548459        0.466243 
        1.85367        0.543548        0.456755 
        1.86928        0.532175        0.447588 
        1.88497        0.518438        0.438623 
        1.90073        0.512682        0.429871 
        1.91647        0.500447        0.421365 
        1.93218        0.492371        0.413108 
        1.94787        0.482719        0.405084 
        1.96363        0.474784        0.397242 
        1.97935        0.464841        0.389623 
        1.99499        0.456668        0.382248 
        2.01064         0.44926        0.375052 
         2.0264        0.437701        0.367997 
        2.04216        0.430987        0.361127 
        2.05781        0.425189        0.354475 
        2.07353        0.416972        0.347968 
        2.08928        0.410515         0.34161 
        2.10499        0.401723        0.335427 
        2.12065        0.395348        0.329416 
        2.13633        0.389128        0.323547 
        2.15211        0.381358        0.317784 
        2.16785        0.375831        0.312177 
        2.18349        0.370201         0.30674 
        2.19916        0.362592        0.301422 
        2.21489        0.356127        0.296211 
        2.23063        0.349781        0.291121 
         2.2463         0.34522        0.286173 
        2.26194          0.3406        0.281352 
        2.27765        0.333526        0.276618 
        2.29341        0.328822         0.27198 
        2.30914        0.321908        0.267459 
        2.32486        0.317363        0.263042 
        2.34061        0.311792        0.258718 
        2.35635        0.307496        0.254495 
        2.37203         0.30494        0.250381 
        2.38768        0.298591        0.246366 
        2.40339        0.293682        0.242424 
        2.41914        0.289843         0.23856 
        2.43483        0.284526        0.234794 
         2.4505        0.280384        0.231115 
        2.46622        0.276629        0.227502 
        2.48195        0.271368        0.223967 
        2.49759        0.270195        0.220525 
        2.51328        0.263325        0.217147 
        2.52906        0.259358        0.213818 
        2.54479        0.255958        0.210571 
        2.56049        0.251449        0.207398 
        2.57618        0.249736        0.204293 
        2.59189        0.244483        0.201246 
        2.60758        0.242406        0.198267 
        2.62325        0.238602        0.195352 
        2.63898        0.236072        0.192485 
        2.65468        0.230639        0.189681 
        2.67044        0.228174        0.186922 
        2.68618        0.225118        0.184223 
        2.70184         0.22214        0.181589 
        2.71755        0.218171        0.178999 
        2.73329        0.216928        0.176456 
        2.74897        0.212305        0.173971 
        2.76462        0.210357        0.171539 
        2.78034         0.20673        0.169144 
        2.79607        0.204929        0.166791 
        2.81179        0.200566        0.164486 
        2.82749        0.199006        0.162227 
        2.84321         0.19686        0.160008 
        2.85893        0.193487        0.157831 
        2.87462         0.19086        0.155699 
        2.89033         0.18819        0.153604 
        2.90605        0.186339        0.151545 
        2.92176        0.184723        0.149525 
        2.93747        0.181261        0.147543 
        2.95318        0.179387        0.145597 
        2.96891        0.177198        0.143684 
        2.98456        0.175629        0.141815 
        3.00023        0.172705        0.139976 
        3.01596        0.170394        0.138164 
        3.03164        0.168317        0.136389 
        3.04738        0.166758         0.13464 
         3.0631        0.164757        0.132922 
        3.07883        0.162576        0.131234 
        3.09456        0.160706        0.129576 
        3.11026        0.158103        0.127949 
        3.12596        0.156227        0.126349 
        3.14163        0.154989        0.124781 
        3.15734        0.153408        0.123236 
        3.17308        0.151198        0.121714 
        3.18879        0.149478        0.120221 
        3.20447        0.147571        0.118755 
         3.2202        0.146316        0.117309 
         3.2359        0.144317         0.11589 
        3.25157        0.142481        0.114498 
        3.26729         0.14125        0.113124 
        3.28304        0.139823         0.11177 
        3.29877        0.137835         0.11044 
        3.31446        0.136842        0.109134 
        3.33014        0.135313        0.107851 
        3.34585        0.133228        0.106586 
        3.36158        0.132049         0.10534 
        3.37727        0.131076        0.104118 
        3.39294         0.12974        0.102916 
        3.40867        0.128007        0.101728 
        3.42439        0.127022        0.100561 
        3.44008        0.125793       0.0994131 
        3.45578        0.124225       0.0982828 
        3.47153        0.123318       0.0971675 
        3.48724        0.122112       0.0960714 
        3.50292        0.121104       0.0949948 
        3.51859        0.119521       0.0939352 
        3.53431        0.118281       0.0928884 
        3.55007        0.117163        0.091855 
        3.56577        0.116417       0.0908414 
        3.58146        0.115106       0.0898435 
        3.59719        0.113792       0.0888582 
        3.61292        0.112908       0.0878881 
        3.62859        0.112051        0.086936 
        3.64429        0.110472       0.0859962 
        3.66003        0.110085       0.0850675 
        3.67578        0.108874       0.0841527 
        3.69146        0.107938       0.0832549 
        3.70712        0.106932       0.0823717 
        3.72284        0.106168       0.0814981 
        3.73853        0.105179       0.0806387 
        3.75422        0.104154       0.0797912 
        3.76993        0.103255       0.0789553 
        3.78564        0.102579       0.0781316 
        3.80137        0.101887       0.0773183 
        3.81707        0.100317       0.0765183 
        3.83279       0.0997435        0.075729 
        3.84853       0.0990208       0.0749495 
        3.86424       0.0982073       0.0741824 
        3.87992       0.0973685       0.0734273 
        3.89561       0.0966201       0.0726825 
        3.91134        0.095656       0.0719466 
        3.92704       0.0947959       0.0712217 
        3.94273       0.0940607       0.0705075 
        3.95845        0.093049       0.0698018 
        3.97418       0.0924291       0.0691055 
        3.98988       0.0911146       0.0684197 
        4.00554       0.0907007       0.0677451 
        4.02125       0.0898207       0.0670775 
        4.03698       0.0884419        0.066418 
        4.05268       0.0878451       0.0657688 
        4.06839       0.0866009       0.0651278 
         4.0841        0.085476       0.0644955 
        4.09983       0.0845622       0.0638707 
        4.11555       0.0834819       0.0632544 
        4.13124       0.0824759       0.0626479 
        4.14693       0.0816044       0.0620489 
        4.16266       0.0805441       0.0614563 
        4.17839       0.0797059       0.0608717 
        4.19408       0.0789014       0.0602961 
        4.20977       0.0780116       0.0597277 
        4.22551       0.0773251       0.0591652 
        4.24123       0.0764007       0.0586106 
        4.25691       0.0757757       0.0580645 
        4.27259       0.0749754       0.0575252 
        4.28831       0.0746108       0.0569917 
        4.30404         0.07343       0.0564644 
        4.31974       0.0730444        0.055945 
        4.33543       0.0724406       0.0554323 
        4.35116       0.0720192       0.0549248 
        4.36688       0.0712683       0.0544239 
        4.38255       0.0708493       0.0539311 
        4.39825       0.0704031       0.0534433 
        4.41398       0.0697887       0.0529605 
         4.4297       0.0694331       0.0524842 
        4.44541       0.0689943       0.0520139 
        4.46111       0.0684404       0.0515496 
        4.47683       0.0680907       0.0510907 
        4.49251        0.067887       0.0506383 
        4.50819        0.067474       0.0501915 
         4.5239        0.067163       0.0497494 
        4.53962       0.0668258       0.0493121 
        4.55535       0.0668661       0.0488798 
        4.57106       0.0664126       0.0484533 
        4.58678       0.0662739       0.0480318 
         4.6025       0.0659957       0.0476153 
        4.61821       0.0659704       0.0472037 
        4.63391       0.0657703       0.0467975 
         4.6496       0.0656569       0.0463962 
        4.66532       0.0656822        0.045999 
        4.68103       0.0656782       0.0456067 
        4.69673       0.0653823       0.0452192 
        4.71241       0.0657517       0.0448367 
        4.72811        0.065473       0.0444579 
        4.74384          0.0654       0.0440831 
        4.75955       0.0654891       0.0437131 
        4.77525       0.0657254       0.0433475 
        4.79096       0.0657666       0.0429857 
        4.80669       0.0656774       0.0426279 
         4.8224       0.0660197       0.0422745 
        4.83809       0.0660541       0.0419254 
        4.85379       0.0662432       0.0415801 
         4.8695       0.0666322       0.0412384 
        4.88521       0.0667828       0.0409007 
        4.90093       0.0671927       0.0405667 
        4.91663         0.06738       0.0402368 
        4.93234        0.067488       0.0399101 
        4.94807       0.0678443       0.0395868 
        4.96377       0.0682945       0.0392678 
        4.97943       0.0688635       0.0389529 
        4.99514        0.069249       0.0386406 
        5.01086       0.0695346       0.0383315 
        5.02654       0.0701629       0.0380266 
        5.04227       0.0706001       0.0377241 
          5.058       0.0709551       0.0374248 
        5.07371       0.0715364       0.0371292 
        5.08942       0.0722501       0.0368369 
        5.10513       0.0728979       0.0365476 
        5.12084       0.0734223       0.0362613 
        5.13656       0.0740568       0.0359781 
        5.15225       0.0749443       0.0356984 
        5.16796       0.0756129       0.0354212 
        5.18369       0.0762121       0.0351467 
         5.1994       0.0769807       0.0348756 
        5.21509       0.0778218       0.0346076 
        5.23079       0.0786052       0.0343421 
        5.24649       0.0796725       0.0340796 
        5.26217       0.0803962         0.03382 
        5.27788       0.0815395       0.0335628 
        5.29359       0.0823759       0.0333082 
        5.30933       0.0832999       0.0330558 
        5.32504       0.0843933       0.0328065 
        5.34073       0.0851213         0.03256 
        5.35646       0.0864371       0.0323155 
        5.37218       0.0876625       0.0320735 
        5.38789       0.0888003       0.0318344 
        5.40357       0.0899461        0.031598 
        5.41929         0.09113       0.0313634 
        5.43502       0.0925856       0.0311312 
         5.4507       0.0940161       0.0309019 
        5.46639       0.0950573       0.0306749 
        5.48212       0.0963523       0.0304496 
        5.49786          0.0982       0.0302263 
        5.51353       0.0999974       0.0300064 
        5.52921        0.100776       0.0297884 
        5.54495        0.103005       0.0295719 
        5.56066        0.104229       0.0293578 
        5.57637        0.106153       0.0291459 
        5.59207        0.107106       0.0289363 
        5.60778        0.108968       0.0287286 
        5.62346        0.110676       0.0285232 
        5.63916        0.112784       0.0283197 
        5.65487        0.114944        0.028118 
         5.6706        0.115976       0.0279181 
        5.68633        0.118507         0.02772 
        5.70203        0.120495       0.0275242 
        5.71773        0.122773       0.0273304 
        5.73344         0.12494       0.0271383 
        5.74916        0.127549       0.0269479 
        5.76486         0.12957       0.0267596 
        5.78054        0.131554       0.0265733 
        5.79626        0.134204       0.0263884 
          5.812        0.135894       0.0262049 
         5.8277        0.138589       0.0260238 
        5.84339        0.141037       0.0258444 
        5.85911        0.143271       0.0256663 
        5.87484        0.145549       0.0254899 
        5.89053        0.148164       0.0253155 
        5.90623        0.152208       0.0251427 
        5.92195        0.153853       0.0249712 
        5.93767        0.156491       0.0248014 
        5.95336        0.159211       0.0246334 
        5.96905        0.163398        0.024467 
        5.98476         0.16508        0.024302 
        6.00048        0.168394       0.0241384 
        6.01617          0.1715       0.0239765 
        6.03185        0.174455       0.0238163 
        6.04756        0.176516       0.0236572 
        6.06331        0.181644       0.0234992 
        6.07903        0.184453        0.023343 
        6.09473        0.186962       0.0231883 
        6.11044        0.191999       0.0230349 
        6.12616        0.193639       0.0228829 
        6.14186        0.197711       0.0227325 
        6.15755        0.200973       0.0225833 
        6.17326          0.2052       0.0224354 
        6.18898        0.208282       0.0222888 
        6.20467        0.211726       0.0221437 
        6.22036        0.214944       0.0219999 
         6.2361        0.218294       0.0218571 
         6.2518        0.223958       0.0217157 
        6.26748        0.227829       0.0215758 
        6.28319        0.232036       0.0214369 
        6.29893        0.236237        0.021299 
        6.31463        0.239936       0.0211625 
        6.33033        0.242843       0.0210273 
        6.34604        0.248193       0.0208932 
        6.36177        0.250594       0.0207601 
        6.37747        0.256823       0.0206285 
