# k  (h/Mpc)    Pcb(k)  (Mpc/h)^3    Pcb_linear(k) (Mpc/h)^3   ShotnoiseSubtracted = true
      0.0200456         399.671         404.702 
      0.0350414         307.576         305.066 
      0.0492313         231.118         230.473 
      0.0637834         191.258          192.52 
      0.0800726         149.377         150.337 
       0.096163         112.537         111.285 
       0.111083         93.0497         91.8826 
       0.126058         80.5166         80.9525 
       0.142273         66.3272         66.6059 
       0.158546         53.6625         53.4078 
        0.17375         46.9707         46.5501 
       0.188953         41.9473         41.8604 
       0.204907         35.6057         36.0534 
       0.220756         30.8567         30.7235 
        0.23588         27.5014         27.4346 
         0.2514         24.9782         24.9188 
       0.267535         22.2992           22.11 
       0.283568         19.6674         19.5159 
       0.299022         17.8441         17.6809 
       0.314451         16.5673         16.2069 
       0.330372         14.9053         14.7023 
       0.346141         13.5199         13.3164 
       0.361624         12.3624         12.2116 
       0.377134         11.3757         11.2791 
       0.392932         10.7386         10.3841 
       0.408854         9.69626         9.54743 
       0.424564         9.14073         8.83628 
       0.440253         8.40919         8.21634 
       0.455999         7.73563         7.64162 
       0.471626         7.21789         7.11501 
        0.48727          6.8697         6.64275 
       0.502856         6.44057         6.22165 
       0.518488          5.9423         5.83336 
       0.534347         5.54805         5.46928 
       0.550082         5.29938         5.13979 
       0.565732         5.04963         4.84122 
       0.581496         4.72721         4.56416 
       0.597222         4.45506         4.30822 
       0.612804         4.20229         4.07391 
       0.628434         4.00325          3.8572 
       0.644267         3.81101         3.65392 
       0.660051         3.61441         3.46576 
       0.675724         3.40763         3.29194 
       0.691403         3.25502         3.12994 
       0.707174         3.09663         2.97796 
       0.722871         3.01265         2.83669 
        0.73838         2.81183         2.70612 
       0.754018         2.68628          2.5828 
       0.769845         2.54266         2.46583 
        0.78569         2.46706         2.35601 
       0.801365         2.36327         2.25398 
       0.817031         2.27375         2.15809 
       0.832809         2.15657         2.06718 
       0.848511         2.08235         1.98193 
       0.864097         2.00838          1.9021 
       0.879701         1.94308          1.8266 
       0.895507         1.84471         1.75432 
       0.911279          1.7872         1.68611 
        0.92691         1.73487         1.62211 
       0.942635         1.64539         1.56109 
       0.958396         1.59212         1.50309 
       0.974128          1.5399         1.44815 
       0.989692         1.48217          1.3965 
        1.00528         1.42719         1.34731 
        1.02113         1.39257         1.29972 
        1.03692         1.34969         1.25462 
        1.05264         1.28966         1.21187 
        1.06832         1.25366         1.17119 
        1.08405         1.20532         1.13227 
        1.09979         1.17557          1.0951 
        1.11537         1.13192         1.05997 
        1.13105         1.08925         1.02618 
        1.14679         1.06427        0.993737 
        1.16256          1.0319        0.962637 
        1.17828         1.00685        0.932973 
        1.19395        0.973557        0.904663 
         1.2097        0.942206        0.877386 
        1.22537        0.910693        0.851369 
          1.241        0.888052        0.826488 
        1.25666        0.870158        0.802541 
        1.27241        0.841336        0.779433 
        1.28819        0.813434        0.757198 
        1.30392        0.794324        0.735897 
        1.31957        0.773304        0.715512 
        1.33529        0.748644        0.695826 
        1.35108          0.7297        0.676805 
        1.36674        0.708765        0.658632 
         1.3824         0.69652        0.641144 
        1.39811        0.674586        0.624234 
        1.41389        0.658627        0.607871 
        1.42964        0.641369        0.592123 
        1.44531        0.625234        0.577011 
        1.46101        0.606357        0.562395 
        1.47667        0.594781         0.54833 
        1.49229        0.576192        0.534784 
        1.50793        0.565394        0.521682 
        1.52367        0.548593        0.508935 
        1.53953        0.535881        0.496529 
        1.55526        0.525594        0.484636 
        1.57092        0.517517        0.473183 
        1.58662        0.505026        0.462073 
        1.60235        0.491719        0.451298 
        1.61809        0.478689        0.440863 
        1.63369        0.466037         0.43085 
        1.64941         0.45822        0.421078 
        1.66519        0.449729        0.411573 
        1.68085        0.436707         0.40243 
        1.69652        0.427682        0.393562 
        1.71228        0.417899        0.384912 
        1.72806         0.41002        0.376515 
        1.74368        0.401301        0.368452 
        1.75933        0.393408        0.360611 
        1.77505        0.386371         0.35296 
        1.79081        0.374632        0.345519 
         1.8065        0.370223        0.338324 
        1.82218         0.35977         0.33134 
        1.83797        0.350524        0.324506 
        1.85367        0.346658        0.317902 
        1.86928        0.338785        0.311522 
        1.88497        0.330546        0.305283 
        1.90073        0.325466        0.299191 
        1.91647        0.319312        0.293271 
        1.93218        0.313893        0.287524 
        1.94787        0.306466         0.28194 
        1.96363         0.30097        0.276481 
        1.97935        0.294829        0.271179 
        1.99499        0.289085        0.266045 
        2.01064        0.284267        0.261037 
         2.0264        0.277952        0.256127 
        2.04216        0.272103        0.251345 
        2.05781        0.268282        0.246716 
        2.07353        0.263488        0.242186 
        2.08928        0.259307        0.237761 
        2.10499        0.253112        0.233458 
        2.12065        0.249038        0.229274 
        2.13633        0.244912         0.22519 
        2.15211        0.240497        0.221178 
        2.16785        0.235988        0.217276 
        2.18349        0.232463        0.213492 
        2.19916        0.227178         0.20979 
        2.21489        0.223216        0.206164 
        2.23063        0.219289        0.202621 
         2.2463        0.216297        0.199177 
        2.26194         0.21302        0.195822 
        2.27765        0.208513        0.192527 
        2.29341        0.205281        0.189299 
        2.30914        0.201054        0.186152 
        2.32486        0.197889        0.183078 
        2.34061        0.194677        0.180068 
        2.35635        0.191561        0.177129 
        2.37203        0.190142        0.174265 
        2.38768        0.185614        0.171471 
        2.40339        0.182714        0.168728 
        2.41914        0.179814        0.166038 
        2.43483        0.176843        0.163417 
         2.4505        0.173816        0.160857 
        2.46622        0.171325        0.158342 
        2.48195        0.168473        0.155881 
        2.49759        0.166693        0.153486 
        2.51328        0.162276        0.151134 
        2.52906         0.16046        0.148818 
        2.54479        0.158087        0.146558 
        2.56049         0.15507        0.144349 
        2.57618        0.153987        0.142188 
        2.59189        0.150716        0.140068 
        2.60758        0.149149        0.137994 
        2.62325        0.146422        0.135965 
        2.63898        0.144986         0.13397 
        2.65468        0.141745        0.132019 
        2.67044        0.140011        0.130098 
        2.68618        0.137912         0.12822 
        2.70184        0.136372        0.126386 
        2.71755        0.133727        0.124584 
        2.73329        0.132324        0.122814 
        2.74897        0.130143        0.121084 
        2.76462         0.12818        0.119392 
        2.78034        0.126263        0.117724 
        2.79607        0.125018        0.116087 
        2.81179        0.122376        0.114483 
        2.82749        0.121225        0.112911 
        2.84321        0.119609        0.111366 
        2.85893        0.117472        0.109851 
        2.87462        0.116342        0.108367 
        2.89033         0.11423        0.106908 
        2.90605        0.113093        0.105476 
        2.92176        0.111793         0.10407 
        2.93747         0.10986         0.10269 
        2.95318        0.108736        0.101336 
        2.96891        0.107215        0.100005 
        2.98456        0.105964       0.0987034 
        3.00023        0.104527       0.0974235 
        3.01596        0.102697       0.0961622 
        3.03164        0.101388       0.0949268 
        3.04738        0.100402       0.0937095 
         3.0631       0.0989058        0.092514 
        3.07883         0.09768       0.0913392 
        3.09456       0.0965645        0.090185 
        3.11026       0.0949736       0.0890525 
        3.12596       0.0940803       0.0879395 
        3.14163       0.0928236       0.0868481 
        3.15734       0.0919777       0.0857727 
        3.17308       0.0905312       0.0847129 
        3.18879       0.0895022       0.0836738 
        3.20447       0.0882415       0.0826537 
         3.2202        0.087339       0.0816474 
         3.2359       0.0862777       0.0806597 
        3.25157       0.0853147       0.0796906 
        3.26729       0.0841734       0.0787344 
        3.28304        0.083428       0.0777921 
        3.29877       0.0821092       0.0768664 
        3.31446       0.0812787       0.0759578 
        3.33014       0.0805698       0.0750646 
        3.34585       0.0792657       0.0741844 
        3.36158        0.078443        0.073317 
        3.37727       0.0776196       0.0724662 
        3.39294       0.0769359       0.0716296 
        3.40867       0.0759726       0.0708033 
        3.42439       0.0752165       0.0699903 
        3.44008       0.0744994       0.0691918 
        3.45578       0.0736585        0.068405 
        3.47153       0.0729649       0.0676288 
        3.48724        0.072104       0.0668659 
        3.50292       0.0714912       0.0661166 
        3.51859       0.0705983       0.0653791 
        3.53431       0.0698337       0.0646505 
        3.55007       0.0691802       0.0639313 
        3.56577       0.0684651       0.0632258 
        3.58146       0.0678022       0.0625313 
        3.59719       0.0669602       0.0618455 
        3.61292       0.0663154       0.0611703 
        3.62859       0.0657283       0.0605077 
        3.64429       0.0649933       0.0598536 
        3.66003       0.0646973       0.0592072 
        3.67578       0.0639686       0.0585705 
        3.69146         0.06336       0.0579456 
        3.70712       0.0627409       0.0573309 
        3.72284       0.0619921       0.0567229 
        3.73853       0.0617065       0.0561247 
        3.75422       0.0609305       0.0555349 
        3.76993       0.0604541       0.0549531 
        3.78564        0.060028       0.0543798 
        3.80137       0.0595043       0.0538137 
        3.81707       0.0586604       0.0532569 
        3.83279       0.0582196       0.0527075 
        3.84853       0.0577623        0.052165 
        3.86424       0.0574367       0.0516311 
        3.87992       0.0568458       0.0511055 
        3.89561       0.0561816       0.0505872 
        3.91134       0.0557218        0.050075 
        3.92704       0.0551786       0.0495705 
        3.94273       0.0547145       0.0490734 
        3.95845       0.0542573       0.0485822 
        3.97418       0.0536792       0.0480976 
        3.98988        0.053016       0.0476203 
        4.00554        0.052664       0.0471507 
        4.02125       0.0522113       0.0466861 
        4.03698       0.0514309       0.0462271 
        4.05268       0.0511024       0.0457752 
        4.06839       0.0502959       0.0453291 
         4.0841       0.0495363        0.044889 
        4.09983       0.0489549       0.0444541 
        4.11555        0.048366       0.0440252 
        4.13124       0.0477818       0.0436031 
        4.14693        0.047264       0.0431862 
        4.16266       0.0464778       0.0427737 
        4.17839       0.0460879       0.0423669 
        4.19408       0.0455233       0.0419662 
        4.20977       0.0450934       0.0415706 
        4.22551       0.0445756       0.0411791 
        4.24123       0.0440808       0.0407931 
        4.25691       0.0436794        0.040413 
        4.27259       0.0432829       0.0400377 
        4.28831       0.0429778       0.0396664 
        4.30404       0.0424962       0.0392994 
        4.31974       0.0420741       0.0389378 
        4.33543       0.0417602        0.038581 
        4.35116       0.0414658       0.0382278 
        4.36688       0.0410557       0.0378792 
        4.38255       0.0407494       0.0375361 
        4.39825       0.0405512       0.0371966 
        4.41398       0.0402218       0.0368606 
         4.4297       0.0400235       0.0365291 
        4.44541       0.0397359       0.0362018 
        4.46111       0.0394431       0.0358787 
        4.47683       0.0392997       0.0355593 
        4.49251       0.0391918       0.0352444 
        4.50819       0.0389468       0.0349334 
         4.5239       0.0387405       0.0346257 
        4.53962       0.0387731       0.0343213 
        4.55535       0.0386375       0.0340205 
        4.57106       0.0384443       0.0337236 
        4.58678       0.0384389       0.0334303 
         4.6025       0.0382138       0.0331403 
        4.61821       0.0382948       0.0328539 
        4.63391       0.0382001       0.0325712 
         4.6496       0.0380958       0.0322919 
        4.66532       0.0381512       0.0320154 
        4.68103       0.0382362       0.0317423 
        4.69673       0.0381708       0.0314727 
        4.71241       0.0382591       0.0312064 
        4.72811       0.0381786       0.0309428 
        4.74384       0.0382378       0.0306819 
        4.75955       0.0383881       0.0304244 
        4.77525       0.0384848         0.03017 
        4.79096        0.038587       0.0299182 
        4.80669       0.0387127       0.0296691 
         4.8224       0.0388465       0.0294231 
        4.83809        0.038858       0.0291802 
        4.85379       0.0392136       0.0289399 
         4.8695       0.0393242       0.0287021 
        4.88521       0.0395665        0.028467 
        4.90093       0.0397994       0.0282345 
        4.91663        0.040174       0.0280049 
        4.93234        0.040092       0.0277775 
        4.94807       0.0406065       0.0275525 
        4.96377       0.0407723       0.0273305 
        4.97943       0.0411971       0.0271113 
        4.99514       0.0414497        0.026894 
        5.01086       0.0417712       0.0266788 
        5.02654        0.042093       0.0264666 
        5.04227       0.0425309       0.0262561 
          5.058       0.0429291       0.0260477 
        5.07371       0.0431322        0.025842 
        5.08942       0.0437024       0.0256385 
        5.10513       0.0440367       0.0254372 
        5.12084        0.044664       0.0252379 
        5.13656       0.0452303       0.0250408 
        5.15225         0.04558       0.0248462 
        5.16796       0.0462625       0.0246532 
        5.18369       0.0467268       0.0244622 
         5.1994       0.0472614       0.0242735 
        5.21509       0.0479952        0.024087 
        5.23079       0.0484248       0.0239022 
        5.24649         0.04919       0.0237195 
        5.26217       0.0496612       0.0235388 
        5.27788       0.0507031       0.0233598 
        5.29359       0.0512828       0.0231826 
        5.30933       0.0519982       0.0230069 
        5.32504       0.0526684       0.0228334 
        5.34073       0.0532925       0.0226618 
        5.35646       0.0541403       0.0224917 
        5.37218       0.0552391       0.0223233 
        5.38789       0.0559654       0.0221568 
        5.40357       0.0569334       0.0219923 
        5.41929       0.0579913        0.021829 
        5.43502       0.0588425       0.0216674 
         5.4507       0.0597948       0.0215078 
        5.46639       0.0604534       0.0213498 
        5.48212       0.0615566        0.021193 
        5.49786       0.0632289       0.0210376 
        5.51353       0.0642381       0.0208845 
        5.52921        0.064957       0.0207328 
        5.54495       0.0661289       0.0205821 
        5.56066       0.0675737       0.0204331 
        5.57637       0.0689223       0.0202856 
        5.59207       0.0697767       0.0201397 
        5.60778       0.0709089       0.0199952 
        5.62346       0.0722627       0.0198522 
        5.63916       0.0740223       0.0197106 
        5.65487       0.0753991       0.0195702 
         5.6706       0.0764118        0.019431 
        5.68633       0.0778234       0.0192932 
        5.70203       0.0795221       0.0191569 
        5.71773       0.0814476        0.019022 
        5.73344       0.0833869       0.0188883 
        5.74916        0.084916       0.0187558 
        5.76486       0.0867016       0.0186247 
        5.78054       0.0887402       0.0184951 
        5.79626       0.0899089       0.0183664 
          5.812       0.0922259       0.0182387 
         5.8277       0.0936622       0.0181126 
        5.84339        0.095826       0.0179877 
        5.85911       0.0975104       0.0178638 
        5.87484       0.0994335        0.017741 
        5.89053        0.102228       0.0176197 
        5.90623        0.104231       0.0174994 
        5.92195        0.106267         0.01738 
        5.93767        0.108424       0.0172618 
        5.95336        0.110475       0.0171449 
        5.96905        0.113723       0.0170291 
        5.98476         0.11533       0.0169142 
        6.00048        0.118023       0.0168004 
        6.01617        0.121092       0.0166877 
        6.03185        0.123155       0.0165762 
        6.04756        0.125549       0.0164655 
        6.06331        0.129064       0.0163555 
        6.07903        0.131094       0.0162468 
        6.09473        0.133571       0.0161391 
        6.11044        0.137503       0.0160324 
        6.12616        0.140551       0.0159266 
        6.14186        0.142786       0.0158218 
        6.15755        0.146408       0.0157181 
        6.17326        0.149541       0.0156151 
        6.18898        0.153786       0.0155131 
        6.20467         0.15576       0.0154121 
        6.22036        0.160253        0.015312 
         6.2361        0.162281       0.0152126 
         6.2518        0.167929       0.0151142 
        6.26748         0.17039       0.0150168 
        6.28319        0.173974       0.0149201 
        6.29893        0.178863       0.0148241 
        6.31463        0.182547       0.0147292 
        6.33033        0.185031       0.0146351 
        6.34604        0.190373       0.0145417 
        6.36177         0.19439       0.0144491 
        6.37747        0.198115       0.0143575 
