# k  (h/Mpc)    Pcb(k)  (Mpc/h)^3    Pcb_linear(k) (Mpc/h)^3   ShotnoiseSubtracted = true
      0.0200456         15117.6         15355.6 
      0.0350414           11881         11575.1 
      0.0492313         8592.72         8744.82 
      0.0637834         6971.97         7304.75 
      0.0800726         5413.09         5704.22 
       0.096163         4349.45         4222.48 
       0.111083         3641.35         3486.29 
       0.126058         3010.48         3071.57 
       0.142273         2568.34         2527.22 
       0.158546         2130.67         2026.44 
        0.17375         1913.02         1766.24 
       0.188953         1784.69          1588.3 
       0.204907         1518.19         1367.97 
       0.220756         1368.13         1165.74 
        0.23588         1229.24         1040.95 
         0.2514         1106.09          945.49 
       0.267535         1069.35         838.917 
       0.283568         942.516         740.489 
       0.299022         902.775         670.862 
       0.314451         927.307         614.936 
       0.330372         803.536         557.845 
       0.346141         742.199         505.263 
       0.361624         712.015         463.342 
       0.377134         675.107         427.961 
       0.392932         651.311         394.001 
       0.408854         620.401         362.256 
       0.424564         603.448         335.274 
       0.440253         551.969         311.751 
       0.455999         528.891         289.945 
       0.471626         536.601         269.964 
        0.48727         507.588         252.045 
       0.502856         473.107         236.067 
       0.518488         470.586         221.334 
       0.534347         440.791          207.52 
       0.550082         424.527         195.018 
       0.565732         421.242          183.69 
       0.581496         408.714         173.177 
       0.597222         396.955         163.466 
       0.612804         388.073         154.576 
       0.628434         371.927         146.353 
       0.644267         357.897          138.64 
       0.660051          352.66         131.501 
       0.675724         347.578         124.906 
       0.691403         338.434         118.759 
       0.707174         325.638         112.992 
       0.722871         320.337         107.632 
        0.73838         317.049         102.678 
       0.754018         304.174         97.9987 
       0.769845         302.288         93.5605 
        0.78569         295.676         89.3938 
       0.801365         287.467         85.5225 
       0.817031         282.352         81.8839 
       0.832809         278.096         78.4346 
       0.848511         270.836         75.2002 
       0.864097         264.463          72.171 
       0.879701         262.615         69.3063 
       0.895507         255.477         66.5638 
       0.911279         248.724         63.9759 
        0.92691         246.377         61.5475 
       0.942635         244.604         59.2321 
       0.958396         237.813         57.0314 
       0.974128         233.877         54.9468 
       0.989692         225.789         52.9873 
        1.00528         225.126         51.1208 
        1.02113         221.511         49.3152 
        1.03692         216.343         47.6039 
        1.05264         213.039         45.9818 
        1.06832         212.344         44.4381 
        1.08405         206.272         42.9614 
        1.09979         204.991         41.5512 
        1.11537         200.208         40.2184 
        1.13105         196.948         38.9362 
        1.14679         194.847         37.7052 
        1.16256         192.187         36.5252 
        1.17828          189.65         35.3997 
        1.19395         184.377         34.3255 
         1.2097         183.747         33.2905 
        1.22537         182.225         32.3034 
          1.241         177.846         31.3593 
        1.25666         175.091         30.4507 
        1.27241         171.356         29.5739 
        1.28819         169.691         28.7302 
        1.30392           166.9          27.922 
        1.31957         163.132         27.1486 
        1.33529         161.485         26.4016 
        1.35108         159.257         25.6799 
        1.36674          156.78         24.9904 
         1.3824         155.479         24.3268 
        1.39811         151.945         23.6852 
        1.41389         149.999         23.0644 
        1.42964         147.721         22.4668 
        1.44531         146.054         21.8934 
        1.46101         143.081         21.3389 
        1.47667         142.433         20.8052 
        1.49229         140.035         20.2912 
        1.50793         137.597         19.7941 
        1.52367          136.03         19.3104 
        1.53953          133.35         18.8397 
        1.55526         132.853         18.3885 
        1.57092         130.847         17.9539 
        1.58662         128.156         17.5323 
        1.60235         126.547         17.1235 
        1.61809         124.883         16.7276 
        1.63369         123.214         16.3477 
        1.64941         122.403         15.9769 
        1.66519           120.1         15.6163 
        1.68085         118.176         15.2693 
        1.69652         117.033         14.9329 
        1.71228         115.971         14.6046 
        1.72806         114.124          14.286 
        1.74368         112.408         13.9801 
        1.75933         111.413         13.6826 
        1.77505         109.204         13.3923 
        1.79081         108.141           13.11 
         1.8065         106.115          12.837 
        1.82218         104.881          12.572 
        1.83797         104.507         12.3127 
        1.85367         102.322         12.0621 
        1.86928         101.867           11.82 
        1.88497         100.131         11.5833 
        1.90073         99.2285         11.3522 
        1.91647         97.4069         11.1275 
        1.93218           96.18         10.9095 
        1.94787         94.9054         10.6976 
        1.96363         94.0524         10.4905 
        1.97935         92.9533         10.2893 
        1.99499         91.9508         10.0945 
        2.01064         89.9839          9.9045 
         2.0264         89.2941         9.71818 
        2.04216         87.6501         9.53675 
        2.05781         87.0741          9.3611 
        2.07353          85.843         9.18924 
        2.08928         84.6008         9.02133 
        2.10499         83.5051         8.85806 
        2.12065         83.2071         8.69932 
        2.13633          81.979         8.54434 
        2.15211         80.6619         8.39213 
        2.16785         79.4435         8.24406 
        2.18349         78.4228         8.10049 
        2.19916         77.6718         7.96003 
        2.21489         76.5126         7.82244 
        2.23063          75.633         7.68801 
         2.2463         75.1271         7.55734 
        2.26194         73.9957         7.43004 
        2.27765          73.151         7.30501 
        2.29341         72.3468         7.18254 
        2.30914          71.411         7.06313 
        2.32486         69.8125         6.94649 
        2.34061         69.5276          6.8323 
        2.35635         68.6441         6.72078 
        2.37203         67.6991         6.61213 
        2.38768         66.9384          6.5061 
        2.40339         66.1513         6.40202 
        2.41914         65.2315         6.29997 
        2.43483         64.7366          6.2005 
         2.4505         63.6562         6.10335 
        2.46622         63.2382         6.00795 
        2.48195         62.3106         5.91458 
        2.49759         61.5687         5.82369 
        2.51328          60.861         5.73447 
        2.52906         60.0517         5.64656 
        2.54479         59.3478         5.56082 
        2.56049         58.6949         5.47702 
        2.57618         57.8242         5.39502 
        2.59189         57.5076         5.31458 
        2.60758         56.6045          5.2359 
        2.62325         56.0527         5.15891 
        2.63898         55.3559          5.0832 
        2.65468         54.8329         5.00916 
        2.67044         54.2695         4.93628 
        2.68618         53.6491         4.86502 
        2.70184         52.8615         4.79545 
        2.71755         52.2783         4.72707 
        2.73329         51.8707         4.65992 
        2.74897         51.4307         4.59428 
        2.76462          50.843         4.53006 
        2.78034         50.1608         4.46679 
        2.79607         49.3191         4.40467 
        2.81179         48.8804          4.3438 
        2.82749         48.4889         4.28415 
        2.84321         48.0782         4.22555 
        2.85893         47.4604         4.16806 
        2.87462         46.7515         4.11174 
        2.89033         46.2758         4.05641 
        2.90605         45.7143         4.00205 
        2.92176          45.266         3.94871 
        2.93747          44.706         3.89637 
        2.95318         44.3952         3.84496 
        2.96891         43.8107         3.79446 
        2.98456         43.4099         3.74509 
        3.00023         42.7701         3.69652 
        3.01596         42.4692         3.64867 
        3.03164         41.9513         3.60179 
        3.04738         41.4961         3.55561 
         3.0631         41.1401         3.51024 
        3.07883         40.6567         3.46567 
        3.09456         40.1384         3.42187 
        3.11026         39.6765          3.3789 
        3.12596          39.273         3.33668 
        3.14163         38.9635         3.29527 
        3.15734         38.5637         3.25446 
        3.17308          38.264         3.21425 
        3.18879         37.7802         3.17482 
        3.20447         37.3237         3.13612 
         3.2202         36.9398         3.09794 
         3.2359         36.6445         3.06046 
        3.25157         36.1547         3.02369 
        3.26729         35.8651         2.98741 
        3.28304         35.4859         2.95165 
        3.29877         34.9883         2.91653 
        3.31446         34.7611         2.88205 
        3.33014         34.3843         2.84817 
        3.34585         33.9269         2.81477 
        3.36158         33.6502         2.78186 
        3.37727         33.2871         2.74957 
        3.39294         32.9165         2.71783 
        3.40867         32.7092         2.68648 
        3.42439         32.2743         2.65563 
        3.44008         32.0251         2.62533 
        3.45578         31.6665         2.59548 
        3.47153          31.472         2.56603 
        3.48724         31.0147         2.53708 
        3.50292           30.83         2.50865 
        3.51859         30.5559         2.48067 
        3.53431         30.2108         2.45303 
        3.55007          29.774         2.42574 
        3.56577         29.6037         2.39897 
        3.58146         29.3446         2.37261 
        3.59719         28.9691         2.34659 
        3.61292         28.8201         2.32097 
        3.62859         28.4139         2.29583 
        3.64429         28.1749         2.27102 
        3.66003         27.9275         2.24649 
        3.67578         27.6783         2.22233 
        3.69146         27.5062         2.19862 
        3.70712         27.0795          2.1753 
        3.72284         26.8982         2.15223 
        3.73853         26.7158         2.12953 
        3.75422         26.4233         2.10715 
        3.76993         26.1088         2.08508 
        3.78564         25.9037         2.06332 
        3.80137         25.6926         2.04185 
        3.81707         25.4136         2.02072 
        3.83279         25.1404         1.99987 
        3.84853         24.9697         1.97929 
        3.86424         24.5527         1.95903 
        3.87992         24.4222         1.93909 
        3.89561          24.255         1.91942 
        3.91134         24.0106         1.89999 
        3.92704         23.7245         1.88084 
        3.94273         23.5018         1.86198 
        3.95845         23.3571         1.84335 
        3.97418         23.0943         1.82496 
        3.98988         22.8911         1.80685 
        4.00554         22.6296         1.78903 
        4.02125         22.4998          1.7714 
        4.03698         22.3123         1.75399 
        4.05268         22.0554         1.73684 
        4.06839         21.8619         1.71991 
         4.0841         21.7241         1.70322 
        4.09983         21.4294         1.68672 
        4.11555          21.287         1.67044 
        4.13124         21.1885         1.65443 
        4.14693         20.9461         1.63861 
        4.16266         20.7027         1.62296 
        4.17839          20.613         1.60752 
        4.19408           20.32         1.59232 
        4.20977         20.1964         1.57731 
        4.22551         20.0359         1.56245 
        4.24123         19.8391         1.54781 
        4.25691         19.6749         1.53339 
        4.27259         19.4881         1.51914 
        4.28831         19.3306         1.50505 
        4.30404         19.1204         1.49113 
        4.31974          18.939         1.47741 
        4.33543         18.8428         1.46387 
        4.35116         18.6703         1.45047 
        4.36688         18.5364         1.43724 
        4.38255           18.33         1.42423 
        4.39825         18.1907         1.41135 
        4.41398         18.0178          1.3986 
         4.4297         17.8888         1.38602 
        4.44541         17.6959          1.3736 
        4.46111         17.5112         1.36134 
        4.47683         17.3742         1.34922 
        4.49251         17.3057         1.33727 
        4.50819         17.1266         1.32547 
         4.5239         16.9853          1.3138 
        4.53962          16.866         1.30225 
        4.55535         16.7163         1.29083 
        4.57106         16.5682         1.27957 
        4.58678         16.4127         1.26844 
         4.6025         16.2389         1.25744 
        4.61821         16.1744         1.24657 
        4.63391         15.9982         1.23584 
         4.6496         15.8745         1.22525 
        4.66532         15.7708         1.21476 
        4.68103         15.6181         1.20439 
        4.69673         15.4852         1.19416 
        4.71241         15.4046         1.18406 
        4.72811         15.2485         1.17406 
        4.74384         15.1038         1.16416 
        4.75955         15.0128         1.15439 
        4.77525         14.8741         1.14474 
        4.79096         14.7468         1.13518 
        4.80669         14.6257         1.12573 
         4.8224         14.5218          1.1164 
        4.83809         14.3879         1.10718 
        4.85379         14.2854         1.09806 
         4.8695         14.1787         1.08904 
        4.88521         14.0449         1.08012 
        4.90093         13.9313          1.0713 
        4.91663         13.8186         1.06258 
        4.93234         13.6793         1.05396 
        4.94807         13.6188         1.04542 
        4.96377         13.5188           1.037 
        4.97943         13.4055         1.02868 
        4.99514         13.2967         1.02043 
        5.01086          13.214         1.01227 
        5.02654         13.0735         1.00422 
        5.04227         12.9854         0.99623 
          5.058         12.8852        0.988325 
        5.07371         12.7761         0.98052 
        5.08942         12.6823        0.972799 
        5.10513         12.5966         0.96516 
        5.12084         12.4858        0.957599 
        5.13656         12.3973         0.95012 
        5.15225         12.2891        0.942734 
        5.16796         12.1844        0.935414 
        5.18369          12.096        0.928165 
         5.1994         11.9904        0.921006 
        5.21509         11.9161        0.913929 
        5.23079         11.8298        0.906917 
        5.24649          11.753        0.899985 
        5.26217          11.633         0.89313 
        5.27788         11.5575        0.886336 
        5.29359         11.4721        0.879612 
        5.30933         11.4051        0.872947 
        5.32504         11.3023        0.866363 
        5.34073         11.2266        0.859854 
        5.35646         11.1475        0.853398 
        5.37218         11.0475        0.847008 
        5.38789           10.96        0.840692 
        5.40357         10.8867        0.834449 
        5.41929         10.8167        0.828255 
        5.43502         10.7352        0.822123 
         5.4507         10.6474        0.816067 
        5.46639         10.5494        0.810072 
        5.48212         10.4774        0.804123 
        5.49786         10.4278        0.798226 
        5.51353         10.3514        0.792418 
        5.52921         10.2774        0.786661 
        5.54495         10.1891        0.780945 
        5.56066         10.1213        0.775291 
        5.57637         10.0575        0.769694 
        5.59207         9.96875        0.764157 
        5.60778          9.8786        0.758673 
        5.62346          9.8214         0.75325 
        5.63916         9.73995        0.747874 
        5.65487         9.68732        0.742549 
         5.6706         9.61079        0.737268 
        5.68633         9.52392        0.732037 
        5.70203         9.47541        0.726868 
        5.71773         9.39118        0.721749 
        5.73344         9.35377        0.716677 
        5.74916         9.27079        0.711649 
        5.76486         9.22267        0.706675 
        5.78054         9.15038        0.701757 
        5.79626         9.08616        0.696872 
          5.812         9.01492        0.692028 
         5.8277         8.94363        0.687244 
        5.84339         8.86871        0.682506 
        5.85911         8.81737        0.677803 
        5.87484         8.75508        0.673145 
        5.89053          8.6942         0.66854 
        5.90623         8.65099        0.663976 
        5.92195         8.59169        0.659447 
        5.93767         8.50851        0.654962 
        5.95336         8.46221        0.650526 
        5.96905         8.40671        0.646133 
        5.98476         8.34301        0.641774 
        6.00048         8.28448        0.637454 
        6.01617         8.22309        0.633179 
        6.03185         8.18386        0.628949 
        6.04756         8.12055        0.624747 
        6.06331         8.07439        0.620575 
        6.07903            8.01        0.616449 
        6.09473         7.94207        0.612364 
        6.11044         7.89985        0.608313 
        6.12616         7.86018        0.604299 
        6.14186         7.79385        0.600325 
        6.15755         7.75266        0.596388 
        6.17326         7.68641        0.592482 
        6.18898         7.64109        0.588609 
        6.20467         7.58771        0.584778 
        6.22036         7.52664        0.580981 
         6.2361         7.48703        0.577208 
         6.2518         7.43823        0.573474 
        6.26748         7.38785        0.569781 
        6.28319         7.35074        0.566111 
        6.29893         7.29484         0.56247 
        6.31463         7.24714        0.558867 
        6.33033         7.18266        0.555296 
        6.34604         7.14433        0.551754 
        6.36177         7.11273         0.54824 
        6.37747         7.05945        0.544762 
