# k  (h/Mpc)    Pcb(k)  (Mpc/h)^3    Pcb_linear(k) (Mpc/h)^3   ShotnoiseSubtracted = true
      0.0200456         65.0527         65.9059 
      0.0350414         49.7308         49.6801 
      0.0492313         37.6551         37.5327 
      0.0637834         31.4045         31.3519 
      0.0800726         24.5445         24.4825 
       0.096163         18.1876         18.1228 
       0.111083         14.9635         14.9631 
       0.126058         13.1697         13.1831 
       0.142273         10.8766         10.8468 
       0.158546         8.74316         8.69748 
        0.17375         7.56972          7.5807 
       0.188953         6.80743         6.81698 
       0.204907         5.91701         5.87131 
       0.220756         5.02642         5.00333 
        0.23588         4.47899         4.46774 
         0.2514         4.05378         4.05803 
       0.267535         3.60225         3.60062 
       0.283568         3.18606         3.17817 
       0.299022         2.88701         2.87933 
       0.314451         2.62805          2.6393 
       0.330372         2.39295         2.39427 
       0.346141         2.16882         2.16858 
       0.361624         1.99177         1.98866 
       0.377134          1.8425          1.8368 
       0.392932         1.67802         1.69105 
       0.408854         1.55908          1.5548 
       0.424564         1.43603         1.43899 
       0.440253         1.33715         1.33803 
       0.455999         1.24806         1.24444 
       0.471626         1.16394         1.15868 
        0.48727         1.08133         1.08177 
       0.502856           1.011          1.0132 
       0.518488        0.954989        0.949964 
       0.534347         0.89845        0.890674 
       0.550082        0.836481        0.837016 
       0.565732        0.782399        0.788395 
       0.581496         0.74449        0.743275 
       0.597222        0.703661        0.701594 
       0.612804        0.663629        0.663438 
       0.628434        0.631482        0.628146 
       0.644267        0.595737        0.595042 
       0.660051           0.564        0.564399 
       0.675724         0.53723        0.536094 
       0.691403        0.511954        0.509712 
       0.707174        0.485873        0.484961 
       0.722871        0.460721        0.461956 
        0.73838        0.442399        0.440693 
       0.754018        0.423486        0.420609 
       0.769845        0.403965        0.401561 
        0.78569        0.385047        0.383677 
       0.801365        0.367673        0.367062 
       0.817031        0.352516        0.351445 
       0.832809        0.337769        0.336641 
       0.848511        0.323296        0.322758 
       0.864097        0.309166        0.309757 
       0.879701        0.296589        0.297462 
       0.895507        0.286937        0.285691 
       0.911279        0.275347        0.274584 
        0.92691        0.264221        0.264161 
       0.942635        0.254862        0.254224 
       0.958396        0.244725        0.244778 
       0.974128        0.235799        0.235831 
       0.989692         0.22773        0.227421 
        1.00528        0.220294         0.21941 
        1.02113        0.210986        0.211661 
        1.03692        0.204329        0.204315 
        1.05264        0.197496        0.197353 
        1.06832        0.190984        0.190728 
        1.08405        0.183983         0.18439 
        1.09979        0.177833        0.178337 
        1.11537        0.173344        0.172617 
        1.13105        0.167495        0.167114 
        1.14679        0.162686         0.16183 
        1.16256        0.156391        0.156766 
        1.17828        0.151626        0.151935 
        1.19395        0.146802        0.147325 
         1.2097        0.142345        0.142883 
        1.22537        0.138904        0.138646 
          1.241        0.134535        0.134594 
        1.25666        0.130961        0.130694 
        1.27241        0.126875        0.126931 
        1.28819        0.123222         0.12331 
        1.30392        0.119606        0.119841 
        1.31957        0.116454        0.116521 
        1.33529        0.112913        0.113316 
        1.35108        0.110005        0.110218 
        1.36674        0.106367        0.107258 
         1.3824        0.104599         0.10441 
        1.39811        0.101364        0.101657 
        1.41389       0.0986951        0.098992 
        1.42964       0.0965074       0.0964274 
        1.44531       0.0935022       0.0939664 
        1.46101       0.0913682       0.0915862 
        1.47667       0.0886798       0.0892957 
        1.49229       0.0867414       0.0870898 
        1.50793       0.0843433        0.084956 
        1.52367       0.0824219       0.0828802 
        1.53953        0.080705       0.0808598 
        1.55526       0.0787272       0.0789231 
        1.57092       0.0763579       0.0770579 
        1.58662       0.0748835       0.0752486 
        1.60235       0.0733632       0.0734941 
        1.61809       0.0711535       0.0717946 
        1.63369       0.0697469       0.0701641 
        1.64941       0.0683325       0.0685726 
        1.66519       0.0665874       0.0670248 
        1.68085       0.0649692       0.0655358 
        1.69652        0.063453       0.0640917 
        1.71228       0.0624118        0.062683 
        1.72806       0.0606018       0.0613155 
        1.74368       0.0595494       0.0600026 
        1.75933       0.0583089       0.0587255 
        1.77505       0.0569454       0.0574797 
        1.79081       0.0558998       0.0562678 
         1.8065       0.0544377       0.0550961 
        1.82218       0.0534694       0.0539588 
        1.83797       0.0523151       0.0528459 
        1.85367       0.0512439       0.0517705 
        1.86928       0.0503265       0.0507315 
        1.88497       0.0493845       0.0497154 
        1.90073       0.0482914       0.0487234 
        1.91647       0.0471766       0.0477593 
        1.93218       0.0462451       0.0468234 
        1.94787       0.0452794       0.0459139 
        1.96363       0.0445521        0.045025 
        1.97935       0.0435713       0.0441615 
        1.99499       0.0427891       0.0433255 
        2.01064       0.0420867         0.04251 
         2.0264       0.0413267       0.0417103 
        2.04216       0.0403906       0.0409316 
        2.05781       0.0397101       0.0401777 
        2.07353       0.0387768       0.0394401 
        2.08928        0.038159       0.0387194 
        2.10499       0.0373039       0.0380187 
        2.12065       0.0368065       0.0373374 
        2.13633       0.0360157       0.0366722 
        2.15211       0.0355717       0.0360189 
        2.16785       0.0349071       0.0353834 
        2.18349       0.0340901       0.0347672 
        2.19916       0.0337555       0.0341644 
        2.21489        0.033198       0.0335738 
        2.23063       0.0324962       0.0329969 
         2.2463       0.0317983        0.032436 
        2.26194       0.0312792       0.0318896 
        2.27765       0.0307705        0.031353 
        2.29341       0.0303693       0.0308274 
        2.30914       0.0297589       0.0303149 
        2.32486       0.0292679       0.0298143 
        2.34061       0.0288064       0.0293242 
        2.35635       0.0282733       0.0288455 
        2.37203        0.027843       0.0283792 
        2.38768       0.0273241       0.0279241 
        2.40339       0.0268914       0.0274774 
        2.41914       0.0265331       0.0270394 
        2.43483       0.0259707       0.0266125 
         2.4505       0.0256049       0.0261955 
        2.46622       0.0252398       0.0257861 
        2.48195       0.0247642       0.0253853 
        2.49759       0.0244261       0.0249952 
        2.51328        0.024139       0.0246123 
        2.52906       0.0236963        0.024235 
        2.54479       0.0233562        0.023867 
        2.56049       0.0229923       0.0235073 
        2.57618       0.0226348       0.0231554 
        2.59189       0.0222839       0.0228101 
        2.60758        0.021984       0.0224724 
        2.62325       0.0216234        0.022142 
        2.63898       0.0212684        0.021817 
        2.65468       0.0209691       0.0214993 
        2.67044       0.0207199       0.0211865 
        2.68618       0.0203752       0.0208806 
        2.70184       0.0200641        0.020582 
        2.71755       0.0197207       0.0202885 
        2.73329       0.0194504       0.0200003 
        2.74897       0.0192562       0.0197186 
        2.76462       0.0189091        0.019443 
        2.78034       0.0186484       0.0191714 
        2.79607        0.018431       0.0189048 
        2.81179       0.0181334       0.0186435 
        2.82749       0.0178805       0.0183875 
        2.84321       0.0176323        0.018136 
        2.85893       0.0173587       0.0178893 
        2.87462       0.0171615       0.0176475 
        2.89033        0.016957       0.0174101 
        2.90605       0.0166627       0.0171767 
        2.92176       0.0165094       0.0169478 
        2.93747       0.0162459       0.0167232 
        2.95318       0.0160028       0.0165025 
        2.96891       0.0158253       0.0162858 
        2.98456       0.0156682       0.0160739 
        3.00023       0.0153946       0.0158654 
        3.01596       0.0151331         0.01566 
        3.03164       0.0150461       0.0154589 
        3.04738       0.0148186       0.0152606 
         3.0631       0.0145654       0.0150659 
        3.07883       0.0143796       0.0148746 
        3.09456       0.0142784       0.0146867 
        3.11026       0.0140486       0.0145022 
        3.12596       0.0139075        0.014321 
        3.14163       0.0136982       0.0141432 
        3.15734       0.0135401       0.0139681 
        3.17308        0.013346       0.0137955 
        3.18879       0.0132218       0.0136263 
        3.20447       0.0130663       0.0134602 
         3.2202        0.012892       0.0132963 
         3.2359       0.0127441       0.0131354 
        3.25157       0.0125699       0.0129776 
        3.26729       0.0124611       0.0128219 
        3.28304       0.0122754       0.0126685 
        3.29877       0.0121542       0.0125177 
        3.31446       0.0120028       0.0123697 
        3.33014       0.0118221       0.0122243 
        3.34585       0.0116808        0.012081 
        3.36158       0.0115629       0.0119397 
        3.37727       0.0114519       0.0118011 
        3.39294       0.0113256       0.0116649 
        3.40867       0.0112093       0.0115303 
        3.42439        0.011088       0.0113979 
        3.44008       0.0109529       0.0112679 
        3.45578       0.0108186       0.0111398 
        3.47153       0.0106953       0.0110134 
        3.48724       0.0106192       0.0108891 
        3.50292       0.0104219       0.0107671 
        3.51859       0.0103283        0.010647 
        3.53431       0.0102575       0.0105284 
        3.55007       0.0101708       0.0104112 
        3.56577       0.0100663       0.0102963 
        3.58146      0.00989118       0.0101832 
        3.59719      0.00980689       0.0100716 
        3.61292       0.0096859       0.0099616 
        3.62859      0.00961593      0.00985369 
        3.64429      0.00951655      0.00974717 
        3.66003      0.00942583       0.0096419 
        3.67578      0.00933126      0.00953822 
        3.69146      0.00924074      0.00943645 
        3.70712      0.00915841      0.00933635 
        3.72284      0.00904726      0.00923733 
        3.73853      0.00895176      0.00913992 
        3.75422      0.00889685      0.00904387 
        3.76993      0.00878288      0.00894912 
        3.78564      0.00874747      0.00885576 
        3.80137      0.00864067      0.00876358 
        3.81707      0.00853563      0.00867291 
        3.83279      0.00846209      0.00858344 
        3.84853      0.00839641      0.00849508 
        3.86424      0.00830055      0.00840815 
        3.87992      0.00822771      0.00832255 
        3.89561       0.0081676      0.00823814 
        3.91134      0.00810258      0.00815473 
        3.92704      0.00799076      0.00807256 
        3.94273       0.0079625      0.00799161 
        3.95845      0.00785972      0.00791162 
        3.97418       0.0077822      0.00783271 
        3.98988      0.00774652      0.00775497 
        4.00554      0.00763628      0.00767851 
        4.02125      0.00754938      0.00760285 
        4.03698       0.0074806      0.00752809 
        4.05268       0.0073861      0.00745451 
        4.06839      0.00728418      0.00738185 
         4.0841      0.00721054      0.00731019 
        4.09983       0.0071145      0.00723937 
        4.11555      0.00703665      0.00716952 
        4.13124      0.00695687      0.00710078 
        4.14693      0.00689261      0.00703288 
        4.16266       0.0067833      0.00696571 
        4.17839      0.00673064      0.00689946 
        4.19408      0.00665406      0.00683421 
        4.20977       0.0066019      0.00676979 
        4.22551      0.00653623      0.00670603 
        4.24123      0.00647178      0.00664316 
        4.25691      0.00640564      0.00658127 
        4.27259      0.00634633      0.00652015 
        4.28831       0.0063067      0.00645968 
        4.30404      0.00624106      0.00639991 
        4.31974      0.00618025      0.00634103 
        4.33543      0.00612874      0.00628293 
        4.35116      0.00608067      0.00622541 
        4.36688      0.00604476      0.00616863 
        4.38255      0.00600512      0.00611277 
        4.39825      0.00598573      0.00605748 
        4.41398      0.00594798      0.00600276 
         4.4297      0.00592169      0.00594878 
        4.44541       0.0058827      0.00589547 
        4.46111      0.00583945      0.00584285 
        4.47683      0.00583857      0.00579083 
        4.49251      0.00578746      0.00573956 
        4.50819      0.00578653      0.00568891 
         4.5239       0.0057795      0.00563881 
        4.53962      0.00575178      0.00558924 
        4.55535      0.00573943      0.00554024 
        4.57106      0.00574968       0.0054919 
        4.58678      0.00571948      0.00544413 
         4.6025      0.00573251      0.00539691 
        4.61821      0.00573163      0.00535026 
        4.63391      0.00571927      0.00530422 
         4.6496      0.00573171      0.00525874 
        4.66532      0.00571767      0.00521372 
        4.68103      0.00573941      0.00516925 
        4.69673      0.00572996      0.00512534 
        4.71241      0.00575671      0.00508198 
        4.72811      0.00576964      0.00503905 
        4.74384      0.00578585      0.00499656 
        4.75955      0.00580189      0.00495462 
        4.77525      0.00583417      0.00491319 
        4.79096      0.00586687      0.00487218 
        4.80669      0.00586939      0.00483162 
         4.8224      0.00590412      0.00479156 
        4.83809      0.00590635        0.004752 
        4.85379      0.00598261      0.00471287 
         4.8695      0.00601149      0.00467414 
        4.88521      0.00603274      0.00463586 
        4.90093      0.00608895        0.004598 
        4.91663      0.00615431       0.0045606 
        4.93234      0.00617236      0.00452358 
        4.94807      0.00624505      0.00448694 
        4.96377      0.00630338      0.00445077 
        4.97943      0.00634118      0.00441508 
        4.99514      0.00641504      0.00437969 
        5.01086      0.00645172      0.00434466 
        5.02654       0.0065414       0.0043101 
        5.04227      0.00659621      0.00427581 
          5.058      0.00668915      0.00424188 
        5.07371      0.00676289      0.00420838 
        5.08942      0.00684876      0.00417524 
        5.10513       0.0068898      0.00414246 
        5.12084      0.00699816         0.00411 
        5.13656      0.00705032      0.00407791 
        5.15225      0.00715372       0.0040462 
        5.16796      0.00725681      0.00401479 
        5.18369      0.00736852      0.00398367 
         5.1994      0.00748509      0.00395295 
        5.21509      0.00760262      0.00392257 
        5.23079      0.00764583      0.00389248 
        5.24649      0.00782927      0.00386273 
        5.26217      0.00790972       0.0038333 
        5.27788      0.00806026      0.00380415 
        5.29359       0.0081902      0.00377528 
        5.30933      0.00830572      0.00374668 
        5.32504      0.00842763      0.00371842 
        5.34073      0.00860304      0.00369048 
        5.35646      0.00872439      0.00366278 
        5.37218      0.00883718      0.00363535 
        5.38789      0.00900954      0.00360824 
        5.40357      0.00914659      0.00358145 
        5.41929      0.00930294      0.00355486 
        5.43502      0.00949594      0.00352854 
         5.4507      0.00970679      0.00350255 
        5.46639      0.00990142      0.00347682 
        5.48212      0.00996172      0.00345129 
        5.49786       0.0102457      0.00342598 
        5.51353       0.0104155      0.00340105 
        5.52921       0.0105941      0.00337634 
        5.54495       0.0108321      0.00335181 
        5.56066       0.0110276      0.00332754 
        5.57637       0.0112558      0.00330352 
        5.59207       0.0114743      0.00327976 
        5.60778       0.0117025      0.00325622 
        5.62346       0.0119865      0.00323294 
        5.63916        0.012199      0.00320987 
        5.65487       0.0124166      0.00318701 
         5.6706       0.0126748      0.00316435 
        5.68633       0.0129946       0.0031419 
        5.70203       0.0132444      0.00311971 
        5.71773       0.0135921      0.00309774 
        5.73344       0.0137863      0.00307597 
        5.74916        0.014134      0.00305439 
        5.76486       0.0144945      0.00303304 
        5.78054       0.0147615      0.00301193 
        5.79626       0.0150213      0.00299097 
          5.812       0.0154386      0.00297018 
         5.8277       0.0157476      0.00294965 
        5.84339       0.0161641      0.00292931 
        5.85911       0.0165491      0.00290912 
        5.87484       0.0169226      0.00288913 
        5.89053       0.0173562      0.00286937 
        5.90623       0.0178668      0.00284978 
        5.92195       0.0182143      0.00283034 
        5.93767       0.0186263      0.00281109 
        5.95336       0.0189762      0.00279205 
        5.96905       0.0196075       0.0027732 
        5.98476       0.0199219      0.00275449 
        6.00048       0.0204153      0.00273595 
        6.01617       0.0209388       0.0027176 
        6.03185       0.0213483      0.00269944 
        6.04756       0.0220232      0.00268141 
        6.06331       0.0224819       0.0026635 
        6.07903       0.0231122      0.00264579 
        6.09473       0.0235113      0.00262826 
        6.11044       0.0243118      0.00261087 
        6.12616       0.0249169      0.00259365 
        6.14186       0.0254259      0.00257659 
        6.15755       0.0260964      0.00255969 
        6.17326       0.0267741      0.00254293 
        6.18898       0.0276102       0.0025263 
        6.20467       0.0283363      0.00250986 
        6.22036       0.0290264      0.00249357 
         6.2361        0.029782      0.00247737 
         6.2518       0.0306769      0.00246134 
        6.26748       0.0312207       0.0024455 
        6.28319       0.0321799      0.00242974 
        6.29893       0.0330163      0.00241411 
        6.31463       0.0341106      0.00239865 
        6.33033       0.0348936      0.00238332 
        6.34604       0.0358601      0.00236812 
        6.36177       0.0368462      0.00235304 
        6.37747       0.0378978      0.00233811 
