# k  (h/Mpc)    Pcb(k)  (Mpc/h)^3    Pcb_linear(k) (Mpc/h)^3   ShotnoiseSubtracted = true
      0.0200456           25383         26049.1 
      0.0350414         18588.2         19635.9 
      0.0492313         14374.9         14834.7 
      0.0637834         12545.6         12391.8 
      0.0800726         9765.19         9676.61 
       0.096163         6856.23            7163 
       0.111083         5671.94         5914.12 
       0.126058         5202.21         5210.59 
       0.142273         4439.66         4287.16 
       0.158546         3988.53         3437.65 
        0.17375         3245.53         2996.25 
       0.188953         3177.31         2694.39 
       0.204907         2970.32         2320.62 
       0.220756         2598.34         1977.55 
        0.23588         2345.74         1765.86 
         0.2514         2058.82         1603.92 
       0.267535          2067.1         1423.13 
       0.283568         1876.23         1256.16 
       0.299022         1786.48         1138.05 
       0.314451         1702.21         1043.17 
       0.330372         1556.77         946.326 
       0.346141         1529.36         857.125 
       0.361624         1469.38         786.011 
       0.377134         1374.57         725.991 
       0.392932         1317.84         668.382 
       0.408854         1298.57          614.53 
       0.424564         1196.36         568.757 
       0.440253         1172.43         528.854 
       0.455999          1154.4         491.861 
       0.471626          1110.2         457.965 
        0.48727         1069.23         427.567 
       0.502856         1028.78         400.463 
       0.518488         1030.64          375.47 
       0.534347          966.32         352.036 
       0.550082         953.462         330.828 
       0.565732          939.23         311.611 
       0.581496         897.407         293.777 
       0.597222         874.687         277.303 
       0.612804         863.673         262.222 
       0.628434         841.504         248.273 
       0.644267         819.859         235.189 
       0.660051         802.583         223.077 
       0.675724         793.656          211.89 
       0.691403         770.773         201.462 
       0.707174          745.38         191.679 
       0.722871         729.978         182.587 
        0.73838           717.7         174.182 
       0.754018         707.056         166.245 
       0.769845         694.029         158.716 
        0.78569          684.03         151.647 
       0.801365         664.216          145.08 
       0.817031         653.275         138.908 
       0.832809          643.96         133.056 
       0.848511          629.88         127.569 
       0.864097         609.775          122.43 
       0.879701         601.097         117.571 
       0.895507         600.105         112.919 
       0.911279         587.207         108.528 
        0.92691         577.922         104.409 
       0.942635         560.919         100.481 
       0.958396         549.332         96.7477 
       0.974128          543.81         93.2115 
       0.989692         538.326         89.8874 
        1.00528         519.766         86.7211 
        1.02113         518.561         83.6582 
        1.03692         506.912          80.755 
        1.05264         499.417         78.0033 
        1.06832         488.011         75.3846 
        1.08405         482.245         72.8796 
        1.09979         474.846         70.4872 
        1.11537         467.539         68.2262 
        1.13105         460.407         66.0512 
        1.14679         448.782          63.963 
        1.16256         439.395         61.9611 
        1.17828          437.89         60.0518 
        1.19395          429.53         58.2296 
         1.2097         417.116         56.4739 
        1.22537         411.977         54.7993 
          1.241         404.646         53.1978 
        1.25666         401.149         51.6564 
        1.27241         393.022          50.169 
        1.28819         384.225         48.7379 
        1.30392         379.457         47.3668 
        1.31957         372.965         46.0547 
        1.33529          370.55         44.7876 
        1.35108         361.671         43.5633 
        1.36674           355.8         42.3935 
         1.3824         351.904         41.2679 
        1.39811         345.006         40.1795 
        1.41389         340.951         39.1263 
        1.42964         336.391         38.1126 
        1.44531         333.338         37.1399 
        1.46101         324.041         36.1992 
        1.47667         319.079         35.2938 
        1.49229         316.163          34.422 
        1.50793         307.292         33.5786 
        1.52367         306.558         32.7581 
        1.53953          298.99         31.9596 
        1.55526         296.622         31.1941 
        1.57092           293.6         30.4569 
        1.58662         288.663         29.7418 
        1.60235         283.462         29.0483 
        1.61809         278.952         28.3766 
        1.63369         275.409         27.7321 
        1.64941         269.902         27.1031 
        1.66519         268.058         26.4913 
        1.68085         265.301         25.9028 
        1.69652         260.953         25.3321 
        1.71228         254.422         24.7753 
        1.72806         250.994         24.2348 
        1.74368         247.177         23.7158 
        1.75933         245.305         23.2111 
        1.77505          241.83         22.7187 
        1.79081          238.48         22.2397 
         1.8065         233.266         21.7766 
        1.82218         230.807         21.3271 
        1.83797         229.869         20.8872 
        1.85367         225.135         20.4621 
        1.86928         220.817         20.0515 
        1.88497          218.98         19.6499 
        1.90073         214.853         19.2578 
        1.91647         212.906         18.8767 
        1.93218         209.073         18.5068 
        1.94787         206.135         18.1473 
        1.96363         203.194          17.796 
        1.97935         200.098         17.4547 
        1.99499         197.975         17.1243 
        2.01064         194.798         16.8019 
         2.0264         193.288         16.4859 
        2.04216         190.766         16.1781 
        2.05781         187.849         15.8801 
        2.07353         184.962         15.5886 
        2.08928         181.504         15.3037 
        2.10499         180.148         15.0268 
        2.12065         177.938         14.7575 
        2.13633          175.01         14.4946 
        2.15211         172.454         14.2364 
        2.16785         171.295         13.9852 
        2.18349         169.123         13.7416 
        2.19916         166.214         13.5034 
        2.21489         164.291           13.27 
        2.23063         162.374         13.0419 
         2.2463         159.418         12.8202 
        2.26194         157.282         12.6043 
        2.27765         155.424         12.3922 
        2.29341         153.219         12.1844 
        2.30914         151.631         11.9819 
        2.32486         150.191          11.784 
        2.34061         147.549         11.5903 
        2.35635         146.194         11.4011 
        2.37203         144.304         11.2168 
        2.38768         142.174         11.0369 
        2.40339         140.311         10.8604 
        2.41914         138.815         10.6872 
        2.43483         137.165         10.5185 
         2.4505         135.694         10.3537 
        2.46622         133.713         10.1919 
        2.48195         131.955         10.0335 
        2.49759          130.88         9.87928 
        2.51328         129.682         9.72793 
        2.52906         127.679          9.5788 
        2.54479         125.839         9.43334 
        2.56049         123.901         9.29119 
        2.57618         122.971         9.15209 
        2.59189         121.421         9.01562 
        2.60758         119.685         8.88215 
        2.62325         118.242         8.75155 
        2.63898         117.218         8.62311 
        2.65468         115.532         8.49752 
        2.67044         113.858         8.37389 
        2.68618         113.104         8.25301 
        2.70184         111.575         8.13499 
        2.71755         110.332         8.01898 
        2.73329         108.811         7.90506 
        2.74897         107.722         7.79372 
        2.76462         106.181         7.68477 
        2.78034         105.203         7.57745 
        2.79607         103.754         7.47207 
        2.81179         103.126          7.3688 
        2.82749         101.977         7.26761 
        2.84321         100.113          7.1682 
        2.85893         99.0669         7.07068 
        2.87462          98.162         6.97514 
        2.89033         96.7513         6.88127 
        2.90605         95.8334         6.78905 
        2.92176         94.4465         6.69857 
        2.93747         93.5909         6.60978 
        2.95318         93.1219         6.52257 
        2.96891         91.8264          6.4369 
        2.98456         90.7288         6.35315 
        3.00023         89.8279         6.27076 
        3.01596         88.6725         6.18958 
        3.03164         87.8322         6.11007 
        3.04738         86.9328         6.03171 
         3.0631         85.8023         5.95476 
        3.07883         84.8616         5.87914 
        3.09456          83.927         5.80485 
        3.11026         83.3926         5.73196 
        3.12596         82.5054         5.66032 
        3.14163         81.3657         5.59007 
        3.15734         80.5719         5.52085 
        3.17308         79.8709         5.45263 
        3.18879         78.9175         5.38576 
        3.20447         78.0018         5.32009 
         3.2202         77.1879         5.25532 
         3.2359         76.4003         5.19174 
        3.25157         75.8942         5.12937 
        3.26729          74.901         5.06782 
        3.28304         74.1922         5.00717 
        3.29877         73.3266         4.94759 
        3.31446         72.8325          4.8891 
        3.33014         71.7998         4.83161 
        3.34585         71.1059         4.77496 
        3.36158         70.2705         4.71913 
        3.37727         69.6837         4.66436 
        3.39294         68.9063         4.61052 
        3.40867         68.3151         4.55733 
        3.42439         67.4024           4.505 
        3.44008         66.7214          4.4536 
        3.45578         65.9318         4.40296 
        3.47153         65.5598           4.353 
        3.48724         64.9417          4.3039 
        3.50292         64.4127         4.25567 
        3.51859         63.7036         4.20819 
        3.53431         62.9511          4.1613 
        3.55007         62.4016         4.11501 
        3.56577         61.6929          4.0696 
        3.58146         61.1444         4.02489 
        3.59719         60.5189         3.98075 
        3.61292         59.9622         3.93729 
        3.62859         59.3482         3.89464 
        3.64429         58.6794         3.85254 
        3.66003         58.1466         3.81093 
        3.67578         57.4099         3.76995 
        3.69146         57.1164         3.72973 
        3.70712         56.4757         3.69017 
        3.72284          55.945         3.65103 
        3.73853         55.4754         3.61253 
        3.75422         54.8554         3.57456 
        3.76993         54.5026         3.53711 
        3.78564         53.8195         3.50021 
        3.80137         53.3607         3.46378 
        3.81707         52.8231         3.42794 
        3.83279         52.3234         3.39258 
        3.84853         51.8526         3.35766 
        3.86424         51.3373         3.32329 
        3.87992         50.9101         3.28946 
        3.89561         50.4279          3.2561 
        3.91134          49.992         3.22313 
        3.92704          49.635         3.19066 
        3.94273         49.1702         3.15866 
        3.95845         48.6071         3.12704 
        3.97418         48.0767         3.09585 
        3.98988         47.7151         3.06513 
        4.00554         47.3502         3.03491 
        4.02125          46.808           3.005 
        4.03698         46.3572         2.97545 
        4.05268         45.8734         2.94637 
        4.06839         45.5416         2.91765 
         4.0841         45.1792         2.88933 
        4.09983         44.7525         2.86134 
        4.11555         44.2774         2.83373 
        4.13124         43.8138         2.80656 
        4.14693         43.6401         2.77972 
        4.16266         43.2258         2.75318 
        4.17839         42.8367         2.72699 
        4.19408         42.3558          2.7012 
        4.20977         41.9899         2.67574 
        4.22551         41.6527         2.65054 
        4.24123          41.272         2.62569 
        4.25691         40.9777         2.60123 
        4.27259         40.5073         2.57707 
        4.28831         40.3479         2.55317 
        4.30404         39.9334         2.52955 
        4.31974         39.6058         2.50627 
        4.33543         39.2052         2.48331 
        4.35116         38.8632         2.46057 
        4.36688         38.6328         2.43813 
        4.38255         38.2176         2.41605 
        4.39825         37.9724          2.3942 
        4.41398          37.559         2.37257 
         4.4297         37.1743         2.35124 
        4.44541         36.8768         2.33017 
        4.46111         36.6227         2.30937 
        4.47683         36.2488         2.28881 
        4.49251         36.0173         2.26854 
        4.50819         35.6753         2.24852 
         4.5239           35.46         2.22872 
        4.53962         35.0432         2.20913 
        4.55535         34.7895         2.18976 
        4.57106         34.5323         2.17066 
        4.58678         34.1364         2.15177 
         4.6025         33.9959         2.13311 
        4.61821         33.6768         2.11467 
        4.63391         33.3205         2.09648 
         4.6496         32.9886          2.0785 
        4.66532         32.7424         2.06071 
        4.68103         32.5528         2.04313 
        4.69673         32.1663         2.02577 
        4.71241         31.9612         2.00864 
        4.72811         31.7785         1.99167 
        4.74384          31.403         1.97487 
        4.75955         31.2163          1.9583 
        4.77525         30.9269         1.94192 
        4.79096         30.6745         1.92571 
        4.80669         30.4546         1.90968 
         4.8224         30.2694         1.89385 
        4.83809         29.9737         1.87821 
        4.85379         29.6796         1.86275 
         4.8695         29.4725         1.84744 
        4.88521         29.2535         1.83231 
        4.90093         29.0093         1.81735 
        4.91663         28.6918         1.80256 
        4.93234          28.525         1.78793 
        4.94807         28.2876         1.77345 
        4.96377         28.0608         1.75915 
        4.97943         27.8586         1.74505 
        4.99514         27.6411         1.73106 
        5.01086         27.4549         1.71721 
        5.02654         27.1763         1.70355 
        5.04227          26.946            1.69 
          5.058         26.8311         1.67659 
        5.07371         26.5502         1.66335 
        5.08942         26.3903         1.65025 
        5.10513         26.1457         1.63729 
        5.12084         25.9464         1.62447 
        5.13656         25.7528         1.61178 
        5.15225         25.5413         1.59925 
        5.16796         25.3425         1.58683 
        5.18369         25.1535         1.57453 
         5.1994         24.9575         1.56239 
        5.21509          24.778         1.55038 
        5.23079         24.5507         1.53849 
        5.24649         24.3582         1.52673 
        5.26217         24.1567          1.5151 
        5.27788         24.0041         1.50358 
        5.29359          23.795         1.49217 
        5.30933         23.6368         1.48086 
        5.32504         23.4443         1.46969 
        5.34073         23.2592         1.45865 
        5.35646         23.1484          1.4477 
        5.37218         22.9487         1.43686 
        5.38789         22.7508         1.42615 
        5.40357         22.5332         1.41556 
        5.41929         22.4378         1.40505 
        5.43502          22.302         1.39465 
         5.4507         22.0655         1.38437 
        5.46639         21.9676          1.3742 
        5.48212         21.7657         1.36411 
        5.49786         21.6121         1.35411 
        5.51353         21.4222         1.34425 
        5.52921         21.2284         1.33449 
        5.54495         21.1362         1.32479 
        5.56066         20.9828          1.3152 
        5.57637         20.8163         1.30571 
        5.59207         20.6231         1.29631 
        5.60778         20.5093         1.28701 
        5.62346         20.3079         1.27781 
        5.63916         20.1574         1.26869 
        5.65487         20.0849         1.25966 
         5.6706         19.8951          1.2507 
        5.68633          19.767         1.24183 
        5.70203         19.5803         1.23306 
        5.71773          19.427         1.22437 
        5.73344         19.2888         1.21577 
        5.74916         19.1791         1.20724 
        5.76486         19.0441          1.1988 
        5.78054         18.8837         1.19046 
        5.79626         18.7899         1.18217 
          5.812         18.6073         1.17395 
         5.8277          18.547         1.16584 
        5.84339         18.3853          1.1578 
        5.85911         18.2175         1.14982 
        5.87484          18.095         1.14192 
        5.89053          17.971         1.13411 
        5.90623         17.8524         1.12637 
        5.92195         17.7479         1.11868 
        5.93767         17.6074         1.11107 
        5.95336         17.5243         1.10355 
        5.96905         17.3326          1.0961 
        5.98476         17.2116          1.0887 
        6.00048          17.096         1.08137 
        6.01617         16.9663         1.07412 
        6.03185         16.8619         1.06695 
        6.04756          16.721         1.05982 
        6.06331         16.6175         1.05274 
        6.07903         16.5096         1.04574 
        6.09473         16.3815         1.03881 
        6.11044         16.2931         1.03194 
        6.12616         16.1513         1.02513 
        6.14186         16.0679         1.01839 
        6.15755         15.9876         1.01171 
        6.17326         15.8143         1.00508 
        6.18898          15.737        0.998514 
        6.20467         15.5996        0.992015 
        6.22036         15.5033        0.985574 
         6.2361         15.3969        0.979173 
         6.2518         15.2859        0.972839 
        6.26748          15.189        0.966575 
        6.28319         15.0926        0.960348 
        6.29893         14.9828        0.954171 
        6.31463         14.8808        0.948059 
        6.33033         14.7604        0.942002 
        6.34604         14.7034        0.935993 
        6.36177         14.6273        0.930031 
        6.37747          14.489        0.924133 
