# k  (h/Mpc)    Pcb(k)  (Mpc/h)^3    Pcb_linear(k) (Mpc/h)^3   ShotnoiseSubtracted = true
      0.0200456         17228.4         17616.7 
      0.0350414         12726.3         13279.5 
      0.0492313            9827         10032.5 
      0.0637834         8507.67         8380.39 
      0.0800726         6632.58         6544.17 
       0.096163         4680.83         4844.25 
       0.111083         3841.62         3999.65 
       0.126058         3534.24         3523.86 
       0.142273         3002.84         2899.35 
       0.158546         2617.11         2324.84 
        0.17375         2127.85         2026.33 
       0.188953         2069.61         1822.18 
       0.204907         1931.25          1569.4 
       0.220756         1671.95         1337.39 
        0.23588         1492.89         1194.23 
         0.2514          1301.9         1084.71 
       0.267535         1293.06         962.448 
       0.283568            1173         849.527 
       0.299022         1106.67         769.647 
       0.314451         1054.65         705.486 
       0.330372         970.388         639.989 
       0.346141           913.7         579.663 
       0.361624         877.482         531.569 
       0.377134         815.621         490.979 
       0.392932          786.36         452.018 
       0.408854         764.466         415.599 
       0.424564         713.456         384.643 
       0.440253         700.487         357.657 
       0.455999         667.925         332.639 
       0.471626         637.869         309.716 
        0.48727         614.462         289.158 
       0.502856         597.646         270.828 
       0.518488         590.235         253.926 
       0.534347         551.915         238.078 
       0.550082         533.432         223.735 
       0.565732         533.101         210.738 
       0.581496         501.621         198.678 
       0.597222         493.797         187.537 
       0.612804         481.066         177.337 
       0.628434         465.198         167.904 
       0.644267         452.785         159.055 
       0.660051         438.306         150.864 
       0.675724         434.861         143.298 
       0.691403         420.407         136.246 
       0.707174         406.091          129.63 
       0.722871         401.742         123.481 
        0.73838         395.269         117.797 
       0.754018         383.679         112.429 
       0.769845         373.882         107.337 
        0.78569         370.644         102.557 
       0.801365         359.357         98.1158 
       0.817031         348.643         93.9414 
       0.832809         345.722         89.9842 
       0.848511         336.811         86.2735 
       0.864097         329.362         82.7982 
       0.879701          324.75         79.5117 
       0.895507         319.521         76.3654 
       0.911279         309.041         73.3964 
        0.92691         306.232         70.6104 
       0.942635          299.29         67.9541 
       0.958396         292.886         65.4293 
       0.974128         288.081         63.0378 
       0.989692         283.496         60.7897 
        1.00528         278.664         58.6484 
        1.02113         276.132          56.577 
        1.03692         268.835         54.6136 
        1.05264         265.392         52.7527 
        1.06832         259.408         50.9817 
        1.08405         254.705         49.2875 
        1.09979         250.627         47.6696 
        1.11537         246.088         46.1406 
        1.13105         240.436         44.6696 
        1.14679          239.25         43.2574 
        1.16256         233.998         41.9036 
        1.17828         230.352         40.6123 
        1.19395         226.332         39.3799 
         1.2097         225.216         38.1926 
        1.22537         219.311         37.0601 
          1.241         218.297          35.977 
        1.25666         212.893         34.9346 
        1.27241         210.337         33.9287 
        1.28819         207.165         32.9608 
        1.30392         202.759         32.0336 
        1.31957         202.849         31.1462 
        1.33529         198.041         30.2893 
        1.35108           193.9         29.4613 
        1.36674         192.822         28.6702 
         1.3824         190.029          27.909 
        1.39811         188.673         27.1729 
        1.41389          184.59         26.4606 
        1.42964         181.892         25.7751 
        1.44531         179.102         25.1173 
        1.46101          177.54          24.481 
        1.47667         173.414         23.8688 
        1.49229         171.499         23.2792 
        1.50793         168.949         22.7088 
        1.52367         167.254         22.1539 
        1.53953         164.084         21.6139 
        1.55526         161.104         21.0962 
        1.57092         160.093         20.5976 
        1.58662         157.347          20.114 
        1.60235         155.135          19.645 
        1.61809         153.748         19.1907 
        1.63369         150.728         18.7549 
        1.64941         147.927         18.3295 
        1.66519         146.865         17.9158 
        1.68085         145.544         17.5178 
        1.69652         142.609         17.1318 
        1.71228         140.452         16.7552 
        1.72806         138.666         16.3897 
        1.74368         137.536         16.0387 
        1.75933         135.129         15.6974 
        1.77505         133.396         15.3644 
        1.79081         132.472         15.0404 
         1.8065         130.544         14.7272 
        1.82218         127.987         14.4232 
        1.83797         126.902         14.1257 
        1.85367         125.218         13.8383 
        1.86928          123.42         13.5606 
        1.88497         121.113          13.289 
        1.90073         120.091         13.0238 
        1.91647         118.433         12.7661 
        1.93218         116.827         12.5159 
        1.94787         115.398         12.2728 
        1.96363         113.649         12.0352 
        1.97935          111.69         11.8044 
        1.99499         110.472         11.5809 
        2.01064         109.182         11.3629 
         2.0264         107.594         11.1492 
        2.04216          106.62          10.941 
        2.05781         105.353         10.7395 
        2.07353         104.191         10.5424 
        2.08928         102.155         10.3497 
        2.10499         100.558         10.1624 
        2.12065         99.8217         9.98031 
        2.13633         98.9275          9.8025 
        2.15211         97.1371         9.62789 
        2.16785         95.4607         9.45801 
        2.18349         94.6405         9.29329 
        2.19916          93.717         9.13216 
        2.21489           92.62         8.97431 
        2.23063         90.9798         8.82008 
         2.2463         89.9968         8.67017 
        2.26194         89.4479         8.52412 
        2.27765         87.8291         8.38069 
        2.29341          87.039         8.24018 
        2.30914         85.6949         8.10318 
        2.32486         85.0416         7.96937 
        2.34061         83.8267         7.83836 
        2.35635         82.3205         7.71042 
        2.37203         81.3284         7.58577 
        2.38768         80.5555         7.46413 
        2.40339         79.7234         7.34472 
        2.41914         78.3192         7.22765 
        2.43483         77.6287         7.11354 
         2.4505         76.6513         7.00208 
        2.46622          75.568         6.89263 
        2.48195          74.791         6.78551 
        2.49759         74.0435         6.68123 
        2.51328         73.1759         6.57888 
        2.52906         72.0458         6.47802 
        2.54479         71.4753         6.37965 
        2.56049         70.6075         6.28352 
        2.57618         69.9076         6.18944 
        2.59189         68.8291         6.09715 
        2.60758         68.1831         6.00689 
        2.62325         67.3172         5.91856 
        2.63898         66.5967          5.8317 
        2.65468          65.645         5.74677 
        2.67044         64.8696         5.66316 
        2.68618          64.235         5.58141 
        2.70184         63.8806         5.50159 
        2.71755         63.1351         5.42314 
        2.73329         62.1954         5.34609 
        2.74897         61.6304          5.2708 
        2.76462         60.8065         5.19711 
        2.78034         59.9791         5.12453 
        2.79607         59.2112         5.05327 
        2.81179         58.7755         4.98343 
        2.82749         58.0332           4.915 
        2.84321         57.4332         4.84777 
        2.85893         56.7006         4.78181 
        2.87462         56.0588          4.7172 
        2.89033         55.4364         4.65372 
        2.90605         54.6853         4.59135 
        2.92176         54.4894         4.53016 
        2.93747         53.8515         4.47011 
        2.95318         53.1856         4.41114 
        2.96891         52.4905          4.3532 
        2.98456         51.9687         4.29656 
        3.00023         51.2471         4.24084 
        3.01596         50.8388         4.18594 
        3.03164          50.189         4.13216 
        3.04738         49.5805         4.07917 
         3.0631         49.1442         4.02713 
        3.07883         48.5064         3.97599 
        3.09456         48.2747         3.92575 
        3.11026         47.4177         3.87645 
        3.12596         47.0423         3.82801 
        3.14163         46.5022          3.7805 
        3.15734         46.1676         3.73368 
        3.17308         45.6087         3.68755 
        3.18879         45.2163         3.64232 
        3.20447         44.3697         3.59791 
         3.2202         44.3091         3.55411 
         3.2359          43.725         3.51111 
        3.25157         43.3416         3.46893 
        3.26729         42.9295         3.42731 
        3.28304         42.3544         3.38629 
        3.29877         41.9459         3.34599 
        3.31446         41.4444         3.30644 
        3.33014         41.1816         3.26756 
        3.34585         40.8704         3.22925 
        3.36158         40.3787         3.19149 
        3.37727         39.8428         3.15445 
        3.39294         39.4822         3.11804 
        3.40867          38.981         3.08206 
        3.42439         38.6497         3.04668 
        3.44008         38.2133         3.01192 
        3.45578         37.7881         2.97767 
        3.47153         37.4342         2.94388 
        3.48724         37.2485         2.91067 
        3.50292         36.8835         2.87805 
        3.51859         36.3372         2.84595 
        3.53431         35.9035         2.81424 
        3.55007          35.627         2.78293 
        3.56577         35.2731         2.75222 
        3.58146         34.8643         2.72198 
        3.59719         34.5384         2.69213 
        3.61292         34.2805         2.66274 
        3.62859         34.0652          2.6339 
        3.64429         33.6017         2.60542 
        3.66003         33.2751         2.57729 
        3.67578         32.8766         2.54957 
        3.69146         32.6088         2.52237 
        3.70712         32.3543         2.49561 
        3.72284         31.9725         2.46914 
        3.73853         31.7374         2.44311 
        3.75422         31.4522         2.41743 
        3.76993         31.1572         2.39211 
        3.78564         30.8442         2.36715 
        3.80137         30.4946         2.34251 
        3.81707         30.1556         2.31827 
        3.83279         29.9745         2.29436 
        3.84853         29.7107         2.27074 
        3.86424         29.3201          2.2475 
        3.87992         29.1208         2.22462 
        3.89561         28.8328         2.20206 
        3.91134         28.5991         2.17976 
        3.92704         28.3249          2.1578 
        3.94273         27.9881         2.13616 
        3.95845         27.7204         2.11478 
        3.97418         27.5678         2.09369 
        3.98988         27.2431         2.07291 
        4.00554         26.9631         2.05247 
        4.02125         26.7954         2.03225 
        4.03698          26.487         2.01226 
        4.05268         26.3867         1.99259 
        4.06839         26.0352         1.97317 
         4.0841         25.7934         1.95402 
        4.09983          25.575         1.93509 
        4.11555         25.3689         1.91642 
        4.13124          25.078         1.89804 
        4.14693         24.8877         1.87989 
        4.16266         24.6782         1.86194 
        4.17839         24.3732         1.84423 
        4.19408         24.2526         1.82679 
        4.20977         23.9825         1.80957 
        4.22551         23.8527         1.79253 
        4.24123         23.6062         1.77572 
        4.25691          23.403         1.75918 
        4.27259         23.1764         1.74284 
        4.28831         22.9406         1.72668 
        4.30404         22.7749          1.7107 
        4.31974         22.6192         1.69496 
        4.33543         22.3687         1.67943 
        4.35116         22.2269         1.66406 
        4.36688         21.9603         1.64888 
        4.38255         21.8055         1.63395 
        4.39825         21.5793         1.61917 
        4.41398         21.3931         1.60454 
         4.4297         21.2326         1.59011 
        4.44541         21.0931         1.57586 
        4.46111         20.8969          1.5618 
        4.47683           20.71         1.54789 
        4.49251         20.5206         1.53419 
        4.50819         20.3051         1.52065 
         4.5239          20.173         1.50726 
        4.53962         20.0026         1.49401 
        4.55535         19.8162         1.48091 
        4.57106         19.7138         1.46799 
        4.58678         19.5202         1.45522 
         4.6025         19.3775          1.4426 
        4.61821         19.2093         1.43013 
        4.63391         18.9952         1.41782 
         4.6496         18.9063         1.40566 
        4.66532         18.7063         1.39363 
        4.68103         18.5424         1.38174 
        4.69673         18.4164         1.37001 
        4.71241         18.2237         1.35842 
        4.72811         18.0783         1.34694 
        4.74384         17.9541         1.33558 
        4.75955         17.8053         1.32437 
        4.77525         17.6626          1.3133 
        4.79096         17.5257         1.30234 
        4.80669          17.392         1.29149 
         4.8224         17.1859         1.28079 
        4.83809         17.0719         1.27021 
        4.85379         16.9575         1.25975 
         4.8695         16.8048          1.2494 
        4.88521         16.6994         1.23917 
        4.90093         16.5642         1.22905 
        4.91663          16.426         1.21905 
        4.93234         16.2601         1.20915 
        4.94807         16.1465         1.19936 
        4.96377         16.0177         1.18969 
        4.97943         15.9192         1.18015 
        4.99514         15.7876         1.17069 
        5.01086         15.6564         1.16133 
        5.02654         15.5236         1.15209 
        5.04227         15.4151         1.14293 
          5.058         15.2746         1.13386 
        5.07371         15.2048          1.1249 
        5.08942         15.0694         1.11604 
        5.10513         14.9576         1.10728 
        5.12084         14.8125         1.09861 
        5.13656         14.6764         1.09003 
        5.15225         14.6005         1.08155 
        5.16796         14.4677         1.07315 
        5.18369         14.3807         1.06484 
         5.1994         14.2679         1.05663 
        5.21509          14.143         1.04851 
        5.23079          14.057         1.04046 
        5.24649         13.9359         1.03251 
        5.26217         13.8422         1.02464 
        5.27788         13.7135         1.01685 
        5.29359         13.5896         1.00914 
        5.30933         13.5248         1.00149 
        5.32504         13.4051        0.993936 
        5.34073         13.3213        0.986468 
        5.35646         13.2306        0.979062 
        5.37218         13.1057         0.97173 
        5.38789         12.9956        0.964485 
        5.40357          12.926        0.957323 
        5.41929         12.8102        0.950216 
        5.43502         12.7193        0.943181 
         5.4507         12.6351        0.936234 
        5.46639         12.5303        0.929356 
        5.48212         12.4434        0.922531 
        5.49786         12.3861        0.915766 
        5.51353         12.2546        0.909102 
        5.52921          12.165        0.902498 
        5.54495         12.1085         0.89594 
        5.56066         11.9968        0.889454 
        5.57637          11.906        0.883033 
        5.59207         11.7978        0.876681 
        5.60778         11.7391        0.870388 
        5.62346         11.6541        0.864167 
        5.63916         11.5394           0.858 
        5.65487         11.4771         0.85189 
         5.6706         11.4027        0.845832 
        5.68633         11.2987        0.839831 
        5.70203         11.2513          0.8339 
        5.71773         11.1555        0.828028 
        5.73344         11.0702        0.822208 
        5.74916         10.9793         0.81644 
        5.76486         10.9145        0.810734 
        5.78054         10.8404        0.805092 
        5.79626         10.7337        0.799487 
          5.812         10.6768         0.79393 
         5.8277         10.6015        0.788442 
        5.84339         10.5244        0.783006 
        5.85911         10.4375         0.77761 
        5.87484         10.3748        0.772267 
        5.89053         10.3121        0.766983 
        5.90623          10.214        0.761747 
        5.92195         10.1555        0.756551 
        5.93767         10.0935        0.751406 
        5.95336         10.0307        0.746317 
        5.96905         9.94663        0.741277 
        5.98476         9.89289        0.736276 
        6.00048         9.82185         0.73132 
        6.01617         9.75855        0.726416 
        6.03185         9.66243        0.721562 
        6.04756          9.5974        0.716742 
        6.06331         9.54166        0.711955 
        6.07903         9.48754        0.707222 
        6.09473         9.41389        0.702536 
        6.11044         9.36409        0.697888 
        6.12616         9.28319        0.693283 
        6.14186         9.22365        0.688724 
        6.15755         9.15906        0.684206 
        6.17326         9.10514        0.679726 
        6.18898         9.06103        0.675283 
        6.20467         8.96843        0.670887 
        6.22036         8.92235        0.666531 
         6.2361         8.85631        0.662202 
         6.2518         8.79121        0.657919 
        6.26748         8.74275        0.653682 
        6.28319         8.67822        0.649471 
        6.29893         8.63164        0.645294 
        6.31463         8.56127         0.64116 
        6.33033         8.51196        0.637064 
        6.34604         8.44749        0.633001 
        6.36177         8.39708        0.628969 
        6.37747         8.34714        0.624979 
