# k  (h/Mpc)    Pcb(k)  (Mpc/h)^3    Pcb_linear(k) (Mpc/h)^3   ShotnoiseSubtracted = true
      0.0200456         17953.7         18364.4 
      0.0350414         13250.9         13843.2 
      0.0492313           10234         10458.3 
      0.0637834         8866.92         8736.11 
      0.0800726         6911.57         6821.95 
       0.096163         4874.76         5049.87 
       0.111083         4003.14         4169.42 
       0.126058         3682.45         3673.43 
       0.142273         3130.07         3022.42 
       0.158546         2736.31         2423.52 
        0.17375          2223.9         2112.34 
       0.188953         2164.88         1899.53 
       0.204907         2020.65         1636.02 
       0.220756         1751.47         1394.16 
        0.23588         1565.13         1244.92 
         0.2514         1365.02         1130.76 
       0.267535         1358.13          1003.3 
       0.283568         1231.98         885.586 
       0.299022         1163.16         802.316 
       0.314451         1108.98         735.431 
       0.330372            1020         667.154 
       0.346141         964.443         604.268 
       0.361624          926.21         554.133 
       0.377134         861.102         511.819 
       0.392932         830.163         471.205 
       0.408854         808.482          433.24 
       0.424564         753.242          400.97 
       0.440253         739.706         372.839 
       0.455999         707.221         346.759 
       0.471626         676.706         322.863 
        0.48727         651.273         301.432 
       0.502856         633.416         282.324 
       0.518488         625.617         264.704 
       0.534347          585.35         248.183 
       0.550082         567.024         233.232 
       0.565732         566.395         219.683 
       0.581496         533.376         207.111 
       0.597222         524.694         195.497 
       0.612804          511.84         184.865 
       0.628434         495.567         175.031 
       0.644267         482.444         165.806 
       0.660051         466.683         157.268 
       0.675724         463.205         149.381 
       0.691403         447.575         142.029 
       0.707174         432.578         135.133 
       0.722871         428.047         128.723 
        0.73838         420.776         122.798 
       0.754018         408.931         117.201 
       0.769845         399.174         111.894 
        0.78569         394.731          106.91 
       0.801365         383.236          102.28 
       0.817031         371.897         97.9289 
       0.832809         368.856         93.8038 
       0.848511         359.614         89.9355 
       0.864097         350.877         86.3127 
       0.879701         346.029         82.8867 
       0.895507         341.294         79.6068 
       0.911279         330.198         76.5119 
        0.92691         326.623         73.6076 
       0.942635         319.209         70.8386 
       0.958396         311.769         68.2065 
       0.974128          306.86         65.7135 
       0.989692         302.471         63.3701 
        1.00528         296.805         61.1378 
        1.02113          294.38         58.9785 
        1.03692         286.292         56.9317 
        1.05264         283.274         54.9919 
        1.06832         276.434         53.1457 
        1.08405         271.675         51.3796 
        1.09979         267.072          49.693 
        1.11537         262.294         48.0991 
        1.13105         256.441         46.5657 
        1.14679         254.197         45.0935 
        1.16256         248.589         43.6822 
        1.17828         245.465         42.3362 
        1.19395         240.658         41.0515 
         1.2097         239.154         39.8137 
        1.22537         232.971         38.6331 
          1.241         232.009         37.5041 
        1.25666         226.245         36.4174 
        1.27241         223.577         35.3689 
        1.28819         220.083         34.3599 
        1.30392         215.105         33.3933 
        1.31957         215.319         32.4683 
        1.33529         210.412          31.575 
        1.35108         205.682         30.7118 
        1.36674         204.381         29.8872 
         1.3824         201.867         29.0936 
        1.39811         199.843         28.3263 
        1.41389         195.898         27.5838 
        1.42964          193.26         26.8692 
        1.44531         190.205         26.1834 
        1.46101         188.294         25.5202 
        1.47667         184.173         24.8819 
        1.49229         182.259         24.2673 
        1.50793         179.063         23.6727 
        1.52367         177.231         23.0943 
        1.53953         174.208         22.5313 
        1.55526         170.521         21.9917 
        1.57092          169.71         21.4719 
        1.58662         166.992         20.9678 
        1.60235         164.383         20.4789 
        1.61809         162.983         20.0053 
        1.63369         159.706          19.551 
        1.64941         156.541         19.1075 
        1.66519          155.78         18.6762 
        1.68085         154.148         18.2613 
        1.69652         151.086         17.8589 
        1.71228         148.596         17.4664 
        1.72806         146.737         17.0854 
        1.74368         145.336         16.7195 
        1.75933         142.801         16.3637 
        1.77505         141.206         16.0165 
        1.79081         140.131         15.6788 
         1.8065         138.101         15.3523 
        1.82218         135.499         15.0354 
        1.83797         134.555         14.7253 
        1.85367         132.517         14.4257 
        1.86928         130.496         14.1362 
        1.88497         128.377          13.853 
        1.90073         127.248         13.5766 
        1.91647         125.528          13.308 
        1.93218         123.785         13.0472 
        1.94787         122.249         12.7938 
        1.96363         120.218         12.5461 
        1.97935         118.462         12.3055 
        1.99499         116.872         12.0725 
        2.01064         115.641         11.8453 
         2.0264         113.893         11.6224 
        2.04216         112.701         11.4055 
        2.05781         111.545         11.1954 
        2.07353         110.329         10.9899 
        2.08928         108.022          10.789 
        2.10499         106.458         10.5938 
        2.12065         105.476         10.4039 
        2.13633         104.699         10.2186 
        2.15211         102.518         10.0366 
        2.16785         100.848         9.85947 
        2.18349         100.123         9.68776 
        2.19916         99.0277         9.51978 
        2.21489         97.8359         9.35523 
        2.23063         96.1631         9.19446 
         2.2463         94.9999         9.03819 
        2.26194         94.2725         8.88594 
        2.27765         92.9245         8.73642 
        2.29341         91.9309         8.58994 
        2.30914         90.6126         8.44713 
        2.32486         89.9025         8.30764 
        2.34061         88.5296         8.17108 
        2.35635         87.1248          8.0377 
        2.37203         86.0351         7.90776 
        2.38768         85.1824         7.78096 
        2.40339         84.3072         7.65648 
        2.41914         83.0044         7.53444 
        2.43483         82.0032         7.41548 
         2.4505          81.005         7.29929 
        2.46622         79.8072          7.1852 
        2.48195         79.0185         7.07353 
        2.49759         78.1198         6.96483 
        2.51328         77.3602         6.85813 
        2.52906         76.0113         6.75299 
        2.54479         75.3518         6.65045 
        2.56049         74.5596         6.55023 
        2.57618         73.7432         6.45216 
        2.59189          72.725         6.35596 
        2.60758         72.1184         6.26186 
        2.62325         71.0345         6.16979 
        2.63898         70.2431         6.07924 
        2.65468         69.3674          5.9907 
        2.67044         68.5028         5.90354 
        2.68618         67.7427         5.81832 
        2.70184         67.3752         5.73511 
        2.71755         66.6169         5.65333 
        2.73329           65.64         5.57302 
        2.74897         64.9855         5.49452 
        2.76462         64.1206         5.41771 
        2.78034         63.4157         5.34205 
        2.79607         62.4445         5.26776 
        2.81179         61.9938         5.19496 
        2.82749         61.1504         5.12362 
        2.84321         60.6343         5.05354 
        2.85893         59.8457         4.98479 
        2.87462         59.0674         4.91743 
        2.89033         58.4405         4.85125 
        2.90605          57.709         4.78624 
        2.92176           57.41         4.72245 
        2.93747         56.8177         4.65985 
        2.95318         56.0865         4.59837 
        2.96891         55.4969         4.53798 
        2.98456         54.8473         4.47893 
        3.00023         54.1614         4.42085 
        3.01596         53.6843         4.36362 
        3.03164         52.9354         4.30756 
        3.04738         52.3804         4.25232 
         3.0631          51.886         4.19807 
        3.07883         51.2462         4.14476 
        3.09456         50.8556         4.09238 
        3.11026         50.0141         4.04099 
        3.12596         49.6383         3.99049 
        3.14163         49.0714         3.94097 
        3.15734         48.7148         3.89217 
        3.17308         48.1017         3.84407 
        3.18879          47.693         3.79692 
        3.20447         46.8059         3.75063 
         3.2202         46.7116         3.70497 
         3.2359         46.1093         3.66015 
        3.25157         45.6586         3.61617 
        3.26729         45.2983         3.57278 
        3.28304         44.7305         3.53002 
        3.29877           44.28         3.48802 
        3.31446         43.7827         3.44679 
        3.33014         43.4534         3.40626 
        3.34585         43.1095         3.36632 
        3.36158         42.6075         3.32696 
        3.37727         42.1281         3.28835 
        3.39294         41.6485         3.25039 
        3.40867         41.1885         3.21289 
        3.42439         40.7842           3.176 
        3.44008         40.3729         3.13976 
        3.45578         39.9294         3.10406 
        3.47153         39.5021         3.06884 
        3.48724         39.2972         3.03422 
        3.50292          38.923         3.00022 
        3.51859         38.4364         2.96675 
        3.53431         37.9576         2.93369 
        3.55007         37.6101         2.90105 
        3.56577            37.3         2.86904 
        3.58146         36.8624         2.83752 
        3.59719         36.4806         2.80641 
        3.61292         36.1565         2.77577 
        3.62859         35.9731          2.7457 
        3.64429         35.5731         2.71602 
        3.66003         35.1475         2.68668 
        3.67578         34.7141         2.65779 
        3.69146         34.4034         2.62944 
        3.70712         34.1943         2.60154 
        3.72284         33.7582         2.57395 
        3.73853         33.4772         2.54681 
        3.75422         33.1574         2.52004 
        3.76993         32.9297         2.49364 
        3.78564         32.6257         2.46763 
        3.80137         32.2248         2.44194 
        3.81707         31.8574         2.41668 
        3.83279         31.6887         2.39175 
        3.84853         31.3586         2.36713 
        3.86424         30.9187          2.3429 
        3.87992         30.7245         2.31905 
        3.89561         30.4343         2.29553 
        3.91134         30.1413         2.27229 
        3.92704         29.9195         2.24939 
        3.94273         29.5853         2.22684 
        3.95845         29.3216         2.20455 
        3.97418         29.1307         2.18256 
        3.98988         28.7634          2.1609 
        4.00554         28.4773         2.13959 
        4.02125         28.2799         2.11851 
        4.03698         28.0077         2.09768 
        4.05268         27.8383         2.07717 
        4.06839         27.4563         2.05693 
         4.0841         27.2591         2.03696 
        4.09983         27.0002         2.01723 
        4.11555         26.7704         1.99776 
        4.13124          26.469         1.97861 
        4.14693         26.2196         1.95969 
        4.16266          26.046         1.94097 
        4.17839         25.7804         1.92251 
        4.19408          25.586         1.90433 
        4.20977         25.3359         1.88638 
        4.22551         25.1737         1.86861 
        4.24123         24.9159          1.8511 
        4.25691         24.6718         1.83385 
        4.27259         24.4762         1.81682 
        4.28831         24.2004         1.79997 
        4.30404         24.0364         1.78331 
        4.31974         23.8542         1.76691 
        4.33543          23.606         1.75072 
        4.35116         23.4663         1.73469 
        4.36688         23.2236         1.71887 
        4.38255         22.9789          1.7033 
        4.39825         22.7811          1.6879 
        4.41398         22.5518         1.67265 
         4.4297         22.4076         1.65761 
        4.44541         22.2278         1.64275 
        4.46111         22.0553         1.62809 
        4.47683         21.8621          1.6136 
        4.49251         21.6553         1.59931 
        4.50819         21.4396          1.5852 
         4.5239         21.2963         1.57123 
        4.53962         21.0946         1.55742 
        4.55535         20.9306         1.54377 
        4.57106         20.7753          1.5303 
        4.58678         20.6024         1.51699 
         4.6025         20.4592         1.50383 
        4.61821         20.2931         1.49083 
        4.63391         20.0524           1.478 
         4.6496         19.9448         1.46533 
        4.66532         19.7233         1.45279 
        4.68103         19.5609         1.44039 
        4.69673         19.4281         1.42816 
        4.71241         19.2727         1.41608 
        4.72811         19.0925         1.40411 
        4.74384         18.9617         1.39227 
        4.75955         18.7978         1.38059 
        4.77525         18.6387         1.36904 
        4.79096         18.5204         1.35762 
        4.80669         18.3802         1.34631 
         4.8224         18.1469         1.33515 
        4.83809         18.0074         1.32413 
        4.85379         17.8702         1.31322 
         4.8695          17.751         1.30243 
        4.88521         17.6024         1.29177 
        4.90093         17.4929         1.28122 
        4.91663         17.3293          1.2708 
        4.93234         17.1591         1.26048 
        4.94807         17.0358         1.25027 
        4.96377         16.9021         1.24019 
        4.97943         16.8058         1.23025 
        4.99514         16.6484         1.22039 
        5.01086         16.5249         1.21062 
        5.02654         16.3903         1.20099 
        5.04227         16.2715         1.19144 
          5.058         16.1134         1.18198 
        5.07371         16.0488         1.17265 
        5.08942         15.9099         1.16342 
        5.10513         15.7905         1.15428 
        5.12084         15.6134         1.14524 
        5.13656         15.4917         1.13629 
        5.15225         15.4151         1.12746 
        5.16796         15.2936         1.11871 
        5.18369         15.1515         1.11004 
         5.1994         15.0714         1.10148 
        5.21509         14.9269         1.09301 
        5.23079         14.8226         1.08463 
        5.24649         14.7173         1.07634 
        5.26217         14.6033         1.06814 
        5.27788         14.4746         1.06001 
        5.29359         14.3686         1.05197 
        5.30933         14.2636           1.044 
        5.32504         14.1592         1.03613 
        5.34073         14.0646         1.02834 
        5.35646         13.9686         1.02062 
        5.37218         13.8298         1.01298 
        5.38789         13.7291         1.00542 
        5.40357         13.6552        0.997958 
        5.41929         13.5212         0.99055 
        5.43502         13.4394        0.983216 
         5.4507         13.3535        0.975974 
        5.46639         13.2175        0.968804 
        5.48212         13.1321        0.961689 
        5.49786         13.0808        0.954637 
        5.51353         12.9354         0.94769 
        5.52921         12.8416        0.940806 
        5.54495          12.796        0.933969 
        5.56066         12.6776        0.927208 
        5.57637         12.5782        0.920514 
        5.59207         12.4642        0.913893 
        5.60778         12.3927        0.907333 
        5.62346         12.3091        0.900848 
        5.63916         12.1916        0.894419 
        5.65487          12.119         0.88805 
         5.6706         12.0307        0.881735 
        5.68633         11.9149        0.875479 
        5.70203         11.8846        0.869296 
        5.71773         11.7786        0.863175 
        5.73344         11.7042        0.857108 
        5.74916         11.6036        0.851095 
        5.76486         11.5215        0.845147 
        5.78054         11.4651        0.839265 
        5.79626         11.3388        0.833422 
          5.812         11.2899         0.82763 
         5.8277         11.2049        0.821909 
        5.84339         11.1268        0.816242 
        5.85911         11.0467        0.810617 
        5.87484         10.9645        0.805047 
        5.89053         10.8947        0.799539 
        5.90623         10.7946        0.794081 
        5.92195         10.7194        0.788664 
        5.93767         10.6479          0.7833 
        5.95336         10.5999        0.777995 
        5.96905          10.504        0.772741 
        5.98476         10.4546        0.767528 
        6.00048          10.356        0.762362 
        6.01617         10.2964         0.75725 
        6.03185         10.2097         0.75219 
        6.04756         10.1492        0.747165 
        6.06331         10.0838        0.742175 
        6.07903          10.027        0.737241 
        6.09473         9.94526        0.732356 
        6.11044         9.88515        0.727511 
        6.12616         9.82421        0.722711 
        6.14186         9.73911        0.717958 
        6.15755         9.67538        0.713249 
        6.17326         9.60072        0.708578 
        6.18898         9.57174        0.703946 
        6.20467         9.47333        0.699364 
        6.22036         9.42246        0.694823 
         6.2361         9.36331        0.690311 
         6.2518         9.30086        0.685845 
        6.26748         9.22921        0.681429 
        6.28319         9.17455        0.677039 
        6.29893         9.12376        0.672685 
        6.31463         9.02896        0.668375 
        6.33033         8.98777        0.664105 
        6.34604         8.93295        0.659869 
        6.36177         8.86974        0.655666 
        6.37747          8.8209        0.651508 
