# k  (h/Mpc)    Pcb(k)  (Mpc/h)^3    Pcb_linear(k) (Mpc/h)^3   ShotnoiseSubtracted = true
      0.0200456         144.947         146.867 
      0.0350414         110.698         110.709 
      0.0492313         83.8999         83.6392 
      0.0637834         70.0526         69.8659 
      0.0800726         54.7524         54.5577 
       0.096163         40.4801         40.3857 
       0.111083         33.2811         33.3444 
       0.126058         29.3602         29.3778 
       0.142273         24.2646         24.1714 
       0.158546         19.4987         19.3818 
        0.17375         16.8478         16.8931 
       0.188953         15.1779         15.1912 
       0.204907         13.2419         13.0839 
       0.220756         11.2208         11.1496 
        0.23588         9.99623         9.95608 
         0.2514         9.03774         9.04308 
       0.267535         8.03759         8.02376 
       0.283568         7.11301         7.08236 
       0.299022         6.45031         6.41642 
       0.314451         5.85452         5.88152 
       0.330372         5.33964         5.33547 
       0.346141         4.84007         4.83255 
       0.361624         4.44872          4.4316 
       0.377134         4.12098         4.09321 
       0.392932         3.73334          3.7684 
       0.408854         3.48634         3.46478 
       0.424564         3.20788          3.2067 
       0.440253         2.98615         2.98173 
       0.455999         2.79159         2.77316 
       0.471626         2.60631         2.58205 
        0.48727         2.41832         2.41066 
       0.502856           2.259         2.25785 
       0.518488         2.14028         2.11694 
       0.534347         2.01715         1.98481 
       0.550082         1.86985         1.86524 
       0.565732         1.74308         1.75689 
       0.581496          1.6673         1.65634 
       0.597222         1.57769         1.56346 
       0.612804          1.4847         1.47843 
       0.628434         1.41704         1.39979 
       0.644267         1.33543         1.32602 
       0.660051         1.26292         1.25773 
       0.675724         1.20359         1.19465 
       0.691403         1.14889         1.13586 
       0.707174         1.08873         1.08071 
       0.722871         1.03212         1.02944 
        0.73838        0.992617        0.982057 
       0.754018        0.952154        0.937302 
       0.769845        0.906406        0.894854 
        0.78569        0.864598        0.855001 
       0.801365        0.825217        0.817974 
       0.817031        0.792054        0.783173 
       0.832809        0.758602        0.750183 
       0.848511        0.724862        0.719247 
       0.864097        0.692542        0.690275 
       0.879701        0.664686        0.662875 
       0.895507        0.643737        0.636645 
       0.911279        0.618995        0.611893 
        0.92691        0.593614        0.588667 
       0.942635        0.572027        0.566522 
       0.958396         0.54884        0.545473 
       0.974128        0.528979        0.525535 
       0.989692        0.511664        0.506794 
        1.00528        0.494432        0.488942 
        1.02113        0.472798        0.471672 
        1.03692        0.459228        0.455304 
        1.05264        0.443534         0.43979 
        1.06832        0.429132        0.425026 
        1.08405        0.412072        0.410902 
        1.09979        0.398689        0.397413 
        1.11537        0.389159        0.384666 
        1.13105        0.376187        0.372403 
        1.14679        0.365934        0.360629 
        1.16256        0.350726        0.349343 
        1.17828        0.340266        0.338578 
        1.19395        0.329121        0.328304 
         1.2097        0.318456        0.318405 
        1.22537        0.311704        0.308963 
          1.241        0.301742        0.299934 
        1.25666        0.294585        0.291244 
        1.27241        0.284334        0.282858 
        1.28819        0.276066        0.274789 
        1.30392        0.268548        0.267058 
        1.31957        0.261308        0.259661 
        1.33529        0.253333        0.252517 
        1.35108        0.246329        0.245614 
        1.36674        0.237865        0.239019 
         1.3824        0.234643        0.232672 
        1.39811        0.226985        0.226536 
        1.41389        0.221288        0.220598 
        1.42964        0.216439        0.214883 
        1.44531        0.209074        0.209398 
        1.46101        0.204766        0.204094 
        1.47667        0.198001         0.19899 
        1.49229         0.19422        0.194074 
        1.50793        0.188483        0.189319 
        1.52367        0.184459        0.184693 
        1.53953        0.180314        0.180191 
        1.55526        0.176028        0.175875 
        1.57092        0.170494        0.171719 
        1.58662        0.167389        0.167687 
        1.60235        0.163951        0.163777 
        1.61809        0.158601         0.15999 
        1.63369        0.156241        0.156356 
        1.64941        0.152501         0.15281 
        1.66519        0.148466        0.149361 
        1.68085        0.144772        0.146043 
        1.69652        0.141426        0.142824 
        1.71228        0.139205        0.139685 
        1.72806        0.134891        0.136638 
        1.74368        0.132907        0.133712 
        1.75933        0.129839        0.130866 
        1.77505        0.126805         0.12809 
        1.79081        0.124626        0.125389 
         1.8065        0.121032        0.122778 
        1.82218         0.11895        0.120244 
        1.83797        0.116247        0.117764 
        1.85367        0.113997        0.115367 
        1.86928        0.111882        0.113052 
        1.88497        0.109758        0.110788 
        1.90073        0.107182        0.108577 
        1.91647        0.104868        0.106429 
        1.93218        0.102595        0.104343 
        1.94787        0.100458        0.102316 
        1.96363        0.098803        0.100336 
        1.97935       0.0964042       0.0984113 
        1.99499       0.0948636       0.0965483 
        2.01064       0.0932131       0.0947309 
         2.0264       0.0913016       0.0929489 
        2.04216        0.089598       0.0912136 
        2.05781       0.0878827       0.0895336 
        2.07353       0.0856803       0.0878899 
        2.08928       0.0842647       0.0862839 
        2.10499       0.0824913       0.0847223 
        2.12065       0.0814152       0.0832041 
        2.13633       0.0794566       0.0817218 
        2.15211       0.0785947        0.080266 
        2.16785       0.0769203       0.0788498 
        2.18349       0.0750354       0.0774766 
        2.19916       0.0744515       0.0761332 
        2.21489       0.0731205       0.0748172 
        2.23063       0.0716265       0.0735315 
         2.2463       0.0701162       0.0722817 
        2.26194       0.0688276       0.0710641 
        2.27765       0.0676346       0.0698683 
        2.29341       0.0667948       0.0686969 
        2.30914       0.0653153       0.0675548 
        2.32486       0.0641999       0.0664393 
        2.34061       0.0632004       0.0653471 
        2.35635        0.061979       0.0642804 
        2.37203       0.0610869       0.0632412 
        2.38768       0.0599557       0.0622272 
        2.40339       0.0589393       0.0612317 
        2.41914       0.0582129       0.0602557 
        2.43483       0.0568758       0.0593043 
         2.4505       0.0559037       0.0583751 
        2.46622       0.0551009       0.0574626 
        2.48195       0.0540355       0.0565696 
        2.49759        0.053501       0.0557003 
        2.51328         0.05273        0.054847 
        2.52906       0.0517138       0.0540062 
        2.54479       0.0508748       0.0531861 
        2.56049       0.0500644       0.0523846 
        2.57618       0.0493027       0.0516003 
        2.59189       0.0485265       0.0508309 
        2.60758       0.0479493       0.0500784 
        2.62325       0.0470351        0.049342 
        2.63898        0.046328       0.0486179 
        2.65468        0.045429       0.0479098 
        2.67044       0.0450384       0.0472128 
        2.68618       0.0442785       0.0465312 
        2.70184        0.043537       0.0458658 
        2.71755       0.0427385       0.0452118 
        2.73329       0.0422336       0.0445695 
        2.74897       0.0417315       0.0439417 
        2.76462       0.0409605       0.0433274 
        2.78034       0.0404115       0.0427224 
        2.79607        0.039865       0.0421282 
        2.81179       0.0392819        0.041546 
        2.82749       0.0386365       0.0409755 
        2.84321       0.0381144        0.040415 
        2.85893       0.0375559       0.0398652 
        2.87462       0.0372113       0.0393265 
        2.89033       0.0365843       0.0387973 
        2.90605       0.0359111       0.0382773 
        2.92176       0.0356148       0.0377671 
        2.93747       0.0350668       0.0372665 
        2.95318       0.0344393       0.0367749 
        2.96891       0.0340947       0.0362919 
        2.98456       0.0337053       0.0358197 
        3.00023       0.0331097       0.0353552 
        3.01596       0.0325979       0.0348974 
        3.03164       0.0323462       0.0344491 
        3.04738        0.031865       0.0340074 
         3.0631       0.0313124       0.0335735 
        3.07883       0.0308895       0.0331472 
        3.09456       0.0306626       0.0327283 
        3.11026       0.0301436       0.0323173 
        3.12596       0.0298857       0.0319134 
        3.14163       0.0294087       0.0315174 
        3.15734       0.0290637       0.0311271 
        3.17308       0.0286647       0.0307425 
        3.18879       0.0282636       0.0303654 
        3.20447       0.0280143       0.0299952 
         3.2202       0.0276206         0.02963 
         3.2359       0.0273357       0.0292715 
        3.25157       0.0269095       0.0289199 
        3.26729       0.0266308       0.0285729 
        3.28304        0.026277       0.0282309 
        3.29877       0.0259966        0.027895 
        3.31446       0.0256347       0.0275652 
        3.33014       0.0253351       0.0272411 
        3.34585       0.0250645       0.0269217 
        3.36158       0.0246541       0.0266069 
        3.37727       0.0244778       0.0262981 
        3.39294       0.0242144       0.0259945 
        3.40867       0.0239265       0.0256946 
        3.42439       0.0236615       0.0253996 
        3.44008        0.023379       0.0251098 
        3.45578       0.0231644       0.0248243 
        3.47153       0.0228416       0.0245426 
        3.48724       0.0227225       0.0242658 
        3.50292       0.0223119       0.0239938 
        3.51859       0.0220202       0.0237262 
        3.53431       0.0219286       0.0234618 
        3.55007       0.0216722       0.0232008 
        3.56577       0.0214722       0.0229448 
        3.58146       0.0211525       0.0226927 
        3.59719        0.020998       0.0224439 
        3.61292       0.0206988       0.0221988 
        3.62859       0.0204935       0.0219583 
        3.64429       0.0203545        0.021721 
        3.66003       0.0200972       0.0214864 
        3.67578       0.0199028       0.0212553 
        3.69146       0.0197309       0.0210286 
        3.70712       0.0195823       0.0208055 
        3.72284       0.0193342       0.0205848 
        3.73853       0.0191185       0.0203678 
        3.75422       0.0190418       0.0201537 
        3.76993       0.0187584       0.0199426 
        3.78564       0.0186378       0.0197345 
        3.80137       0.0184439       0.0195291 
        3.81707       0.0182074        0.019327 
        3.83279       0.0180859       0.0191277 
        3.84853       0.0179243       0.0189308 
        3.86424       0.0177453        0.018737 
        3.87992        0.017598       0.0185463 
        3.89561       0.0174763       0.0183582 
        3.91134       0.0173186       0.0181723 
        3.92704       0.0170866       0.0179892 
        3.94273       0.0169439       0.0178088 
        3.95845       0.0168063       0.0176306 
        3.97418       0.0166884       0.0174547 
        3.98988       0.0164943       0.0172815 
        4.00554       0.0163169       0.0171111 
        4.02125       0.0161215       0.0169425 
        4.03698       0.0159929       0.0167759 
        4.05268       0.0157751       0.0166119 
        4.06839        0.015512         0.01645 
         4.0841       0.0153593       0.0162903 
        4.09983       0.0151367       0.0161325 
        4.11555       0.0149974       0.0159768 
        4.13124       0.0147894       0.0158236 
        4.14693        0.014596       0.0156723 
        4.16266       0.0144288       0.0155227 
        4.17839       0.0142666        0.015375 
        4.19408       0.0141425       0.0152296 
        4.20977       0.0139624       0.0150861 
        4.22551       0.0137735        0.014944 
        4.24123       0.0136409       0.0148039 
        4.25691       0.0135257        0.014666 
        4.27259       0.0133838       0.0145298 
        4.28831       0.0132994        0.014395 
        4.30404       0.0131692       0.0142618 
        4.31974       0.0130199       0.0141306 
        4.33543       0.0129316       0.0140011 
        4.35116       0.0128289       0.0138729 
        4.36688       0.0127305       0.0137464 
        4.38255       0.0126506       0.0136219 
        4.39825       0.0125766       0.0134987 
        4.41398       0.0125453       0.0133768 
         4.4297       0.0124543       0.0132565 
        4.44541       0.0123829       0.0131377 
        4.46111       0.0122922       0.0130204 
        4.47683       0.0122565       0.0129045 
        4.49251       0.0121907       0.0127903 
        4.50819       0.0121392       0.0126774 
         4.5239       0.0121073       0.0125657 
        4.53962       0.0120701       0.0124553 
        4.55535        0.012056       0.0123461 
        4.57106       0.0120708       0.0122384 
        4.58678       0.0119983       0.0121319 
         4.6025       0.0120081       0.0120267 
        4.61821        0.012021       0.0119227 
        4.63391        0.011995       0.0118201 
         4.6496       0.0120089       0.0117188 
        4.66532       0.0119929       0.0116185 
        4.68103       0.0120337       0.0115194 
        4.69673       0.0120323       0.0114215 
        4.71241       0.0121006       0.0113249 
        4.72811       0.0120915       0.0112292 
        4.74384       0.0121397       0.0111345 
        4.75955       0.0121825       0.0110411 
        4.77525       0.0122358       0.0109487 
        4.79096       0.0123116       0.0108574 
        4.80669       0.0122967        0.010767 
         4.8224       0.0124447       0.0106777 
        4.83809       0.0124488       0.0105896 
        4.85379       0.0125899       0.0105023 
         4.8695        0.012606        0.010416 
        4.88521       0.0126825       0.0103307 
        4.90093       0.0128059       0.0102464 
        4.91663       0.0129563        0.010163 
        4.93234       0.0130231       0.0100805 
        4.94807       0.0131155      0.00999887 
        4.96377       0.0132139      0.00991828 
        4.97943       0.0133683      0.00983874 
        4.99514       0.0134922      0.00975987 
        5.01086        0.013573       0.0096818 
        5.02654       0.0137835      0.00960479 
        5.04227       0.0139233      0.00952838 
          5.058        0.014052      0.00945277 
        5.07371       0.0142047      0.00937812 
        5.08942       0.0144799      0.00930427 
        5.10513       0.0145863      0.00923121 
        5.12084       0.0147205      0.00915889 
        5.13656       0.0149373      0.00908736 
        5.15225       0.0151467      0.00901671 
        5.16796       0.0154147      0.00894671 
        5.18369       0.0155363      0.00887737 
         5.1994       0.0157815       0.0088089 
        5.21509       0.0160281      0.00874121 
        5.23079       0.0161929      0.00867415 
        5.24649       0.0164763      0.00860785 
        5.26217       0.0167178      0.00854228 
        5.27788        0.017018      0.00847731 
        5.29359       0.0172676      0.00841299 
        5.30933       0.0175379      0.00834925 
        5.32504       0.0177722      0.00828627 
        5.34073        0.018151      0.00822402 
        5.35646       0.0184044      0.00816227 
        5.37218       0.0187239      0.00810115 
        5.38789        0.019123      0.00804075 
        5.40357       0.0193975      0.00798103 
        5.41929       0.0196642      0.00792179 
        5.43502       0.0200885      0.00786314 
         5.4507       0.0204784      0.00780522 
        5.46639        0.020923      0.00774788 
        5.48212       0.0211069      0.00769098 
        5.49786       0.0215796      0.00763458 
        5.51353       0.0221038      0.00757903 
        5.52921       0.0225468      0.00752397 
        5.54495       0.0229714      0.00746929 
        5.56066       0.0234219      0.00741522 
        5.57637        0.023923      0.00736169 
        5.59207       0.0242868      0.00730873 
        5.60778       0.0248556      0.00725628 
        5.62346       0.0253948      0.00720441 
        5.63916       0.0258213        0.007153 
        5.65487       0.0264818      0.00710206 
         5.6706       0.0268075      0.00705156 
        5.68633       0.0275569      0.00700153 
        5.70203       0.0281791      0.00695208 
        5.71773       0.0287685      0.00690312 
        5.73344       0.0293341      0.00685461 
        5.74916       0.0301317      0.00680652 
        5.76486       0.0306958      0.00675895 
        5.78054       0.0311819      0.00671191 
        5.79626       0.0320566      0.00666519 
          5.812       0.0326753      0.00661886 
         5.8277        0.033564      0.00657311 
        5.84339        0.034145      0.00652779 
        5.85911       0.0351382       0.0064828 
        5.87484       0.0359317      0.00643825 
        5.89053       0.0367782      0.00639421 
        5.90623       0.0376277      0.00635056 
        5.92195       0.0386754      0.00630723 
        5.93767       0.0394285      0.00626434 
        5.95336       0.0404034      0.00622191 
        5.96905       0.0412504       0.0061799 
        5.98476       0.0419621      0.00613821 
        6.00048        0.043222      0.00609689 
        6.01617       0.0441437        0.006056 
        6.03185       0.0452504      0.00601554 
        6.04756       0.0465238      0.00597535 
        6.06331       0.0475728      0.00593545 
        6.07903       0.0488707      0.00589599 
        6.09473       0.0500531      0.00585692 
        6.11044       0.0514434      0.00581817 
        6.12616       0.0528862      0.00577978 
        6.14186       0.0539002      0.00574177 
        6.15755       0.0553153      0.00570411 
        6.17326       0.0562891      0.00566676 
        6.18898       0.0581414      0.00562972 
        6.20467       0.0598897      0.00559307 
        6.22036       0.0613147      0.00555676 
         6.2361       0.0626561      0.00552067 
         6.2518       0.0647267      0.00548496 
        6.26748       0.0657892      0.00544964 
        6.28319       0.0681883      0.00541453 
        6.29893       0.0699108      0.00537971 
        6.31463       0.0716139      0.00534524 
        6.33033       0.0733044      0.00531109 
        6.34604       0.0752752      0.00527722 
        6.36177       0.0775896       0.0052436 
        6.37747        0.079159      0.00521035 
