# k  (h/Mpc)    Pcb(k)  (Mpc/h)^3    Pcb_linear(k) (Mpc/h)^3   ShotnoiseSubtracted = true
      0.0200456         3518.79         3573.61 
      0.0350414         2654.73          2693.8 
      0.0492313         2032.46         2035.13 
      0.0637834         1722.02            1700 
      0.0800726         1346.35         1327.51 
       0.096163         972.682         982.675 
       0.111083         795.221         811.345 
       0.126058         720.104         714.829 
       0.142273         602.913         588.146 
       0.158546         491.035         471.603 
        0.17375         412.654         411.048 
       0.188953         384.345         369.637 
       0.204907         349.684          318.36 
       0.220756         293.371         271.295 
        0.23588         260.428         242.254 
         0.2514         231.799         220.039 
       0.267535         213.568         195.236 
       0.283568         192.279          172.33 
       0.299022         177.055         156.126 
       0.314451         160.017         143.111 
       0.330372         148.076         129.824 
       0.346141          133.85         117.587 
       0.361624         125.798         107.831 
       0.377134         118.713         99.5971 
       0.392932          106.14         91.6938 
       0.408854         102.091          84.306 
       0.424564         97.2509         78.0264 
       0.440253         90.0523         72.5522 
       0.455999         84.9332         67.4772 
       0.471626         78.9173         62.8272 
        0.48727          76.096          58.657 
       0.502856         71.8832         54.9386 
       0.518488         68.9965         51.5099 
       0.534347         66.2489          48.295 
       0.550082         60.8741         45.3855 
       0.565732         57.4781         42.7491 
       0.581496         55.8715         40.3026 
       0.597222         54.0593         38.0426 
       0.612804         50.7665         35.9736 
       0.628434         49.2467           34.06 
       0.644267         47.9483          32.265 
       0.660051          45.837         30.6034 
       0.675724         43.6165         29.0686 
       0.691403         42.2728         27.6381 
       0.707174          41.047         26.2961 
       0.722871         39.4273         25.0487 
        0.73838         38.2407         23.8957 
       0.754018         36.5854         22.8067 
       0.769845         35.6278         21.7738 
        0.78569         34.5564         20.8041 
       0.801365          33.312         19.9032 
       0.817031         32.5469         19.0564 
       0.832809         31.9162         18.2537 
       0.848511         30.0565         17.5009 
       0.864097         29.5375          16.796 
       0.879701         28.9124         16.1293 
       0.895507         28.2794          15.491 
       0.911279          27.397         14.8888 
        0.92691         26.7191         14.3236 
       0.942635         25.7333         13.7848 
       0.958396         25.3203         13.2726 
       0.974128         24.5548         12.7875 
       0.989692         24.3142         12.3314 
        1.00528         23.7212         11.8971 
        1.02113         22.8013         11.4769 
        1.03692         22.3583         11.0786 
        1.05264         21.9262         10.7011 
        1.06832           21.44         10.3418 
        1.08405         20.8916         9.99818 
        1.09979          20.471         9.66997 
        1.11537         20.0651          9.3598 
        1.13105         19.7475         9.06142 
        1.14679          19.468         8.77493 
        1.16256         18.7721         8.50031 
        1.17828         18.7344         8.23837 
        1.19395         18.0854         7.98838 
         1.2097         17.9282         7.74752 
        1.22537         17.4754         7.51778 
          1.241         17.2112         7.29808 
        1.25666          16.787         7.08662 
        1.27241         16.4616         6.88257 
        1.28819          16.152         6.68623 
        1.30392         16.0186         6.49814 
        1.31957         15.7836         6.31814 
        1.33529         15.5103         6.14431 
        1.35108         15.1332         5.97634 
        1.36674           14.99         5.81587 
         1.3824         14.6321         5.66145 
        1.39811         14.4138         5.51213 
        1.41389         14.2511         5.36764 
        1.42964         14.0621         5.22858 
        1.44531         13.8919         5.09514 
        1.46101         13.5064         4.96608 
        1.47667         13.3616         4.84188 
        1.49229          13.196         4.72227 
        1.50793         12.9855         4.60657 
        1.52367         12.7869         4.49401 
        1.53953         12.6206         4.38446 
        1.55526          12.426         4.27945 
        1.57092         12.2613         4.17831 
        1.58662         12.1167         4.08021 
        1.60235         11.9185         3.98507 
        1.61809         11.7817         3.89292 
        1.63369         11.6072         3.80451 
        1.64941         11.4219         3.71821 
        1.66519         11.3363         3.63429 
        1.68085         11.1528         3.55355 
        1.69652         10.9927         3.47525 
        1.71228         10.8373         3.39886 
        1.72806         10.7854         3.32471 
        1.74368         10.5894         3.25352 
        1.75933         10.4794         3.18427 
        1.77505         10.3402         3.11672 
        1.79081         10.1637         3.05101 
         1.8065         10.1012         2.98748 
        1.82218         9.92292         2.92581 
        1.83797         9.86235         2.86546 
        1.85367         9.69405         2.80715 
        1.86928          9.6928         2.75081 
        1.88497         9.46154         2.69572 
        1.90073          9.4134         2.64193 
        1.91647         9.34264         2.58965 
        1.93218         9.23512          2.5389 
        1.94787          9.0818         2.48959 
        1.96363         9.02122         2.44139 
        1.97935         8.87696         2.39457 
        1.99499         8.76182         2.34924 
        2.01064         8.67487         2.30502 
         2.0264         8.59719         2.26166 
        2.04216         8.51066         2.21944 
        2.05781         8.39105         2.17856 
        2.07353         8.33013         2.13856 
        2.08928         8.25773         2.09948 
        2.10499         8.20312         2.06149 
        2.12065         8.07215         2.02455 
        2.13633         8.03479         1.98848 
        2.15211         7.90975         1.95306 
        2.16785         7.84103         1.91859 
        2.18349         7.77856         1.88518 
        2.19916         7.69521         1.85249 
        2.21489         7.59728         1.82047 
        2.23063         7.53844         1.78919 
         2.2463         7.44195         1.75878 
        2.26194         7.35904         1.72915 
        2.27765         7.33544         1.70006 
        2.29341         7.24459         1.67155 
        2.30914         7.16143         1.64376 
        2.32486         7.07292         1.61662 
        2.34061         7.03559         1.59004 
        2.35635         6.99712         1.56409 
        2.37203         6.91343          1.5388 
        2.38768          6.8274         1.51413 
        2.40339         6.78399         1.48991 
        2.41914          6.6785         1.46616 
        2.43483         6.66776         1.44301 
         2.4505         6.59358          1.4204 
        2.46622         6.53894          1.3982 
        2.48195         6.46031         1.37647 
        2.49759         6.44356         1.35532 
        2.51328         6.35961         1.33455 
        2.52906         6.33728         1.31409 
        2.54479         6.25323         1.29414 
        2.56049         6.21341         1.27464 
        2.57618         6.15953         1.25555 
        2.59189         6.08309         1.23683 
        2.60758         6.06378         1.21852 
        2.62325         5.98892          1.2006 
        2.63898         5.92065         1.18298 
        2.65468         5.87602         1.16575 
        2.67044         5.83404         1.14879 
        2.68618         5.80128         1.13221 
        2.70184         5.73483         1.11602 
        2.71755         5.68316         1.10011 
        2.73329          5.6544         1.08448 
        2.74897         5.62333          1.0692 
        2.76462         5.57743         1.05426 
        2.78034         5.49907         1.03953 
        2.79607         5.46658         1.02508 
        2.81179         5.43925         1.01091 
        2.82749         5.36546        0.997027 
        2.84321         5.37086        0.983389 
        2.85893         5.31215         0.97001 
        2.87462         5.25551        0.956903 
        2.89033         5.21394        0.944026 
        2.90605         5.16995        0.931374 
        2.92176         5.11848        0.918961 
        2.93747         5.08897         0.90678 
        2.95318         5.06045        0.894817 
        2.96891         5.01677        0.883064 
        2.98456         4.98175        0.871574 
        3.00023         4.92518        0.860272 
        3.01596         4.89828        0.849134 
        3.03164         4.87701        0.838226 
        3.04738         4.83382        0.827477 
         3.0631         4.79211         0.81692 
        3.07883         4.76365        0.806546 
        3.09456          4.7237        0.796354 
        3.11026         4.70319        0.786354 
        3.12596         4.65444        0.776526 
        3.14163         4.61103        0.766889 
        3.15734         4.57597        0.757393 
        3.17308         4.55772        0.748034 
        3.18879         4.51554        0.738859 
        3.20447         4.49788        0.729851 
         3.2202         4.44292        0.720966 
         3.2359         4.42951        0.712243 
        3.25157         4.38066        0.703686 
        3.26729         4.36278        0.695243 
        3.28304         4.32587        0.686922 
        3.29877          4.2995        0.678748 
        3.31446         4.25522        0.670725 
        3.33014         4.24394        0.662838 
        3.34585         4.21074        0.655066 
        3.36158         4.19244        0.647406 
        3.37727          4.1538        0.639893 
        3.39294         4.13444        0.632506 
        3.40867         4.09203        0.625209 
        3.42439         4.06448        0.618031 
        3.44008         4.03697        0.610979 
        3.45578         4.01205        0.604032 
        3.47153         3.98053        0.597178 
        3.48724         3.96069        0.590441 
        3.50292         3.93854        0.583825 
        3.51859         3.90189        0.577312 
        3.53431         3.86903        0.570879 
        3.55007         3.86047        0.564528 
        3.56577         3.83833        0.558298 
        3.58146         3.81098        0.552165 
        3.59719         3.78137         0.54611 
        3.61292          3.7617        0.540148 
        3.62859         3.72137        0.534297 
        3.64429         3.69893        0.528521 
        3.66003         3.68602        0.522813 
        3.67578         3.66027        0.517191 
        3.69146         3.62732        0.511673 
        3.70712         3.60786        0.506245 
        3.72284         3.57946        0.500876 
        3.73853         3.56747        0.495594 
        3.75422         3.54146        0.490386 
        3.76993         3.50867        0.485248 
        3.78564         3.49647        0.480186 
        3.80137         3.47676        0.475188 
        3.81707         3.44258        0.470271 
        3.83279         3.42917         0.46542 
        3.84853         3.39882        0.460629 
        3.86424          3.3822        0.455915 
        3.87992         3.36176        0.451274 
        3.89561         3.33583        0.446697 
        3.91134         3.32186        0.442174 
        3.92704         3.29881        0.437719 
        3.94273         3.27382        0.433329 
        3.95845         3.26268        0.428992 
        3.97418         3.22972        0.424713 
        3.98988         3.21326        0.420498 
        4.00554         3.18677        0.416352 
        4.02125         3.16151        0.412249 
        4.03698         3.14772        0.408196 
        4.05268          3.1267        0.404206 
        4.06839         3.11145        0.400266 
         4.0841         3.08598         0.39638 
        4.09983          3.0601         0.39254 
        4.11555         3.04781        0.388753 
        4.13124         3.02715        0.385025 
        4.14693         3.00127        0.381344 
        4.16266         2.98613        0.377702 
        4.17839         2.96949        0.374109 
        4.19408         2.94244        0.370572 
        4.20977         2.92425        0.367078 
        4.22551         2.90421        0.363621 
        4.24123         2.88682        0.360212 
        4.25691         2.87116        0.356856 
        4.27259         2.85393        0.353542 
        4.28831         2.83615        0.350263 
        4.30404         2.81656        0.347022 
        4.31974         2.80329         0.34383 
        4.33543         2.78531        0.340679 
        4.35116         2.76418         0.33756 
        4.36688         2.75435        0.334482 
        4.38255         2.73158        0.331453 
        4.39825         2.72019        0.328455 
        4.41398         2.70143        0.325488 
         4.4297         2.68583        0.322561 
        4.44541          2.6673         0.31967 
        4.46111         2.65174        0.316817 
        4.47683         2.63222        0.313996 
        4.49251         2.62183        0.311216 
        4.50819         2.60148         0.30847 
         4.5239         2.59065        0.305753 
        4.53962         2.57653        0.303065 
        4.55535         2.56212        0.300409 
        4.57106         2.54952        0.297787 
        4.58678         2.53079        0.295197 
         4.6025         2.51443        0.292637 
        4.61821         2.50144        0.290107 
        4.63391         2.48828        0.287611 
         4.6496         2.47237        0.285145 
        4.66532         2.44981        0.282704 
        4.68103         2.44426        0.280292 
        4.69673         2.43058        0.277911 
        4.71241         2.41066         0.27556 
        4.72811         2.40159        0.273232 
        4.74384         2.39159        0.270928 
        4.75955         2.37774        0.268655 
        4.77525         2.36655        0.266408 
        4.79096         2.34674        0.264184 
        4.80669           2.342        0.261985 
         4.8224         2.32871        0.259813 
        4.83809          2.3159        0.257668 
        4.85379         2.29994        0.255546 
         4.8695         2.28654        0.253446 
        4.88521         2.27301         0.25137 
        4.90093         2.25623        0.249318 
        4.91663         2.24487         0.24729 
        4.93234         2.23622        0.245282 
        4.94807         2.22357        0.243295 
        4.96377         2.20665        0.241334 
        4.97943         2.20258        0.239399 
        4.99514         2.18548         0.23748 
        5.01086          2.1735         0.23558 
        5.02654         2.16667        0.233706 
        5.04227         2.15616        0.231847 
          5.058         2.14449        0.230007 
        5.07371         2.13187        0.228191 
        5.08942         2.12292        0.226394 
        5.10513         2.10857        0.224616 
        5.12084         2.10472        0.222857 
        5.13656         2.08371        0.221116 
        5.15225         2.07766        0.219397 
        5.16796         2.06051        0.217694 
        5.18369         2.05354        0.216007 
         5.1994          2.0453        0.214341 
        5.21509         2.03401        0.212694 
        5.23079         2.02448        0.211062 
        5.24649         2.01322        0.209449 
        5.26217         2.00591        0.207853 
        5.27788         1.99335        0.206272 
        5.29359         1.98956        0.204707 
        5.30933         1.97631        0.203156 
        5.32504         1.96254        0.201624 
        5.34073         1.95543        0.200109 
        5.35646         1.94488        0.198607 
        5.37218          1.9375        0.197119 
        5.38789         1.93055         0.19565 
        5.40357         1.91996        0.194197 
        5.41929         1.91095        0.192755 
        5.43502         1.90249        0.191328 
         5.4507          1.8895        0.189919 
        5.46639          1.8865        0.188524 
        5.48212         1.87372        0.187139 
        5.49786         1.86877        0.185767 
        5.51353         1.85441        0.184415 
        5.52921         1.84599        0.183075 
        5.54495         1.84088        0.181745 
        5.56066         1.83128        0.180429 
        5.57637         1.82341        0.179127 
        5.59207         1.81195        0.177838 
        5.60778         1.80584        0.176562 
        5.62346          1.7994          0.1753 
        5.63916         1.78695        0.174049 
        5.65487          1.7787        0.172809 
         5.6706         1.77449         0.17158 
        5.68633         1.76149        0.170363 
        5.70203         1.75589         0.16916 
        5.71773         1.74816        0.167969 
        5.73344         1.73699        0.166788 
        5.74916         1.72985        0.165618 
        5.76486         1.72332        0.164461 
        5.78054         1.71567        0.163316 
        5.79626          1.7095        0.162179 
          5.812         1.70238        0.161052 
         5.8277         1.69112        0.159939 
        5.84339         1.68755        0.158836 
        5.85911         1.67875        0.157741 
        5.87484         1.67177        0.156657 
        5.89053         1.66465        0.155586 
        5.90623         1.65432        0.154524 
        5.92195         1.64865        0.153469 
        5.93767         1.64254        0.152426 
        5.95336         1.63535        0.151393 
        5.96905         1.62529        0.150371 
        5.98476         1.62039        0.149357 
        6.00048         1.61232        0.148351 
        6.01617         1.60835        0.147356 
        6.03185         1.60119        0.146372 
        6.04756         1.59307        0.145394 
        6.06331         1.58626        0.144423 
        6.07903         1.58129        0.143463 
        6.09473          1.5762        0.142512 
        6.11044         1.56564        0.141569 
        6.12616            1.56        0.140635 
        6.14186         1.55292         0.13971 
        6.15755         1.54888        0.138794 
        6.17326          1.5404        0.137885 
        6.18898         1.53546        0.136984 
        6.20467         1.52711        0.136092 
        6.22036         1.52174        0.135209 
         6.2361         1.51638         0.13433 
         6.2518           1.509        0.133461 
        6.26748         1.50342        0.132602 
        6.28319         1.49653        0.131748 
        6.29893         1.49303          0.1309 
        6.31463         1.48583        0.130062 
        6.33033         1.47972        0.129231 
        6.34604         1.47402        0.128407 
        6.36177         1.46745        0.127589 
        6.37747         1.46189         0.12678 
