# k  (h/Mpc)    Pcb(k)  (Mpc/h)^3    Pcb_linear(k) (Mpc/h)^3   ShotnoiseSubtracted = true
      0.0200456         689.142         697.505 
      0.0350414         462.566         462.932 
      0.0492313          313.61         311.798 
      0.0637834         252.634         249.913 
      0.0800726         199.549          198.69 
       0.096163         139.847         140.021 
       0.111083         105.615         105.723 
       0.126058          92.394         91.9056 
       0.142273         80.0835         79.6981 
       0.158546         63.1303         62.4825 
        0.17375         50.2577          50.184 
       0.188953         44.8515          44.441 
       0.204907         41.2003         40.1728 
       0.220756         34.7139          34.251 
        0.23588         29.3787          28.879 
         0.2514         25.8132         25.5453 
       0.267535         23.6093         23.3229 
       0.283568         21.1075          20.808 
       0.299022         18.6859         18.2532 
       0.314451         16.4574         16.3239 
       0.330372         15.1796         14.9463 
       0.346141         13.8686         13.6764 
       0.361624         12.6205         12.3678 
       0.377134         11.5647         11.2177 
       0.392932         10.3189         10.3098 
       0.408854         9.78979         9.52585 
       0.424564         8.97588         8.77056 
       0.440253         8.25595         8.06606 
       0.455999         7.69461         7.46367 
       0.471626         7.20058          6.9498 
        0.48727         6.67858         6.47382 
       0.502856          6.1897         6.02674 
       0.518488         5.86432         5.62208 
       0.534347           5.552         5.25942 
       0.550082          5.0772         4.93206 
       0.565732         4.68051         4.62888 
       0.581496         4.52214         4.34665 
       0.597222         4.28846         4.09094 
       0.612804         4.00053         3.85949 
       0.628434         3.83105         3.64424 
       0.644267          3.6117         3.44167 
       0.660051         3.39354         3.25484 
       0.675724         3.22124         3.08379 
       0.691403          3.0865         2.92522 
       0.707174         2.91034         2.77677 
       0.722871         2.76491         2.63905 
        0.73838         2.64615         2.51199 
       0.754018         2.55053         2.39221 
       0.769845         2.40736         2.27884 
        0.78569          2.3061         2.17261 
       0.801365         2.19395         2.07412 
       0.817031         2.10829         1.98175 
       0.832809         2.01724         1.89438 
       0.848511          1.9117         1.81263 
       0.864097         1.82653         1.73626 
       0.879701         1.75623          1.6642 
       0.895507         1.68435         1.59537 
       0.911279         1.64001         1.53056 
        0.92691         1.56941         1.46988 
       0.942635         1.50129         1.41213 
       0.958396         1.43826         1.35736 
       0.974128         1.38821         1.30558 
       0.989692         1.34797           1.257 
        1.00528         1.28887         1.21081 
        1.02113         1.23476          1.1662 
        1.03692         1.20569           1.124 
        1.05264         1.15876         1.08407 
        1.06832         1.12415         1.04613 
        1.08405         1.06818         1.00989 
        1.09979         1.04031        0.975335 
        1.11537         1.00929         0.94273 
        1.13105        0.978874        0.911413 
        1.14679        0.951222         0.88139 
        1.16256        0.909491        0.852652 
        1.17828        0.884119        0.825283 
        1.19395        0.857128        0.799199 
         1.2097        0.819569        0.774104 
        1.22537        0.802302          0.7502 
          1.241        0.779865        0.727372 
        1.25666        0.767292        0.705431 
        1.27241        0.729636        0.684287 
        1.28819        0.711069        0.663969 
        1.30392        0.694283         0.64453 
        1.31957        0.675385        0.625951 
        1.33529        0.652307        0.608032 
        1.35108        0.634045         0.59074 
        1.36674        0.610298        0.574239 
         1.3824        0.600112         0.55838 
        1.39811        0.581615        0.543063 
        1.41389        0.568446         0.52826 
        1.42964        0.554311        0.514029 
        1.44531        0.535613        0.500389 
        1.46101        0.524274        0.487211 
        1.47667        0.503862        0.474544 
        1.49229        0.498465        0.462359 
        1.50793        0.481628        0.450585 
        1.52367        0.471524        0.439142 
        1.53953        0.456616        0.428018 
        1.55526        0.446934        0.417365 
        1.57092         0.43437        0.407116 
        1.58662        0.425863        0.397185 
        1.60235        0.414962        0.387563 
        1.61809        0.401676        0.378253 
        1.63369        0.399356         0.36933 
        1.64941        0.385082        0.360628 
        1.66519        0.376104        0.352174 
        1.68085        0.365387        0.344049 
        1.69652        0.357871        0.336175 
        1.71228        0.351682        0.328502 
        1.72806        0.340247        0.321061 
        1.74368        0.336283        0.313923 
        1.75933        0.326469        0.306986 
        1.77505        0.319562        0.300225 
        1.79081        0.313093        0.293654 
         1.8065         0.30328        0.287307 
        1.82218        0.298964        0.281151 
        1.83797        0.291744        0.275132 
        1.85367         0.28824        0.269321 
        1.86928        0.280415        0.263712 
        1.88497        0.273801        0.258231 
        1.90073         0.26719        0.252884 
        1.91647         0.26339        0.247692 
        1.93218        0.256707        0.242656 
        1.94787        0.251817        0.237766 
        1.96363        0.245928        0.232991 
        1.97935        0.240703        0.228356 
        1.99499        0.236258        0.223871 
        2.01064        0.231128          0.2195 
         2.0264        0.225821        0.215218 
        2.04216        0.223176        0.211051 
        2.05781        0.217891        0.207019 
        2.07353         0.21238        0.203078 
        2.08928        0.207739         0.19923 
        2.10499        0.205298        0.195491 
        2.12065        0.201784        0.191859 
        2.13633        0.197656        0.188315 
        2.15211        0.193869        0.184837 
        2.16785         0.18936        0.181456 
        2.18349        0.185516         0.17818 
        2.19916        0.182887        0.174977 
        2.21489        0.178863        0.171842 
        2.23063        0.176112        0.168781 
         2.2463         0.17279        0.165808 
        2.26194        0.168125        0.162913 
        2.27765        0.165918        0.160072 
        2.29341        0.163282        0.157291 
        2.30914        0.160638        0.154581 
        2.32486          0.1575        0.151936 
        2.34061        0.154628        0.149348 
        2.35635        0.151085        0.146822 
        2.37203        0.148505        0.144362 
        2.38768        0.146018        0.141964 
        2.40339        0.144132        0.139611 
        2.41914        0.141689        0.137306 
        2.43483         0.13915         0.13506 
         2.4505        0.135743        0.132868 
        2.46622        0.133897        0.130716 
        2.48195        0.131847        0.128612 
        2.49759        0.129804        0.126565 
        2.51328        0.127306        0.124556 
        2.52906        0.125387        0.122579 
        2.54479        0.122795        0.120651 
        2.56049        0.120708        0.118768 
        2.57618        0.118753        0.116926 
        2.59189        0.117304        0.115121 
        2.60758        0.115589        0.113356 
        2.62325        0.113248         0.11163 
        2.63898        0.111579        0.109933 
        2.65468        0.109294        0.108275 
        2.67044        0.108034        0.106644 
        2.68618        0.106077         0.10505 
        2.70184        0.104343        0.103495 
        2.71755          0.1024        0.101967 
        2.73329        0.101124        0.100467 
        2.74897       0.0997596       0.0990023 
        2.76462       0.0980756       0.0975696 
        2.78034       0.0965427        0.096159 
        2.79607       0.0948392       0.0947746 
        2.81179       0.0940827       0.0934189 
        2.82749       0.0919799       0.0920909 
        2.84321       0.0908085       0.0907871 
        2.85893       0.0895876       0.0895086 
        2.87462       0.0879938       0.0882568 
        2.89033       0.0868612       0.0870276 
        2.90605       0.0853312       0.0858205 
        2.92176       0.0843818       0.0846367 
        2.93747       0.0829205       0.0834757 
        2.95318       0.0819046        0.082336 
        2.96891       0.0807113       0.0812169 
        2.98456       0.0794183       0.0801233 
        3.00023       0.0785826       0.0790482 
        3.01596       0.0772525       0.0779892 
        3.03164       0.0765278       0.0769525 
        3.04738       0.0748719       0.0759315 
         3.0631       0.0742149       0.0749291 
        3.07883       0.0729491       0.0739447 
        3.09456        0.072061       0.0729779 
        3.11026       0.0712223       0.0720298 
        3.12596       0.0699891       0.0710985 
        3.14163       0.0691147       0.0701856 
        3.15734       0.0685017       0.0692865 
        3.17308       0.0675201       0.0684009 
        3.18879       0.0666672        0.067533 
        3.20447       0.0654235       0.0666813 
         3.2202       0.0650149       0.0658415 
         3.2359       0.0640461       0.0650176 
        3.25157       0.0631963       0.0642096 
        3.26729       0.0622304       0.0634127 
        3.28304       0.0618391       0.0626277 
        3.29877       0.0609366       0.0618569 
        3.31446       0.0601805       0.0611007 
        3.33014       0.0595995       0.0603576 
        3.34585       0.0590916       0.0596257 
        3.36158       0.0582903       0.0589047 
        3.37727       0.0576633       0.0581977 
        3.39294       0.0567613       0.0575029 
        3.40867       0.0561024       0.0568169 
        3.42439         0.05567       0.0561423 
        3.44008       0.0546985       0.0554799 
        3.45578       0.0543572       0.0548276 
        3.47153       0.0536103       0.0541843 
        3.48724       0.0531511       0.0535523 
        3.50292       0.0525373       0.0529317 
        3.51859       0.0519924       0.0523213 
        3.53431       0.0512457       0.0517184 
        3.55007       0.0509414       0.0511235 
        3.56577       0.0503052       0.0505403 
        3.58146       0.0499313       0.0499662 
        3.59719       0.0493995       0.0493997 
        3.61292       0.0489809       0.0488422 
        3.62859       0.0484274       0.0482952 
        3.64429       0.0478698       0.0477555 
        3.66003       0.0476234       0.0472223 
        3.67578       0.0469779       0.0466974 
        3.69146       0.0464228       0.0461823 
        3.70712         0.04621       0.0456759 
        3.72284       0.0458141       0.0451752 
        3.73853       0.0453919       0.0446827 
        3.75422       0.0450684       0.0441973 
        3.76993       0.0444657       0.0437187 
        3.78564       0.0441132       0.0432473 
        3.80137        0.043765        0.042782 
        3.81707       0.0433779       0.0423245 
        3.83279       0.0430928       0.0418732 
        3.84853       0.0426412       0.0414277 
        3.86424       0.0423075       0.0409896 
        3.87992       0.0418444       0.0405583 
        3.89561       0.0415142       0.0401332 
        3.91134       0.0412817       0.0397132 
        3.92704       0.0407892       0.0392997 
        3.94273       0.0404029       0.0388924 
        3.95845       0.0399686       0.0384901 
        3.97418       0.0398906       0.0380934 
        3.98988       0.0392705       0.0377027 
        4.00554       0.0390781       0.0373186 
        4.02125       0.0385109       0.0369386 
        4.03698       0.0379627       0.0365633 
        4.05268       0.0374587        0.036194 
        4.06839       0.0370013       0.0358295 
         4.0841       0.0364247       0.0354701 
        4.09983       0.0359893        0.035115 
        4.11555       0.0353422        0.034765 
        4.13124       0.0348759       0.0344206 
        4.14693        0.034505       0.0340805 
        4.16266       0.0341172       0.0337442 
        4.17839       0.0336981       0.0334126 
        4.19408       0.0332782       0.0330862 
        4.20977       0.0328958       0.0327639 
        4.22551       0.0325241       0.0324452 
        4.24123       0.0320629       0.0321309 
        4.25691       0.0317558       0.0318217 
        4.27259        0.031437       0.0315164 
        4.28831       0.0311362       0.0312144 
        4.30404       0.0309527       0.0309161 
        4.31974       0.0306278       0.0306222 
        4.33543       0.0303758       0.0303324 
        4.35116       0.0301499       0.0300455 
        4.36688       0.0298336       0.0297625 
        4.38255       0.0296141       0.0294841 
        4.39825       0.0294063       0.0292086 
        4.41398       0.0292852       0.0289361 
         4.4297       0.0291233       0.0286673 
        4.44541       0.0289666       0.0284019 
        4.46111       0.0288192       0.0281401 
        4.47683       0.0285809       0.0278813 
        4.49251       0.0285318       0.0276263 
        4.50819       0.0283817       0.0273746 
         4.5239       0.0282774       0.0271255 
        4.53962       0.0281836       0.0268793 
        4.55535       0.0281789       0.0266359 
        4.57106       0.0280862       0.0263959 
        4.58678       0.0280579       0.0261588 
         4.6025       0.0280883       0.0259245 
        4.61821       0.0281251        0.025693 
        4.63391       0.0280848       0.0254647 
         4.6496       0.0280264       0.0252392 
        4.66532       0.0280203       0.0250161 
        4.68103       0.0280627       0.0247957 
        4.69673       0.0280709       0.0245782 
        4.71241       0.0282103       0.0243635 
        4.72811        0.028228        0.024151 
        4.74384       0.0283142       0.0239407 
        4.75955       0.0284246       0.0237332 
        4.77525       0.0285922       0.0235283 
        4.79096       0.0286281       0.0233255 
        4.80669       0.0287375        0.023125 
         4.8224       0.0290573        0.022927 
        4.83809       0.0291189       0.0227316 
        4.85379       0.0291942       0.0225383 
         4.8695       0.0294559        0.022347 
        4.88521       0.0296589       0.0221581 
        4.90093       0.0298382       0.0219713 
        4.91663       0.0299902       0.0217867 
        4.93234       0.0301656       0.0216041 
        4.94807       0.0305797       0.0214235 
        4.96377       0.0308185       0.0212452 
        4.97943       0.0312254       0.0210693 
        4.99514       0.0312852       0.0208949 
        5.01086        0.031724       0.0207224 
        5.02654       0.0320227       0.0205522 
        5.04227       0.0322893       0.0203834 
          5.058       0.0327602       0.0202164 
        5.07371       0.0331518       0.0200516 
        5.08942       0.0333742       0.0198886 
        5.10513       0.0338267       0.0197274 
        5.12084       0.0342483       0.0195678 
        5.13656       0.0345835       0.0194101 
        5.15225       0.0352123       0.0192543 
        5.16796       0.0357824          0.0191 
        5.18369       0.0360839       0.0189472 
         5.1994       0.0366785       0.0187963 
        5.21509       0.0370993       0.0186472 
        5.23079       0.0376886       0.0184996 
        5.24649       0.0382483       0.0183536 
        5.26217       0.0389986       0.0182093 
        5.27788       0.0395247       0.0180663 
        5.29359       0.0402563       0.0179249 
        5.30933       0.0408009       0.0177847 
        5.32504       0.0414313       0.0176462 
        5.34073       0.0421099       0.0175094 
        5.35646       0.0428025       0.0173737 
        5.37218       0.0436581       0.0172394 
        5.38789        0.044455       0.0171068 
        5.40357        0.045022       0.0169756 
        5.41929       0.0459605       0.0168456 
        5.43502       0.0467021       0.0167169 
         5.4507       0.0476448       0.0165898 
        5.46639       0.0487047        0.016464 
        5.48212       0.0493921       0.0163392 
        5.49786       0.0504836       0.0162155 
        5.51353       0.0516473       0.0160938 
        5.52921       0.0523307       0.0159731 
        5.54495       0.0535438       0.0158533 
        5.56066       0.0544544       0.0157349 
        5.57637       0.0558476       0.0156176 
        5.59207       0.0572275       0.0155017 
        5.60778       0.0581665       0.0153869 
        5.62346       0.0595428       0.0152734 
        5.63916       0.0605363       0.0151609 
        5.65487       0.0618443       0.0150495 
         5.6706       0.0632283       0.0149391 
        5.68633       0.0643562       0.0148297 
        5.70203       0.0655096       0.0147216 
        5.71773       0.0677407       0.0146146 
        5.73344       0.0690277       0.0145086 
        5.74916       0.0708658       0.0144036 
        5.76486       0.0720095       0.0142997 
        5.78054       0.0735605        0.014197 
        5.79626       0.0748286       0.0140951 
          5.812       0.0768568        0.013994 
         5.8277       0.0786627       0.0138942 
        5.84339       0.0802764       0.0137953 
        5.85911       0.0823855       0.0136972 
        5.87484       0.0842524       0.0136001 
        5.89053        0.086702       0.0135041 
        5.90623        0.088991        0.013409 
        5.92195       0.0906736       0.0133146 
        5.93767       0.0927429       0.0132212 
        5.95336       0.0949617       0.0131288 
        5.96905       0.0971833       0.0130373 
        5.98476       0.0995698       0.0129466 
        6.00048        0.101659       0.0128566 
        6.01617        0.103808       0.0127677 
        6.03185        0.107324       0.0126797 
        6.04756        0.109656       0.0125923 
        6.06331        0.111619       0.0125055 
        6.07903        0.115201       0.0124197 
        6.09473         0.11841       0.0123348 
        6.11044        0.120675       0.0122507 
        6.12616        0.123547       0.0121673 
        6.14186        0.125928       0.0120847 
        6.15755        0.129405       0.0120029 
        6.17326        0.133508       0.0119218 
        6.18898        0.135368       0.0118415 
        6.20467         0.14052       0.0117619 
        6.22036        0.142106       0.0116832 
         6.2361        0.146188       0.0116049 
         6.2518        0.149957       0.0115274 
        6.26748        0.153335       0.0114509 
        6.28319        0.156848       0.0113748 
        6.29893        0.161702       0.0112993 
        6.31463        0.165499       0.0112246 
        6.33033         0.16979       0.0111507 
        6.34604        0.172961       0.0110773 
        6.36177        0.176393       0.0110045 
        6.37747        0.182646       0.0109325 
