# k  (h/Mpc)    Pcb(k)  (Mpc/h)^3    Pcb_linear(k) (Mpc/h)^3   ShotnoiseSubtracted = true
      0.0200456         12176.8           12378 
      0.0350414         7994.56         8215.24 
      0.0492313         5518.23         5533.19 
      0.0637834         4574.92         4434.97 
      0.0800726         3610.69         3525.97 
       0.096163         2455.38         2484.84 
       0.111083         1871.84         1876.17 
       0.126058         1689.84         1630.97 
       0.142273         1485.56         1414.33 
       0.158546         1231.41         1108.82 
        0.17375         954.938          890.57 
       0.188953         907.854         788.655 
       0.204907         856.529          712.91 
       0.220756         726.524         607.821 
        0.23588         630.756          512.49 
         0.2514         542.658          453.33 
       0.267535         525.687         413.891 
       0.283568         476.104          369.26 
       0.299022         441.329         323.923 
       0.314451         409.582         289.685 
       0.330372         376.098         265.239 
       0.346141          338.15         242.702 
       0.361624          325.38          219.48 
       0.377134         300.331          199.07 
       0.392932         281.488         182.958 
       0.408854         268.966         169.047 
       0.424564         254.986         155.643 
       0.440253         245.176         143.141 
       0.455999         229.421         132.451 
       0.471626         213.902         123.332 
        0.48727         205.468         114.885 
       0.502856         198.175         106.951 
       0.518488         194.905           99.77 
       0.534347         183.637         93.3341 
       0.550082         171.423         87.5248 
       0.565732         167.044         82.1445 
       0.581496         158.494         77.1361 
       0.597222          154.04         72.5983 
       0.612804          148.27         68.4909 
       0.628434         142.825          64.671 
       0.644267         137.917         61.0762 
       0.660051         136.072         57.7607 
       0.675724         132.084         54.7252 
       0.691403         127.922         51.9113 
       0.707174         122.625         49.2768 
       0.722871         121.006         46.8328 
        0.73838          118.25          44.578 
       0.754018          114.23         42.4524 
       0.769845         110.906         40.4405 
        0.78569         108.717         38.5554 
       0.801365          105.15         36.8076 
       0.817031         101.513         35.1683 
       0.832809         100.289         33.6178 
       0.848511         96.9379         32.1672 
       0.864097         95.1272         30.8118 
       0.879701         93.0305          29.533 
       0.895507         90.7987         28.3116 
       0.911279         88.8341         27.1615 
        0.92691         87.7098         26.0846 
       0.942635         85.0463         25.0599 
       0.958396         84.7369         24.0879 
       0.974128         82.3132          23.169 
       0.989692         80.3647         22.3068 
        1.00528         78.4435         21.4871 
        1.02113         77.7249         20.6956 
        1.03692         74.9926         19.9466 
        1.05264         74.6802          19.238 
        1.06832         72.5822         18.5646 
        1.08405         71.4193         17.9216 
        1.09979         71.1323         17.3084 
        1.11537         68.6948         16.7298 
        1.13105         68.5869          16.174 
        1.14679         67.3668         15.6412 
        1.16256         66.2732         15.1313 
        1.17828         64.9146         14.6455 
        1.19395         63.6449         14.1827 
         1.2097         62.3083         13.7373 
        1.22537         62.3954         13.3131 
          1.241         60.9821          12.908 
        1.25666         59.5822         12.5186 
        1.27241         58.7293         12.1434 
        1.28819         57.7696         11.7829 
        1.30392         57.0364         11.4379 
        1.31957         56.4388         11.1082 
        1.33529         55.1081         10.7902 
        1.35108         54.7549         10.4833 
        1.36674         54.2238         10.1905 
         1.3824         52.9612         9.90906 
        1.39811         52.3048         9.63726 
        1.41389         51.7013         9.37455 
        1.42964          50.991         9.12201 
        1.44531         49.9797         8.87995 
        1.46101         49.2607          8.6461 
        1.47667         49.2211         8.42131 
        1.49229         48.3313         8.20507 
        1.50793         48.0229         7.99612 
        1.52367         46.8864         7.79306 
        1.53953         46.3324         7.59565 
        1.55526          45.972          7.4066 
        1.57092         45.6008         7.22472 
        1.58662         44.6934         7.04848 
        1.60235          44.336         6.87774 
        1.61809         43.7349         6.71252 
        1.63369         43.0337         6.55416 
        1.64941         42.7519         6.39975 
        1.66519         41.7395         6.24971 
        1.68085         41.6292         6.10552 
        1.69652         40.8519          5.9658 
        1.71228         40.5672         5.82963 
        1.72806         40.1745         5.69758 
        1.74368         39.4984         5.57091 
        1.75933         39.1564         5.44781 
        1.77505         38.6769         5.32782 
        1.79081         38.2913         5.21122 
         1.8065         37.9049         5.09857 
        1.82218         37.3985         4.98933 
        1.83797         36.8521         4.88252 
        1.85367         36.5213          4.7794 
        1.86928         35.8931         4.67986 
        1.88497         35.8429         4.58259 
        1.90073         35.2671          4.4877 
        1.91647         34.9104         4.39557 
        1.93218         34.6246          4.3062 
        1.94787         34.1547         4.21942 
        1.96363         33.8151         4.13468 
        1.97935         33.3233         4.05242 
        1.99499         33.0763         3.97285 
        2.01064         32.7026         3.89528 
         2.0264         32.1031         3.81928 
        2.04216         32.0393         3.74533 
        2.05781         31.5298         3.67378 
        2.07353         31.2226         3.60384 
        2.08928          31.054         3.53556 
        2.10499         30.5357         3.46921 
        2.12065          30.168         3.40475 
        2.13633         29.9946         3.34186 
        2.15211         29.7316         3.28014 
        2.16785         29.2157         3.22014 
        2.18349           28.96           3.162 
        2.19916         28.7426         3.10517 
        2.21489         28.4322         3.04953 
        2.23063         28.0267         2.99521 
         2.2463         27.7209         2.94245 
        2.26194         27.4167         2.89108 
        2.27765         27.1926         2.84066 
        2.29341         26.9002          2.7913 
        2.30914         26.6529         2.74321 
        2.32486         26.2693         2.69627 
        2.34061           26.13         2.65034 
        2.35635         25.8473         2.60551 
        2.37203         25.5813         2.56187 
        2.38768         25.3055         2.51931 
        2.40339         25.1363         2.47755 
        2.41914         24.8957         2.43664 
        2.43483           24.53         2.39678 
         2.4505         24.3689         2.35788 
        2.46622         24.0623          2.3197 
        2.48195         23.9115         2.28236 
        2.49759         23.6641         2.24603 
        2.51328         23.3245         2.21039 
        2.52906         23.1724         2.17529 
        2.54479         22.8845         2.14108 
        2.56049         22.6914         2.10766 
        2.57618         22.4516         2.07498 
        2.59189         22.2844         2.04294 
        2.60758         22.1215         2.01162 
        2.62325         21.8054         1.98099 
        2.63898         21.6834         1.95089 
        2.65468         21.4192         1.92147 
        2.67044          21.283         1.89252 
        2.68618         21.0201         1.86423 
        2.70184         20.7835         1.83663 
        2.71755         20.6557         1.80952 
        2.73329         20.4461          1.7829 
        2.74897         20.2045          1.7569 
        2.76462         20.0006         1.73148 
        2.78034         19.9308         1.70645 
        2.79607         19.7869         1.68188 
        2.81179         19.5129         1.65782 
        2.82749         19.3423         1.63425 
        2.84321         19.1076         1.61112 
        2.85893         18.8707         1.58843 
        2.87462         18.8041         1.56621 
        2.89033         18.6875          1.5444 
        2.90605         18.4445         1.52298 
        2.92176         18.2998         1.50197 
        2.93747         18.1626         1.48137 
        2.95318         17.9406         1.46114 
        2.96891         17.8163         1.44128 
        2.98456         17.6505         1.42188 
        3.00023         17.4235          1.4028 
        3.01596         17.2788           1.384 
        3.03164         17.1582         1.36561 
        3.04738         16.9923         1.34749 
         3.0631         16.8494          1.3297 
        3.07883          16.751         1.31223 
        3.09456         16.5011         1.29507 
        3.11026         16.3674         1.27825 
        3.12596          16.234         1.26172 
        3.14163         16.1342         1.24552 
        3.15734         15.9965         1.22957 
        3.17308         15.7904         1.21385 
        3.18879         15.7032         1.19845 
        3.20447         15.5401         1.18333 
         3.2202         15.3891         1.16843 
         3.2359         15.2231         1.15381 
        3.25157         15.1448         1.13947 
        3.26729         15.0182         1.12533 
        3.28304         14.8766          1.1114 
        3.29877         14.7197         1.09772 
        3.31446         14.5555          1.0843 
        3.33014         14.4582         1.07111 
        3.34585         14.3199         1.05812 
        3.36158         14.2035         1.04533 
        3.37727         14.0516         1.03278 
        3.39294         13.9187         1.02045 
        3.40867         13.7888         1.00828 
        3.42439         13.7122        0.996307 
        3.44008         13.5922        0.984552 
        3.45578         13.4365        0.972976 
        3.47153         13.3415        0.961559 
        3.48724         13.2114        0.950344 
        3.50292         13.1533        0.939332 
        3.51859         12.9683        0.928498 
        3.53431          12.874          0.9178 
        3.55007         12.7822        0.907243 
        3.56577         12.6536        0.896892 
        3.58146         12.5728        0.886706 
        3.59719         12.4265        0.876653 
        3.61292         12.3495        0.866758 
        3.62859          12.213        0.857051 
        3.64429         12.1471        0.847473 
        3.66003         12.0338        0.838011 
        3.67578         11.9635        0.828696 
        3.69146          11.857        0.819556 
        3.70712         11.7441        0.810569 
        3.72284         11.6663        0.801683 
        3.73853         11.5324        0.792944 
        3.75422          11.387         0.78433 
        3.76993         11.3346        0.775837 
        3.78564         11.2264        0.767471 
        3.80137         11.1618        0.759214 
        3.81707         11.0477        0.751095 
        3.83279         10.9902        0.743086 
        3.84853          10.856        0.735181 
        3.86424         10.7569        0.727405 
        3.87992          10.668        0.719752 
        3.89561         10.5745        0.712207 
        3.91134          10.502        0.704755 
        3.92704         10.3905        0.697417 
        3.94273         10.3249        0.690189 
        3.95845         10.2464         0.68305 
        3.97418          10.153        0.676009 
        3.98988         10.0625        0.669077 
        4.00554         10.0089        0.662259 
        4.02125         9.93716        0.655516 
        4.03698         9.79824        0.648856 
        4.05268         9.73318        0.642302 
        4.06839          9.6888        0.635834 
         4.0841         9.58028        0.629455 
        4.09983         9.47528        0.623155 
        4.11555         9.44219        0.616942 
        4.13124         9.35226        0.610831 
        4.14693         9.28667        0.604796 
        4.16266         9.18837        0.598828 
        4.17839         9.11758        0.592944 
        4.19408         9.04351        0.587151 
        4.20977         8.98991        0.581432 
        4.22551         8.89246        0.575775 
        4.24123         8.84276        0.570199 
        4.25691         8.75891        0.564711 
        4.27259         8.70582        0.559292 
        4.28831         8.63019        0.553934 
        4.30404         8.55106        0.548639 
        4.31974         8.49007        0.543425 
        4.33543         8.42781        0.538281 
        4.35116         8.37247        0.533191 
        4.36688         8.30587        0.528168 
        4.38255         8.24493        0.523227 
        4.39825         8.15448        0.518339 
        4.41398         8.11095        0.513502 
         4.4297          8.0246        0.508732 
        4.44541          7.9697        0.504023 
        4.46111         7.91923        0.499377 
        4.47683         7.84895        0.494785 
        4.49251         7.78805         0.49026 
        4.50819         7.73437        0.485792 
         4.5239         7.67353        0.481373 
        4.53962         7.60824        0.477002 
        4.55535         7.54785        0.472684 
        4.57106         7.47394        0.468424 
        4.58678         7.44635        0.464216 
         4.6025         7.36619        0.460058 
        4.61821         7.30646        0.455951 
        4.63391         7.25437        0.451899 
         4.6496         7.22874        0.447898 
        4.66532         7.14985        0.443938 
        4.68103         7.10359        0.440028 
        4.69673         7.05847        0.436167 
        4.71241         6.98917        0.432357 
        4.72811         6.92484        0.428586 
        4.74384         6.88017        0.424854 
        4.75955         6.83859        0.421172 
        4.77525         6.79833        0.417535 
        4.79096         6.71564        0.413936 
        4.80669         6.67509        0.410378 
         4.8224         6.63012        0.406865 
        4.83809         6.56814        0.403397 
        4.85379         6.51819        0.399966 
         4.8695         6.48142        0.396573 
        4.88521         6.43167        0.393219 
        4.90093         6.37286        0.389904 
        4.91663         6.34291         0.38663 
        4.93234         6.27346        0.383389 
        4.94807         6.24516        0.380183 
        4.96377         6.18473        0.377019 
        4.97943         6.16597        0.373898 
        4.99514         6.10179        0.370803 
        5.01086         6.06698        0.367741 
        5.02654         6.01173        0.364721 
        5.04227         5.97918        0.361726 
          5.058         5.92277        0.358762 
        5.07371         5.89756        0.355838 
        5.08942         5.84965        0.352945 
        5.10513         5.79445        0.350084 
        5.12084         5.76403        0.347253 
        5.13656          5.7237        0.344453 
        5.15225         5.68403        0.341689 
        5.16796         5.63447         0.33895 
        5.18369         5.58968        0.336239 
         5.1994         5.56463        0.333562 
        5.21509         5.53512        0.330916 
        5.23079         5.46974        0.328295 
        5.24649         5.43489        0.325705 
        5.26217         5.40354        0.323144 
        5.27788         5.37804        0.320607 
        5.29359         5.33465        0.318096 
        5.30933         5.29963        0.315609 
        5.32504         5.26381        0.313152 
        5.34073          5.2277        0.310723 
        5.35646         5.19388        0.308315 
        5.37218         5.16427        0.305932 
        5.38789         5.11377        0.303578 
        5.40357         5.07938        0.301251 
        5.41929         5.05235        0.298943 
        5.43502          5.0123        0.296659 
         5.4507         4.98506        0.294404 
        5.46639         4.94938        0.292172 
        5.48212         4.91132        0.289957 
        5.49786         4.87469        0.287763 
        5.51353         4.83075        0.285601 
        5.52921         4.81545         0.28346 
        5.54495         4.78089        0.281334 
        5.56066         4.76003        0.279233 
        5.57637         4.71829        0.277152 
        5.59207         4.68773        0.275095 
        5.60778         4.65239        0.273057 
        5.62346         4.61692        0.271043 
        5.63916         4.58966        0.269047 
        5.65487         4.55948         0.26707 
         5.6706           4.533         0.26511 
        5.68633         4.50213        0.263169 
        5.70203         4.47135        0.261251 
        5.71773         4.44228        0.259353 
        5.73344         4.41123        0.257472 
        5.74916         4.38182        0.255608 
        5.76486         4.35233        0.253765 
        5.78054         4.33444        0.251942 
        5.79626         4.29749        0.250132 
          5.812         4.27467        0.248338 
         5.8277         4.24792        0.246567 
        5.84339         4.21665        0.244813 
        5.85911         4.19154        0.243072 
        5.87484          4.1686        0.241349 
        5.89053         4.14491        0.239645 
        5.90623         4.11504        0.237957 
        5.92195         4.08113        0.236282 
        5.93767         4.05617        0.234624 
        5.95336         4.03654        0.232985 
        5.96905         4.01021        0.231361 
        5.98476         3.98183        0.229751 
        6.00048         3.96234        0.228155 
        6.01617          3.9304        0.226577 
        6.03185         3.90381        0.225015 
        6.04756         3.88155        0.223464 
        6.06331         3.85667        0.221924 
        6.07903         3.83498        0.220402 
        6.09473         3.81402        0.218895 
        6.11044          3.7876        0.217401 
        6.12616         3.75762        0.215921 
        6.14186         3.73911        0.214457 
        6.15755         3.71274        0.213005 
        6.17326         3.69933        0.211566 
        6.18898         3.67273         0.21014 
        6.20467         3.64814        0.208729 
        6.22036         3.63094        0.207331 
         6.2361         3.60173        0.205941 
         6.2518         3.57915        0.204567 
        6.26748          3.5674        0.203208 
        6.28319         3.53567        0.201858 
        6.29893         3.51535        0.200518 
        6.31463         3.49182        0.199193 
        6.33033          3.4798        0.197881 
        6.34604         3.45841        0.196579 
        6.36177         3.43195        0.195287 
        6.37747         3.41632        0.194009 
