# k  (h/Mpc)    Pcb(k)  (Mpc/h)^3    Pcb_linear(k) (Mpc/h)^3   ShotnoiseSubtracted = true
      0.0200456           15760           16040 
      0.0350414         10304.1         10645.7 
      0.0492313         7129.67         7170.16 
      0.0637834         5942.81         5747.04 
      0.0800726         4686.48         4569.12 
       0.096163         3178.27         3219.96 
       0.111083         2434.15         2431.22 
       0.126058         2200.89         2113.48 
       0.142273         1935.88         1832.75 
       0.158546         1628.75         1436.86 
        0.17375         1262.83         1154.04 
       0.188953         1210.16         1021.98 
       0.204907         1141.05         923.821 
       0.220756         974.014         787.643 
        0.23588          852.27         664.108 
         0.2514          731.61         587.446 
       0.267535          716.24         536.339 
       0.283568         648.416         478.504 
       0.299022         605.697         419.754 
       0.314451          568.57         375.388 
       0.330372         521.283         343.709 
       0.346141         474.345         314.505 
       0.361624         457.003         284.412 
       0.377134         421.154         257.964 
       0.392932         400.083         237.086 
       0.408854         384.217         219.059 
       0.424564         360.709          201.69 
       0.440253         351.514         185.489 
       0.455999         329.721         171.636 
       0.471626         311.022         159.819 
        0.48727         298.002         148.873 
       0.502856         288.494         138.592 
       0.518488         285.059         129.287 
       0.534347         266.963         120.947 
       0.550082         252.353         113.419 
       0.565732         248.555         106.447 
       0.581496         234.087         99.9565 
       0.597222         229.263         94.0762 
       0.612804         222.319         88.7536 
       0.628434         212.913         83.8036 
       0.644267         206.299         79.1454 
       0.660051         202.817          74.849 
       0.675724         198.141         70.9154 
       0.691403         192.269          67.269 
       0.707174         185.171         63.8552 
       0.722871         182.102         60.6881 
        0.73838         178.675         57.7662 
       0.754018           174.3         55.0118 
       0.769845         168.245         52.4046 
        0.78569         166.971         49.9618 
       0.801365         160.511         47.6969 
       0.817031         155.577         45.5727 
       0.832809           154.4         43.5635 
       0.848511         149.421         41.6837 
       0.864097         147.672         39.9274 
       0.879701         144.459         38.2703 
       0.895507         140.502         36.6874 
       0.911279         136.479         35.1971 
        0.92691         136.146         33.8016 
       0.942635         132.073         32.4737 
       0.958396         131.572         31.2142 
       0.974128          128.19         30.0234 
       0.989692         125.423         28.9062 
        1.00528         123.312          27.844 
        1.02113         121.971         26.8183 
        1.03692         118.662         25.8478 
        1.05264         116.201         24.9295 
        1.06832         114.112         24.0569 
        1.08405         112.478         23.2236 
        1.09979         111.535          22.429 
        1.11537         108.621         21.6792 
        1.13105         107.251         20.9591 
        1.14679         106.499         20.2686 
        1.16256         104.964         19.6078 
        1.17828         102.894         18.9784 
        1.19395         100.917         18.3785 
         1.2097         99.7114         17.8015 
        1.22537         98.6519         17.2518 
          1.241          96.827         16.7268 
        1.25666         95.2696         16.2222 
        1.27241         93.4779          15.736 
        1.28819         92.6091         15.2688 
        1.30392         90.5205         14.8217 
        1.31957         90.1031         14.3945 
        1.33529         87.8217         13.9824 
        1.35108         87.0582         13.5848 
        1.36674         86.2294         13.2053 
         1.3824         84.5612         12.8406 
        1.39811         83.5135         12.4884 
        1.41389         82.4981          12.148 
        1.42964         80.6303         11.8207 
        1.44531         79.3067          11.507 
        1.46101         78.2989          11.204 
        1.47667          78.025         10.9127 
        1.49229         76.6184         10.6325 
        1.50793         75.9231         10.3617 
        1.52367         74.6442         10.0986 
        1.53953          73.516         9.84279 
        1.55526         72.9568         9.59782 
        1.57092         72.3788         9.36213 
        1.58662         70.4654         9.13375 
        1.60235         70.4244         8.91249 
        1.61809         69.1145          8.6984 
        1.63369         68.5061         8.49318 
        1.64941         68.0682         8.29308 
        1.66519         66.2159         8.09866 
        1.68085          66.182         7.91182 
        1.69652         64.5641         7.73076 
        1.71228         64.3628         7.55431 
        1.72806         63.7196         7.38319 
        1.74368         62.7332         7.21904 
        1.75933         61.6758         7.05952 
        1.77505         61.3857         6.90404 
        1.79081         60.3271         6.75293 
         1.8065         59.4901         6.60696 
        1.82218         58.8631         6.46541 
        1.83797         58.0633           6.327 
        1.85367         57.7987         6.19337 
        1.86928         57.1405         6.06438 
        1.88497         56.2577         5.93833 
        1.90073         55.5051         5.81537 
        1.91647         55.1385         5.69598 
        1.93218         54.4173         5.58017 
        1.94787         53.8756         5.46772 
        1.96363         53.1522         5.35791 
        1.97935          52.706         5.25131 
        1.99499         51.9766          5.1482 
        2.01064         51.4676         5.04768 
         2.0264          50.542         4.94919 
        2.04216         50.2027         4.85337 
        2.05781         49.5286         4.76066 
        2.07353          48.644         4.67003 
        2.08928         48.3669         4.58154 
        2.10499         47.6786         4.49556 
        2.12065         47.3488         4.41203 
        2.13633         46.8556         4.33053 
        2.15211         46.5213         4.25055 
        2.16785         46.0446          4.1728 
        2.18349         45.6235         4.09747 
        2.19916          44.887         4.02382 
        2.21489          44.615         3.95172 
        2.23063         44.2299         3.88133 
         2.2463          43.518         3.81296 
        2.26194         42.9384         3.74639 
        2.27765         42.9041         3.68105 
        2.29341         42.1485          3.6171 
        2.30914         41.6034         3.55478 
        2.32486         40.9287         3.49395 
        2.34061         40.7942         3.43443 
        2.35635         40.0588         3.37634 
        2.37203         39.7864         3.31979 
        2.38768           39.31         3.26464 
        2.40339         38.9689         3.21053 
        2.41914         38.5465         3.15751 
        2.43483         38.3041         3.10586 
         2.4505         38.0079         3.05545 
        2.46622         37.3425         3.00598 
        2.48195         37.1077         2.95758 
        2.49759           36.54         2.91051 
        2.51328         36.1865         2.86432 
        2.52906         35.8053         2.81884 
        2.54479         35.5105         2.77451 
        2.56049         34.9457         2.73121 
        2.57618         34.8071         2.68886 
        2.59189         34.2554         2.64734 
        2.60758         34.1311         2.60675 
        2.62325         33.6316         2.56706 
        2.63898         33.3103         2.52805 
        2.65468         32.8099         2.48992 
        2.67044         32.4467         2.45242 
        2.68618         32.2072         2.41576 
        2.70184         31.8995         2.37999 
        2.71755         31.5457         2.34485 
        2.73329         31.3363         2.31037 
        2.74897         30.9072         2.27668 
        2.76462         30.5831         2.24373 
        2.78034          30.405         2.21129 
        2.79607         30.0404         2.17946 
        2.81179         29.7533         2.14828 
        2.82749         29.3176         2.11774 
        2.84321         29.1126         2.08776 
        2.85893         28.8815         2.05836 
        2.87462         28.5632         2.02957 
        2.89033         28.1865          2.0013 
        2.90605         28.0171         1.97355 
        2.92176         27.6725         1.94632 
        2.93747         27.4362         1.91962 
        2.95318         27.1191         1.89342 
        2.96891         26.8465         1.86768 
        2.98456         26.6495         1.84253 
        3.00023         26.2776         1.81781 
        3.01596         26.0606         1.79346 
        3.03164         25.9015         1.76962 
        3.04738          25.626         1.74614 
         3.0631         25.2704         1.72309 
        3.07883         25.0612         1.70045 
        3.09456         24.8632         1.67822 
        3.11026         24.6338         1.65641 
        3.12596         24.3828           1.635 
        3.14163          24.162           1.614 
        3.15734         23.9061         1.59333 
        3.17308         23.6386         1.57296 
        3.18879         23.5198           1.553 
        3.20447         23.2561         1.53342 
         3.2202         22.9718         1.51411 
         3.2359         22.8373         1.49516 
        3.25157         22.5528         1.47658 
        3.26729         22.4346         1.45825 
        3.28304         22.1621          1.4402 
        3.29877         21.9156         1.42248 
        3.31446         21.6979         1.40508 
        3.33014         21.5246           1.388 
        3.34585         21.3471         1.37116 
        3.36158         21.0966         1.35458 
        3.37727         20.9366         1.33833 
        3.39294          20.711         1.32235 
        3.40867         20.5403         1.30657 
        3.42439         20.3418         1.29106 
        3.44008         20.2251         1.27583 
        3.45578         19.8922         1.26083 
        3.47153         19.7516         1.24603 
        3.48724         19.5773          1.2315 
        3.50292         19.4595         1.21723 
        3.51859         19.2173         1.20319 
        3.53431         19.0721         1.18933 
        3.55007          18.851         1.17565 
        3.56577         18.6673         1.16223 
        3.58146         18.5186         1.14903 
        3.59719         18.3235         1.13601 
        3.61292         18.2015         1.12318 
        3.62859         18.0083         1.11061 
        3.64429         17.8392         1.09819 
        3.66003         17.6679         1.08593 
        3.67578         17.5694         1.07386 
        3.69146         17.4158         1.06202 
        3.70712         17.2004         1.05037 
        3.72284          17.081         1.03886 
        3.73853           16.92         1.02753 
        3.75422         16.8123         1.01637 
        3.76993         16.6046         1.00537 
        3.78564         16.4426        0.994524 
        3.80137         16.3135        0.983825 
        3.81707         16.1778        0.973303 
        3.83279         16.0259        0.962926 
        3.84853         15.8718        0.952681 
        3.86424         15.7392        0.942605 
        3.87992          15.601        0.932688 
        3.89561         15.4323        0.922911 
        3.91134         15.3461        0.913254 
        3.92704         15.1615        0.903745 
        3.94273         15.0873        0.894379 
        3.95845         14.9088        0.885128 
        3.97418         14.8248        0.876004 
        3.98988         14.6645         0.86702 
        4.00554         14.5582        0.858186 
        4.02125         14.4794        0.849448 
        4.03698         14.2844        0.840817 
        4.05268         14.1793        0.832325 
        4.06839         14.0198        0.823943 
         4.0841         13.9465        0.815677 
        4.09983         13.8098        0.807513 
        4.11555         13.6899        0.799462 
        4.13124         13.5891        0.791543 
        4.14693         13.4853        0.783722 
        4.16266         13.3399        0.775989 
        4.17839         13.2563        0.768364 
        4.19408         13.1246        0.760857 
        4.20977         13.0249        0.753446 
        4.22551          12.869        0.746116 
        4.24123         12.7902         0.73889 
        4.25691          12.677        0.731778 
        4.27259         12.6061        0.724757 
        4.28831         12.4741        0.717813 
        4.30404         12.4053        0.710952 
        4.31974         12.2808        0.704196 
        4.33543         12.1735         0.69753 
        4.35116         12.0394        0.690933 
        4.36688         11.9829        0.684424 
        4.38255         11.8783        0.678022 
        4.39825          11.791        0.671687 
        4.41398          11.677         0.66542 
         4.4297         11.5606        0.659239 
        4.44541           11.48        0.653137 
        4.46111         11.3883        0.647115 
        4.47683         11.2785        0.641165 
        4.49251         11.2154        0.635301 
        4.50819         11.1111        0.629511 
         4.5239         11.0248        0.623785 
        4.53962         10.9267        0.618122 
        4.55535         10.8505        0.612525 
        4.57106         10.7633        0.607006 
        4.58678          10.671        0.601553 
         4.6025         10.5635        0.596164 
        4.61821         10.4911        0.590842 
        4.63391         10.4216        0.585592 
         4.6496         10.3485        0.580406 
        4.66532         10.2327        0.575275 
        4.68103         10.1517        0.570208 
        4.69673         10.1005        0.565206 
        4.71241         10.0017        0.560268 
        4.72811         9.91929        0.555381 
        4.74384         9.84439        0.550545 
        4.75955         9.76069        0.545774 
        4.77525         9.68891        0.541061 
        4.79096         9.61752        0.536398 
        4.80669         9.53848        0.531787 
         4.8224         9.46889        0.527235 
        4.83809         9.41202         0.52274 
        4.85379           9.307        0.518295 
         4.8695          9.2511        0.513897 
        4.88521         9.18329        0.509552 
        4.90093         9.12752        0.505256 
        4.91663         9.04415        0.501012 
        4.93234          8.9803        0.496813 
        4.94807         8.91587        0.492658 
        4.96377         8.83956        0.488559 
        4.97943         8.78576        0.484514 
        4.99514         8.71947        0.480504 
        5.01086          8.6473        0.476536 
        5.02654         8.57059        0.472622 
        5.04227         8.51553        0.468741 
          5.058         8.45315        0.464901 
        5.07371          8.4009        0.461111 
        5.08942          8.3134        0.457363 
        5.10513         8.26822        0.453655 
        5.12084         8.20689        0.449986 
        5.13656         8.15138        0.446358 
        5.15225         8.07819        0.442776 
        5.16796         8.01729        0.439227 
        5.18369         7.96616        0.435714 
         5.1994         7.92019        0.432245 
        5.21509         7.85857        0.428816 
        5.23079         7.79987         0.42542 
        5.24649         7.73217        0.422064 
        5.26217         7.67495        0.418745 
        5.27788         7.63456        0.415457 
        5.29359         7.56176        0.412204 
        5.30933         7.50304         0.40898 
        5.32504         7.44768        0.405796 
        5.34073         7.39128        0.402649 
        5.35646         7.34209        0.399529 
        5.37218         7.29219        0.396441 
        5.38789          7.2275        0.393391 
        5.40357         7.20697        0.390375 
        5.41929         7.14096        0.387384 
        5.43502         7.10751        0.384424 
         5.4507         7.03752        0.381502 
        5.46639         6.98539        0.378609 
        5.48212         6.92907         0.37574 
        5.49786         6.88969        0.372896 
        5.51353         6.84215        0.370096 
        5.52921         6.79617        0.367321 
        5.54495         6.74902        0.364566 
        5.56066         6.70334        0.361842 
        5.57637         6.66313        0.359147 
        5.59207         6.60071        0.356481 
        5.60778         6.56336         0.35384 
        5.62346         6.51969         0.35123 
        5.63916         6.46352        0.348643 
        5.65487         6.41859        0.346081 
         5.6706         6.38509        0.343542 
        5.68633         6.34315        0.341027 
        5.70203         6.31374        0.338541 
        5.71773         6.23965        0.336081 
        5.73344         6.21015        0.333644 
        5.74916         6.17137        0.331228 
        5.76486         6.12514         0.32884 
        5.78054         6.09873        0.326478 
        5.79626         6.04247        0.324133 
          5.812         6.00622        0.321808 
         5.8277         5.96662        0.319513 
        5.84339         5.93822         0.31724 
        5.85911         5.89557        0.314984 
        5.87484         5.85155        0.312751 
        5.89053         5.80116        0.310543 
        5.90623         5.76266        0.308356 
        5.92195         5.72333        0.306185 
        5.93767         5.69926        0.304037 
        5.95336         5.64452        0.301912 
        5.96905         5.61331        0.299809 
        5.98476         5.57582        0.297722 
        6.00048         5.54399        0.295654 
        6.01617         5.50622        0.293609 
        6.03185         5.47465        0.291585 
        6.04756         5.43699        0.289575 
        6.06331         5.40634         0.28758 
        6.07903         5.36981        0.285607 
        6.09473         5.33045        0.283655 
        6.11044         5.29836        0.281719 
        6.12616         5.26083        0.279801 
        6.14186         5.22873        0.277903 
        6.15755         5.18949        0.276022 
        6.17326         5.15689        0.274157 
        6.18898         5.12552        0.272309 
        6.20467         5.10025         0.27048 
        6.22036         5.05937        0.268668 
         6.2361          5.0315        0.266868 
         6.2518         5.00087        0.265087 
        6.26748         4.96345        0.263327 
        6.28319         4.93626        0.261577 
        6.29893         4.90679        0.259841 
        6.31463         4.86428        0.258124 
        6.33033           4.838        0.256423 
        6.34604          4.8077        0.254736 
        6.36177         4.78964        0.253062 
        6.37747         4.75702        0.251406 
