# k  (h/Mpc)    Pcb(k)  (Mpc/h)^3    Pcb_linear(k) (Mpc/h)^3   ShotnoiseSubtracted = true
      0.0200456         57.6593         58.3327 
      0.0350414         38.8875         38.7152 
      0.0492313         26.2388         26.0758 
      0.0637834         21.0218         20.9003 
      0.0800726         16.5998         16.6165 
       0.096163         11.7537         11.7101 
       0.111083          8.8883         8.84164 
       0.126058         7.69942         7.68611 
       0.142273         6.65225         6.66519 
       0.158546         5.24368         5.22544 
        0.17375         4.20933         4.19691 
       0.188953         3.72193         3.71662 
       0.204907         3.37179         3.35967 
       0.220756         2.86938         2.86443 
        0.23588         2.42566         2.41517 
         0.2514         2.14003         2.13637 
       0.267535         1.94919         1.95051 
       0.283568            1.74         1.74018 
       0.299022         1.53089         1.52652 
       0.314451         1.36229         1.36518 
       0.330372         1.24894         1.24997 
       0.346141         1.14243         1.14376 
       0.361624          1.0352         1.03432 
       0.377134        0.940668         0.93814 
       0.392932        0.856593        0.862211 
       0.408854         0.79741        0.796652 
       0.424564        0.731249        0.733487 
       0.440253        0.674013        0.674569 
       0.455999        0.625277         0.62419 
       0.471626        0.582455        0.581216 
        0.48727        0.540419        0.541408 
       0.502856        0.502321        0.504019 
       0.518488         0.47156        0.470177 
       0.534347        0.442545        0.439848 
       0.550082        0.411537         0.41247 
       0.565732        0.383984        0.387115 
       0.581496        0.363245        0.363512 
       0.597222        0.342206        0.342128 
       0.612804        0.322263        0.322771 
       0.628434        0.305441        0.304769 
       0.644267        0.287466        0.287829 
       0.660051         0.27123        0.272204 
       0.675724        0.257756        0.257899 
       0.691403        0.244797        0.244638 
       0.707174        0.231877        0.232223 
       0.722871         0.21949        0.220705 
        0.73838        0.209999        0.210079 
       0.754018        0.200443        0.200062 
       0.769845        0.190835         0.19058 
        0.78569        0.181567        0.181697 
       0.801365        0.172968         0.17346 
       0.817031        0.165504        0.165735 
       0.832809        0.158196        0.158428 
       0.848511        0.151223        0.151591 
       0.864097        0.144433        0.145204 
       0.879701        0.138202        0.139178 
       0.895507        0.133303        0.133422 
       0.911279        0.127731        0.128002 
        0.92691        0.122339        0.122926 
       0.942635        0.117779        0.118098 
       0.958396        0.112938        0.113517 
       0.974128        0.108573        0.109186 
       0.989692        0.104706        0.105123 
        1.00528        0.101054         0.10126 
        1.02113       0.0967162       0.0975303 
        1.03692       0.0933793       0.0940008 
        1.05264       0.0901865       0.0906612 
        1.06832       0.0870281        0.087488 
        1.08405         0.08384       0.0844574 
        1.09979        0.080881       0.0815677 
        1.11537        0.078622        0.078841 
        1.13105       0.0758573        0.076222 
        1.14679       0.0734758       0.0737111 
        1.16256       0.0706801       0.0713077 
        1.17828       0.0683647       0.0690188 
        1.19395       0.0661681       0.0668374 
         1.2097       0.0640868       0.0647387 
        1.22537       0.0624123       0.0627396 
          1.241       0.0603682       0.0608305 
        1.25666       0.0586629       0.0589955 
        1.27241       0.0567672       0.0572273 
        1.28819       0.0550756        0.055528 
        1.30392       0.0533463       0.0539024 
        1.31957       0.0519036       0.0523486 
        1.33529       0.0502753         0.05085 
        1.35108       0.0489207       0.0494038 
        1.36674       0.0473051       0.0480239 
         1.3824       0.0463523       0.0466976 
        1.39811       0.0449251       0.0454167 
        1.41389       0.0436724       0.0441786 
        1.42964       0.0426174       0.0429885 
        1.44531       0.0413193       0.0418478 
        1.46101       0.0402343       0.0407457 
        1.47667       0.0391284       0.0396864 
        1.49229       0.0381859       0.0386673 
        1.50793       0.0371097       0.0376826 
        1.52367       0.0362223       0.0367257 
        1.53953       0.0354115       0.0357954 
        1.55526       0.0344597       0.0349045 
        1.57092       0.0334224       0.0340473 
        1.58662       0.0327436       0.0332168 
        1.60235       0.0320749       0.0324121 
        1.61809       0.0310342       0.0316335 
        1.63369       0.0304138       0.0308872 
        1.64941       0.0298013       0.0301595 
        1.66519       0.0289768       0.0294525 
        1.68085       0.0282789        0.028773 
        1.69652       0.0275724       0.0281145 
        1.71228       0.0270695       0.0274728 
        1.72806       0.0263056       0.0268505 
        1.74368       0.0257811       0.0262535 
        1.75933       0.0252278       0.0256734 
        1.77505        0.024622        0.025108 
        1.79081       0.0241155       0.0245584 
         1.8065       0.0234963       0.0240276 
        1.82218       0.0230664       0.0235128 
        1.83797       0.0225412       0.0230094 
        1.85367       0.0220428       0.0225235 
        1.86928       0.0216429       0.0220544 
        1.88497       0.0212002        0.021596 
        1.90073       0.0207161       0.0211488 
        1.91647       0.0202133       0.0207146 
        1.93218       0.0198324       0.0202934 
        1.94787       0.0193924       0.0198845 
        1.96363       0.0190631       0.0194852 
        1.97935       0.0186213       0.0190975 
        1.99499        0.018266       0.0187225 
        2.01064        0.017952       0.0183569 
         2.0264       0.0176109       0.0179988 
        2.04216       0.0171873       0.0176503 
        2.05781       0.0168934       0.0173131 
        2.07353       0.0164855       0.0169835 
        2.08928       0.0162363       0.0166617 
        2.10499       0.0158356        0.016349 
        2.12065       0.0156348       0.0160453 
        2.13633       0.0152848       0.0157489 
        2.15211       0.0150603        0.015458 
        2.16785       0.0147607       0.0151753 
        2.18349       0.0144182       0.0149013 
        2.19916       0.0142535       0.0146335 
        2.21489       0.0139966       0.0143713 
        2.23063       0.0137169       0.0141153 
         2.2463       0.0134116       0.0138666 
        2.26194       0.0131839       0.0136245 
        2.27765       0.0129649       0.0133869 
        2.29341         0.01276       0.0131543 
        2.30914       0.0125172       0.0129277 
        2.32486       0.0122896       0.0127065 
        2.34061       0.0120976         0.01249 
        2.35635       0.0118584       0.0122788 
        2.37203        0.011654       0.0120731 
        2.38768       0.0114372       0.0118725 
        2.40339       0.0112476       0.0116757 
        2.41914       0.0110732       0.0114829 
        2.43483       0.0108548       0.0112951 
         2.4505       0.0106977       0.0111118 
        2.46622       0.0105225       0.0109319 
        2.48195       0.0103382       0.0107559 
        2.49759       0.0101736       0.0105847 
        2.51328       0.0100289       0.0104167 
        2.52906      0.00987928       0.0102513 
        2.54479      0.00972043       0.0100901 
        2.56049       0.0095519      0.00993261 
        2.57618      0.00940054       0.0097786 
        2.59189      0.00924852       0.0096276 
        2.60758      0.00909945      0.00948001 
        2.62325      0.00896466      0.00933565 
        2.63898      0.00881333      0.00919378 
        2.65468      0.00866982      0.00905513 
        2.67044       0.0085611      0.00891872 
        2.68618      0.00841898      0.00878541 
        2.70184      0.00828186      0.00865534 
        2.71755       0.0081331      0.00852755 
        2.73329      0.00802092      0.00840213 
        2.74897      0.00792313      0.00827961 
        2.76462      0.00778735      0.00815979 
        2.78034      0.00766949      0.00804183 
        2.79607      0.00756009      0.00792605 
        2.81179      0.00745084      0.00781267 
        2.82749      0.00733332      0.00770161 
        2.84321      0.00723414      0.00759257 
        2.85893       0.0071149      0.00748565 
        2.87462      0.00700858      0.00738096 
        2.89033      0.00694018      0.00727816 
        2.90605      0.00682204      0.00717721 
        2.92176      0.00673863      0.00707821 
        2.93747      0.00662646      0.00698111 
        2.95318      0.00653743       0.0068858 
        2.96891      0.00645072      0.00679221 
        2.98456       0.0063832      0.00670075 
        3.00023       0.0062695      0.00661084 
        3.01596      0.00615825      0.00652228 
        3.03164      0.00611347      0.00643558 
        3.04738      0.00601547      0.00635019 
         3.0631      0.00591124      0.00626636 
        3.07883      0.00583712      0.00618403 
        3.09456      0.00578811      0.00610318 
        3.11026      0.00568896      0.00602389 
        3.12596      0.00562846        0.005946 
        3.14163      0.00554003      0.00586966 
        3.15734      0.00546458      0.00579447 
        3.17308       0.0053876       0.0057204 
        3.18879      0.00533738      0.00564782 
        3.20447      0.00526844      0.00557659 
         3.2202      0.00520016      0.00550636 
         3.2359      0.00512799      0.00543745 
        3.25157      0.00505584      0.00536988 
        3.26729      0.00501363      0.00530324 
        3.28304      0.00493227      0.00523759 
        3.29877      0.00487961      0.00517313 
        3.31446      0.00481625      0.00510988 
        3.33014       0.0047404      0.00504774 
        3.34585       0.0046787      0.00498653 
        3.36158      0.00462856      0.00492623 
        3.37727      0.00458381       0.0048671 
        3.39294      0.00452401        0.004809 
        3.40867       0.0044814      0.00475163 
        3.42439      0.00441892      0.00469521 
        3.44008      0.00436259      0.00463981 
        3.45578      0.00431058      0.00458526 
        3.47153      0.00425793      0.00453146 
        3.48724      0.00422825       0.0044786 
        3.50292      0.00414641      0.00442671 
        3.51859      0.00410869      0.00437565 
        3.53431      0.00407024      0.00432524 
        3.55007      0.00403433      0.00427549 
        3.56577      0.00399471      0.00422671 
        3.58146      0.00392125       0.0041787 
        3.59719      0.00388542      0.00413133 
        3.61292      0.00383388      0.00408469 
        3.62859      0.00380145      0.00403895 
        3.64429      0.00376097      0.00399381 
        3.66003      0.00372479      0.00394922 
        3.67578      0.00367721      0.00390532 
        3.69146       0.0036384      0.00386225 
        3.70712      0.00360277       0.0038199 
        3.72284      0.00355768      0.00377802 
        3.73853      0.00351989      0.00373684 
        3.75422      0.00349171      0.00369625 
        3.76993      0.00345151      0.00365622 
        3.78564      0.00343059      0.00361679 
        3.80137      0.00339391      0.00357788 
        3.81707       0.0033454      0.00353962 
        3.83279      0.00331639      0.00350188 
        3.84853      0.00328577      0.00346462 
        3.86424      0.00324709      0.00342798 
        3.87992       0.0032195      0.00339191 
        3.89561      0.00318714      0.00335636 
        3.91134      0.00316832      0.00332124 
        3.92704      0.00312297      0.00328666 
        3.94273      0.00311064       0.0032526 
        3.95845       0.0030632      0.00321895 
        3.97418       0.0030374      0.00318577 
        3.98988       0.0030228       0.0031531 
        4.00554      0.00297533      0.00312097 
        4.02125      0.00293721      0.00308919 
        4.03698      0.00290682      0.00305781 
        4.05268      0.00286857      0.00302692 
        4.06839      0.00283195      0.00299644 
         4.0841      0.00279407      0.00296638 
        4.09983      0.00276285      0.00293669 
        4.11555      0.00273051      0.00290741 
        4.13124       0.0026961      0.00287861 
        4.14693      0.00266922      0.00285017 
        4.16266      0.00262995      0.00282205 
        4.17839       0.0026043      0.00279431 
        4.19408      0.00257512      0.00276701 
        4.20977      0.00255714      0.00274006 
        4.22551      0.00253245      0.00271341 
        4.24123      0.00250123      0.00268713 
        4.25691       0.0024753      0.00266126 
        4.27259      0.00245661      0.00263573 
        4.28831      0.00244504      0.00261048 
        4.30404      0.00241814      0.00258553 
        4.31974      0.00239533      0.00256095 
        4.33543      0.00237896      0.00253671 
        4.35116      0.00236065      0.00251272 
        4.36688      0.00234234      0.00248905 
        4.38255      0.00233327      0.00246577 
        4.39825      0.00232217      0.00244273 
        4.41398      0.00230892      0.00241994 
         4.4297      0.00229674      0.00239746 
        4.44541       0.0022888      0.00237527 
        4.46111      0.00227437      0.00235337 
        4.47683      0.00227267      0.00233173 
        4.49251      0.00225894       0.0023104 
        4.50819      0.00225423      0.00228935 
         4.5239      0.00225247      0.00226852 
        4.53962      0.00224641      0.00224793 
        4.55535      0.00223967      0.00222758 
        4.57106      0.00224796       0.0022075 
        4.58678      0.00223744      0.00218767 
         4.6025      0.00224272      0.00216808 
        4.61821      0.00224299      0.00214872 
        4.63391      0.00224103      0.00212963 
         4.6496      0.00224974      0.00211077 
        4.66532      0.00224456      0.00209211 
        4.68103      0.00225353      0.00207368 
        4.69673       0.0022512      0.00205549 
        4.71241      0.00226856      0.00203753 
        4.72811      0.00227617      0.00201976 
        4.74384      0.00228118      0.00200217 
        4.75955      0.00229402      0.00198482 
        4.77525      0.00230592      0.00196768 
        4.79096      0.00231688      0.00195072 
        4.80669      0.00232818      0.00193395 
         4.8224      0.00233972       0.0019174 
        4.83809      0.00235029      0.00190105 
        4.85379      0.00238102      0.00188489 
         4.8695      0.00239516      0.00186889 
        4.88521      0.00239975      0.00185309 
        4.90093      0.00242952      0.00183747 
        4.91663      0.00245253      0.00182204 
        4.93234       0.0024651      0.00180676 
        4.94807      0.00249982      0.00179165 
        4.96377       0.0025321      0.00177675 
        4.97943      0.00255316      0.00176204 
        4.99514      0.00257437      0.00174745 
        5.01086      0.00259142      0.00173302 
        5.02654      0.00262884      0.00171879 
        5.04227       0.0026524      0.00170467 
          5.058      0.00269687      0.00169071 
        5.07371      0.00273909      0.00167693 
        5.08942      0.00276882      0.00166329 
        5.10513      0.00279308      0.00164981 
        5.12084      0.00284168      0.00163647 
        5.13656      0.00286816      0.00162327 
        5.15225      0.00291679      0.00161025 
        5.16796      0.00295852      0.00159734 
        5.18369      0.00300966      0.00158456 
         5.1994      0.00306578      0.00157195 
        5.21509      0.00309551      0.00155948 
        5.23079       0.0031345      0.00154713 
        5.24649      0.00320293      0.00153492 
        5.26217      0.00325081      0.00152285 
        5.27788      0.00330544       0.0015109 
        5.29359      0.00336784      0.00149907 
        5.30933      0.00341752      0.00148734 
        5.32504      0.00348007      0.00147576 
        5.34073      0.00355777      0.00146432 
        5.35646      0.00361254      0.00145297 
        5.37218      0.00365818      0.00144174 
        5.38789      0.00372325      0.00143065 
        5.40357      0.00380604      0.00141968 
        5.41929       0.0038674       0.0014088 
        5.43502      0.00395329      0.00139804 
         5.4507      0.00403853      0.00138741 
        5.46639      0.00412307      0.00137689 
        5.48212      0.00417209      0.00136646 
        5.49786      0.00428575      0.00135611 
        5.51353      0.00434768      0.00134593 
        5.52921      0.00443916      0.00133584 
        5.54495      0.00453822      0.00132582 
        5.56066       0.0046332      0.00131592 
        5.57637      0.00473144      0.00130611 
        5.59207      0.00482835      0.00129642 
        5.60778      0.00493542      0.00128681 
        5.62346      0.00506225      0.00127732 
        5.63916      0.00514389      0.00126791 
        5.65487      0.00525156       0.0012586 
         5.6706      0.00537492      0.00124936 
        5.68633      0.00550907      0.00124021 
        5.70203       0.0056246      0.00123118 
        5.71773      0.00579516      0.00122223 
        5.73344      0.00588181      0.00121337 
        5.74916      0.00602683      0.00120458 
        5.76486      0.00619112      0.00119589 
        5.78054      0.00630788      0.00118731 
        5.79626      0.00643565      0.00117878 
          5.812      0.00661426      0.00117032 
         5.8277      0.00676844      0.00116198 
        5.84339      0.00698006      0.00115371 
        5.85911      0.00712884      0.00114551 
        5.87484      0.00731269      0.00113738 
        5.89053      0.00749688      0.00112936 
        5.90623      0.00771451       0.0011214 
        5.92195      0.00790141      0.00111351 
        5.93767      0.00804243      0.00110569 
        5.95336      0.00822696      0.00109797 
        5.96905      0.00854439      0.00109032 
        5.98476      0.00864552      0.00108273 
        6.00048      0.00889203      0.00107521 
        6.01617      0.00914695      0.00106777 
        6.03185      0.00930418      0.00106041 
        6.04756      0.00960697       0.0010531 
        6.06331      0.00985136      0.00104584 
        6.07903       0.0101372      0.00103867 
        6.09473       0.0103346      0.00103157 
        6.11044       0.0106686      0.00102453 
        6.12616       0.0109494      0.00101755 
        6.14186       0.0112338      0.00101065 
        6.15755       0.0115464      0.00100381 
        6.17326       0.0118739      0.00099703 
        6.18898       0.0122179     0.000990307 
        6.20467       0.0125875     0.000983657 
        6.22036       0.0129352     0.000977069 
         6.2361       0.0132833     0.000970522 
         6.2518       0.0136466     0.000964045 
        6.26748       0.0140054     0.000957642 
        6.28319       0.0144058     0.000951278 
        6.29893       0.0148148     0.000944966 
        6.31463       0.0152904     0.000938722 
        6.33033       0.0156904     0.000932535 
        6.34604       0.0161534     0.000926399 
        6.36177       0.0166911     0.000920312 
        6.37747       0.0171881     0.000914291 
