# k  (h/Mpc)    Pcb(k)  (Mpc/h)^3    Pcb_linear(k) (Mpc/h)^3   ShotnoiseSubtracted = true
      0.0200456         22703.2         23159.9 
      0.0350414         14741.3         15371.2 
      0.0492313         10236.1         10352.9 
      0.0637834         8608.27         8298.09 
      0.0800726         6777.49         6597.29 
       0.096163         4583.72         4649.27 
       0.111083         3545.24         3510.41 
       0.126058         3204.38         3051.63 
       0.142273         2818.54         2646.29 
       0.158546         2432.39         2074.67 
        0.17375         1894.15         1666.31 
       0.188953         1831.79         1475.62 
       0.204907          1723.7          1333.9 
       0.220756         1485.13         1137.27 
        0.23588         1317.77         958.898 
         0.2514         1132.93         848.206 
       0.267535         1122.77         774.413 
       0.283568         1016.27         690.907 
       0.299022         959.131         606.078 
       0.314451         908.486         542.018 
       0.330372          831.49         496.277 
       0.346141         781.597         454.109 
       0.361624         751.299         410.659 
       0.377134         696.632         372.471 
       0.392932         664.104         342.325 
       0.408854         649.405         316.296 
       0.424564         598.909         291.218 
       0.440253         589.927         267.825 
       0.455999         560.363         247.823 
       0.471626          539.91         230.761 
        0.48727         514.465         214.956 
       0.502856         500.349         200.112 
       0.518488         494.086         186.675 
       0.534347         461.843         174.633 
       0.550082         445.415         163.764 
       0.565732           444.2         153.697 
       0.581496         416.005         144.326 
       0.597222         409.044         135.835 
       0.612804         400.084          128.15 
       0.628434         386.954         121.003 
       0.644267         376.393         114.277 
       0.660051         365.274         108.074 
       0.675724         360.567         102.394 
       0.691403         347.984          97.129 
       0.707174         336.263         92.1998 
       0.722871         331.122         87.6268 
        0.73838         326.684         83.4079 
       0.754018         317.844         79.4309 
       0.769845         311.587         75.6664 
        0.78569         307.469         72.1393 
       0.801365         298.701         68.8691 
       0.817031         288.514         65.8019 
       0.832809          287.36         62.9008 
       0.848511         279.775         60.1866 
       0.864097         273.825         57.6507 
       0.879701          269.68          55.258 
       0.895507         265.778         52.9726 
       0.911279         257.739         50.8207 
        0.92691         255.511         48.8057 
       0.942635         248.855         46.8885 
       0.958396         244.569         45.0698 
       0.974128         239.977         43.3504 
       0.989692         237.323         41.7374 
        1.00528         232.351         40.2036 
        1.02113         229.432         38.7226 
        1.03692         224.778         37.3213 
        1.05264         222.074         35.9954 
        1.06832         216.955         34.7355 
        1.08405          213.84         33.5323 
        1.09979         208.689          32.385 
        1.11537          207.25         31.3024 
        1.13105         202.039         30.2625 
        1.14679          199.13         29.2656 
        1.16256         196.988         28.3114 
        1.17828         195.016         27.4027 
        1.19395         190.295         26.5366 
         1.2097         189.454         25.7033 
        1.22537          186.02         24.9096 
          1.241          184.34         24.1516 
        1.25666         181.637         23.4231 
        1.27241          178.27          22.721 
        1.28819         176.579         22.0464 
        1.30392         172.178          21.401 
        1.31957         172.306         20.7841 
        1.33529         168.743         20.1891 
        1.35108          164.86         19.6149 
        1.36674         163.984          19.067 
         1.3824         163.233         18.5404 
        1.39811         160.464         18.0319 
        1.41389         157.696         17.5403 
        1.42964         156.081         17.0678 
        1.44531         154.203         16.6149 
        1.46101         151.399         16.1773 
        1.47667         149.299         15.7568 
        1.49229         148.459         15.3522 
        1.50793         145.118         14.9612 
        1.52367         144.245         14.5813 
        1.53953         142.076         14.2119 
        1.55526         139.722         13.8582 
        1.57092         138.223         13.5179 
        1.58662         137.019         13.1881 
        1.60235         134.544         12.8686 
        1.61809         133.754         12.5595 
        1.63369         131.209         12.2632 
        1.64941         128.926         11.9743 
        1.66519         127.543         11.6936 
        1.68085         126.433         11.4238 
        1.69652         125.405         11.1624 
        1.71228         123.017         10.9076 
        1.72806         121.474         10.6605 
        1.74368         120.584         10.4235 
        1.75933         118.656         10.1932 
        1.77505         117.507         9.96866 
        1.79081         116.433         9.75048 
         1.8065         114.878         9.53972 
        1.82218         113.051         9.33532 
        1.83797         111.864         9.13548 
        1.85367         110.641         8.94254 
        1.86928          108.77         8.75629 
        1.88497         107.558         8.57429 
        1.90073         106.016         8.39675 
        1.91647         104.971         8.22436 
        1.93218         104.018         8.05714 
        1.94787         102.143         7.89478 
        1.96363         101.142         7.73622 
        1.97935         99.7212         7.58231 
        1.99499         98.7011         7.43342 
        2.01064         97.3175         7.28829 
         2.0264         96.4253         7.14609 
        2.04216         95.1933         7.00772 
        2.05781         94.5395         6.87386 
        2.07353          93.466           6.743 
        2.08928         91.4115         6.61523 
        2.10499         90.4156         6.49109 
        2.12065         89.6513         6.37048 
        2.13633          88.787         6.25281 
        2.15211         87.4587         6.13733 
        2.16785         86.3435         6.02506 
        2.18349         85.6331         5.91629 
        2.19916         84.5161         5.80995 
        2.21489         83.6473         5.70585 
        2.23063         82.5169         5.60421 
         2.2463          81.519         5.50549 
        2.26194         80.6232         5.40937 
        2.27765         79.5134         5.31503 
        2.29341         78.9464         5.22268 
        2.30914         77.9624          5.1327 
        2.32486         77.3057         5.04487 
        2.34061         76.4909         4.95894 
        2.35635         74.9372         4.87507 
        2.37203         74.0821         4.79341 
        2.38768         73.4914         4.71377 
        2.40339         72.5648         4.63564 
        2.41914         71.7767         4.55909 
        2.43483         71.0946         4.48452 
         2.4505         70.1118         4.41173 
        2.46622         69.3006          4.3403 
        2.48195         68.7114         4.27042 
        2.49759         67.8243         4.20245 
        2.51328         67.4251         4.13576 
        2.52906         66.4095         4.07009 
        2.54479         65.7712         4.00608 
        2.56049          64.934         3.94356 
        2.57618         64.5897         3.88242 
        2.59189          63.604         3.82247 
        2.60758          62.652         3.76386 
        2.62325         62.2082         3.70655 
        2.63898         61.3695         3.65022 
        2.65468         60.8539         3.59517 
        2.67044         60.2929         3.54102 
        2.68618         59.7097         3.48809 
        2.70184         59.2105         3.43644 
        2.71755         58.2683         3.38571 
        2.73329          57.785         3.33591 
        2.74897         57.2488         3.28727 
        2.76462         56.5011          3.2397 
        2.78034         55.8967         3.19286 
        2.79607         55.4988         3.14689 
        2.81179         54.7345         3.10188 
        2.82749         54.2075         3.05778 
        2.84321         53.7329         3.01449 
        2.85893         52.9571         2.97204 
        2.87462         52.4647         2.93048 
        2.89033          51.905         2.88966 
        2.90605         51.3937         2.84958 
        2.92176         50.7151         2.81027 
        2.93747         50.4354         2.77172 
        2.95318         49.7809         2.73388 
        2.96891         49.1938         2.69672 
        2.98456         48.6886         2.66041 
        3.00023         48.1693         2.62471 
        3.01596         47.6132         2.58955 
        3.03164         47.2139         2.55513 
        3.04738         46.7636         2.52123 
         3.0631         46.2259         2.48794 
        3.07883         45.9071         2.45526 
        3.09456         45.3301         2.42316 
        3.11026         44.9067         2.39168 
        3.12596         44.2681         2.36075 
        3.14163         44.1284         2.33044 
        3.15734         43.4476         2.30059 
        3.17308         43.2578         2.27118 
        3.18879         42.7208         2.24236 
        3.20447         42.0954         2.21408 
         3.2202         41.7335          2.1862 
         3.2359         41.4923         2.15884 
        3.25157         40.9807         2.13201 
        3.26729         40.6178         2.10555 
        3.28304         40.2592         2.07949 
        3.29877         39.9126          2.0539 
        3.31446         39.2023         2.02879 
        3.33014         38.9691         2.00411 
        3.34585         38.6413         1.97981 
        3.36158         38.3839         1.95587 
        3.37727         37.9189          1.9324 
        3.39294         37.6154         1.90933 
        3.40867         37.2498         1.88655 
        3.42439         36.8498         1.86415 
        3.44008         36.4018         1.84215 
        3.45578         36.1321         1.82049 
        3.47153         35.8897         1.79913 
        3.48724         35.4325         1.77815 
        3.50292         35.0886         1.75754 
        3.51859         34.8178         1.73727 
        3.53431         34.4689         1.71726 
        3.55007         34.1019          1.6975 
        3.56577         33.8097         1.67814 
        3.58146         33.5845         1.65908 
        3.59719         33.2416         1.64027 
        3.61292         32.8248         1.62175 
        3.62859         32.5415         1.60359 
        3.64429         32.2291         1.58567 
        3.66003         31.9863         1.56797 
        3.67578         31.5949         1.55054 
        3.69146          31.397         1.53344 
        3.70712         31.0965         1.51662 
        3.72284         30.8136         1.49999 
        3.73853          30.539         1.48364 
        3.75422         30.2431         1.46753 
        3.76993         29.9472         1.45164 
        3.78564         29.6337         1.43598 
        3.80137         29.3575         1.42053 
        3.81707         29.1576         1.40534 
        3.83279         28.8136         1.39036 
        3.84853          28.616         1.37557 
        3.86424         28.4785         1.36102 
        3.87992         28.0778          1.3467 
        3.89561         27.9638         1.33258 
        3.91134         27.6496         1.31864 
        3.92704         27.3923         1.30491 
        3.94273         27.0752         1.29138 
        3.95845         26.9408         1.27803 
        3.97418         26.7153         1.26485 
        3.98988         26.4051         1.25188 
        4.00554         26.1976         1.23912 
        4.02125         25.9459         1.22651 
        4.03698         25.7887         1.21405 
        4.05268         25.6549         1.20178 
        4.06839         25.3576         1.18968 
         4.0841         25.0958         1.17775 
        4.09983         24.8567         1.16596 
        4.11555         24.6307         1.15433 
        4.13124         24.4114          1.1429 
        4.14693          24.262         1.13161 
        4.16266         24.0261         1.12044 
        4.17839         23.7982         1.10943 
        4.19408         23.5042         1.09859 
        4.20977         23.3586         1.08789 
        4.22551         23.1435         1.07731 
        4.24123         22.9512         1.06687 
        4.25691         22.8197         1.05661 
        4.27259         22.6406         1.04647 
        4.28831         22.3947         1.03644 
        4.30404         22.2288         1.02654 
        4.31974          22.085         1.01678 
        4.33543         21.8547         1.00716 
        4.35116         21.6503        0.997631 
        4.36688         21.5182        0.988232 
        4.38255          21.332        0.978988 
        4.39825         21.1698        0.969842 
        4.41398         20.9526        0.960792 
         4.4297         20.7563        0.951868 
        4.44541         20.6631        0.943056 
        4.46111         20.4387        0.934363 
        4.47683          20.302        0.925771 
        4.49251          20.118        0.917304 
        4.50819         19.9293        0.908944 
         4.5239         19.7449        0.900676 
        4.53962          19.602        0.892499 
        4.55535         19.4631        0.884418 
        4.57106         19.2886        0.876449 
        4.58678         19.1347        0.868575 
         4.6025         18.9657        0.860795 
        4.61821          18.844        0.853111 
        4.63391         18.6471        0.845529 
         4.6496          18.523        0.838042 
        4.66532          18.348        0.830634 
        4.68103         18.2333        0.823317 
        4.69673         18.0803        0.816094 
        4.71241         17.8996        0.808965 
        4.72811         17.7947        0.801908 
        4.74384         17.6595        0.794926 
        4.75955         17.5253        0.788037 
        4.77525         17.3628        0.781232 
        4.79096         17.2411        0.774499 
        4.80669          17.095        0.767841 
         4.8224         16.9702        0.761268 
        4.83809         16.8228        0.754779 
        4.85379         16.6838         0.74836 
         4.8695         16.5752         0.74201 
        4.88521         16.4947        0.735736 
        4.90093         16.3361        0.729533 
        4.91663         16.2101        0.723406 
        4.93234         16.0762        0.717342 
        4.94807         15.9317        0.711344 
        4.96377         15.8016        0.705424 
        4.97943         15.7308        0.699584 
        4.99514         15.5394        0.693794 
        5.01086         15.4522        0.688065 
        5.02654         15.3471        0.682414 
        5.04227         15.2256         0.67681 
          5.058         15.1325        0.671265 
        5.07371         14.9765        0.665793 
        5.08942         14.8699        0.660381 
        5.10513         14.7583        0.655027 
        5.12084          14.619         0.64973 
        5.13656         14.5433        0.644492 
        5.15225         14.4371        0.639319 
        5.16796         14.3217        0.634195 
        5.18369         14.2082        0.629122 
         5.1994         14.1216        0.624113 
        5.21509         14.0116        0.619163 
        5.23079         13.8909        0.614259 
        5.24649         13.7854        0.609413 
        5.26217         13.6918        0.604621 
        5.27788         13.6049        0.599874 
        5.29359         13.4975        0.595177 
        5.30933         13.3853        0.590522 
        5.32504         13.2857        0.585925 
        5.34073         13.1825        0.581381 
        5.35646          13.079        0.576876 
        5.37218         13.0048        0.572417 
        5.38789         12.9193        0.568012 
        5.40357         12.8203        0.563658 
        5.41929         12.7285         0.55934 
        5.43502         12.6083        0.555066 
         5.4507         12.5284        0.550846 
        5.46639         12.4347         0.54667 
        5.48212         12.3391        0.542526 
        5.49786         12.2554         0.53842 
        5.51353         12.1794        0.534377 
        5.52921         12.0996         0.53037 
        5.54495         11.9887        0.526393 
        5.56066         11.9067         0.52246 
        5.57637         11.8117        0.518568 
        5.59207         11.7329        0.514718 
        5.60778         11.6644        0.510906 
        5.62346         11.5764        0.507137 
        5.63916         11.5043        0.503402 
        5.65487         11.4072        0.499703 
         5.6706         11.3183        0.496036 
        5.68633         11.2582        0.492404 
        5.70203           11.17        0.488816 
        5.71773          11.067        0.485264 
        5.73344         11.0273        0.481745 
        5.74916         10.9392        0.478257 
        5.76486         10.8438        0.474808 
        5.78054         10.8154        0.471398 
        5.79626         10.7184        0.468012 
          5.812         10.6412        0.464656 
         5.8277         10.5509        0.461341 
        5.84339         10.4929        0.458059 
        5.85911         10.4293        0.454802 
        5.87484         10.3382        0.451577 
        5.89053         10.2734         0.44839 
        5.90623         10.2268        0.445231 
        5.92195         10.1261        0.442098 
        5.93767         10.0585        0.438995 
        5.95336         10.0003        0.435928 
        5.96905          9.9205         0.43289 
        5.98476         9.86611        0.429877 
        6.00048         9.79226        0.426892 
        6.01617         9.73043        0.423938 
        6.03185         9.65139        0.421016 
        6.04756         9.58918        0.418114 
        6.06331          9.5376        0.415233 
        6.07903          9.4542        0.412385 
        6.09473         9.39572        0.409566 
        6.11044         9.32627        0.406771 
        6.12616         9.27205        0.404002 
        6.14186         9.22186        0.401261 
        6.15755         9.14627        0.398545 
        6.17326         9.09526        0.395853 
        6.18898         9.02584        0.393183 
        6.20467         8.97473        0.390543 
        6.22036         8.89024        0.387927 
         6.2361         8.84063        0.385328 
         6.2518         8.78185        0.382757 
        6.26748         8.75166        0.380214 
        6.28319         8.68804        0.377688 
        6.29893         8.62427        0.375182 
        6.31463         8.57093        0.372702 
        6.33033         8.49776        0.370246 
        6.34604         8.45783         0.36781 
        6.36177         8.38676        0.365393 
        6.37747         8.35345        0.363003 
