# k  (h/Mpc)    Pcb(k)  (Mpc/h)^3    Pcb_linear(k) (Mpc/h)^3   ShotnoiseSubtracted = true
      0.0200456         19226.9         19511.4 
      0.0350414           13427         12949.7 
      0.0492313         8637.53         8721.98 
      0.0637834         6760.22         6990.86 
      0.0800726         5293.53         5557.99 
       0.096163         4140.11         3916.85 
       0.111083         3215.86          2957.4 
       0.126058         2624.64         2570.89 
       0.142273         2313.38         2229.41 
       0.158546         1883.33         1747.84 
        0.17375         1621.79         1403.81 
       0.188953         1507.76         1243.16 
       0.204907         1293.06         1123.76 
       0.220756         1164.68          958.11 
        0.23588         1025.92         807.838 
         0.2514         912.008         714.584 
       0.267535         882.686         652.416 
       0.283568         775.901         582.065 
       0.299022         736.094           510.6 
       0.314451         756.479         456.632 
       0.330372         649.818         418.096 
       0.346141         597.401         382.572 
       0.361624         570.558         345.966 
       0.377134         541.229         313.794 
       0.392932         516.281         288.397 
       0.408854         493.003         266.469 
       0.424564         478.296         245.341 
       0.440253         435.437         225.634 
       0.455999         415.276         208.783 
       0.471626         421.597         194.408 
        0.48727         395.831         181.093 
       0.502856         371.322         168.587 
       0.518488         365.592         157.268 
       0.534347         345.318         147.123 
       0.550082         329.363         137.965 
       0.565732         326.549         129.485 
       0.581496         315.295          121.59 
       0.597222         306.505         114.437 
       0.612804         297.381         107.962 
       0.628434         286.523         101.941 
       0.644267         274.959         96.2746 
       0.660051         271.544         91.0483 
       0.675724         265.213         86.2634 
       0.691403         259.731         81.8278 
       0.707174         249.751         77.6752 
       0.722871         245.813         73.8226 
        0.73838         241.422         70.2683 
       0.754018         232.406         66.9178 
       0.769845         232.229         63.7464 
        0.78569         225.087         60.7749 
       0.801365         218.042         58.0198 
       0.817031         216.654         55.4358 
       0.832809         211.345         52.9917 
       0.848511         206.492         50.7052 
       0.864097         200.458         48.5687 
       0.879701         200.291          46.553 
       0.895507         195.109         44.6276 
       0.911279         190.158         42.8147 
        0.92691          187.26         41.1171 
       0.942635         185.425         39.5019 
       0.958396         180.627         37.9697 
       0.974128         178.562         36.5213 
       0.989692         172.091         35.1623 
        1.00528         171.984         33.8702 
        1.02113         169.199         32.6225 
        1.03692         165.303         31.4419 
        1.05264          161.96         30.3249 
        1.06832         161.692         29.2635 
        1.08405         157.388         28.2498 
        1.09979         155.748         27.2832 
        1.11537         153.923         26.3712 
        1.13105         150.556         25.4951 
        1.14679          149.23         24.6553 
        1.16256          146.21         23.8514 
        1.17828         144.914         23.0858 
        1.19395         141.363         22.3562 
         1.2097         140.705         21.6542 
        1.22537         139.236         20.9855 
          1.241         134.957         20.3469 
        1.25666         134.408         19.7332 
        1.27241         131.464         19.1417 
        1.28819         130.274         18.5733 
        1.30392         128.834         18.0296 
        1.31957         125.858         17.5098 
        1.33529         123.685         17.0086 
        1.35108          122.87         16.5249 
        1.36674         120.306         16.0633 
         1.3824         119.609         15.6197 
        1.39811         117.981         15.1912 
        1.41389         115.412         14.7771 
        1.42964         113.795          14.379 
        1.44531         112.998         13.9975 
        1.46101         110.543         13.6289 
        1.47667         110.389         13.2745 
        1.49229         108.884         12.9337 
        1.50793         106.644         12.6043 
        1.52367         105.257         12.2842 
        1.53953         103.601          11.973 
        1.55526         102.919          11.675 
        1.57092         101.961         11.3883 
        1.58662         100.069         11.1105 
        1.60235         98.8869         10.8414 
        1.61809         97.9738          10.581 
        1.63369         96.0969         10.3313 
        1.64941         95.8794         10.0879 
        1.66519         94.2991         9.85143 
        1.68085         92.5515         9.62414 
        1.69652         91.8477          9.4039 
        1.71228         90.4329         9.18926 
        1.72806         90.1478          8.9811 
        1.74368         88.6522         8.78143 
        1.75933         87.6909         8.58739 
        1.77505         86.6085         8.39826 
        1.79081         85.2249         8.21445 
         1.8065         83.8477         8.03689 
        1.82218         83.1225         7.86469 
        1.83797         82.8067         7.69633 
        1.85367         81.2051         7.53378 
        1.86928         80.8396         7.37687 
        1.88497         79.2456         7.22354 
        1.90073          78.621         7.07398 
        1.91647         77.4575         6.92874 
        1.93218         76.6811         6.78787 
        1.94787         75.3366         6.65109 
        1.96363         74.7009          6.5175 
        1.97935         74.0888         6.38784 
        1.99499         73.5148          6.2624 
        2.01064         71.9337         6.14013 
         2.0264         71.3282         6.02033 
        2.04216          70.207         5.90376 
        2.05781         69.5178         5.79099 
        2.07353         68.9363         5.68074 
        2.08928         68.0579          5.5731 
        2.10499         67.1322         5.46852 
        2.12065         66.6806         5.36691 
        2.13633         65.7342         5.26778 
        2.15211         64.7822         5.17049 
        2.16785         63.8759         5.07591 
        2.18349         63.2473         4.98427 
        2.19916         62.6583         4.89468 
        2.21489         61.8548         4.80698 
        2.23063         60.8478         4.72136 
         2.2463         60.5033         4.63818 
        2.26194          60.046         4.55721 
        2.27765          59.039         4.47773 
        2.29341         58.4532         4.39993 
        2.30914         57.7566         4.32413 
        2.32486         57.2052         4.25013 
        2.34061         56.2466         4.17774 
        2.35635           55.82         4.10708 
        2.37203         55.0317         4.03828 
        2.38768          54.651         3.97119 
        2.40339         54.0419         3.90537 
        2.41914         53.0603         3.84088 
        2.43483         52.9802         3.77806 
         2.4505         52.3054         3.71673 
        2.46622         51.7633         3.65655 
        2.48195         51.1238         3.59768 
        2.49759         50.6726         3.54042 
        2.51328         50.0083         3.48424 
        2.52906         49.5614         3.42891 
        2.54479         49.0149         3.37499 
        2.56049         48.1546         3.32231 
        2.57618         47.8565          3.2708 
        2.59189           47.27          3.2203 
        2.60758         46.7551         3.17093 
        2.62325         46.4477         3.12264 
        2.63898         46.0148         3.07519 
        2.65468         45.3721         3.02881 
        2.67044         44.9249         2.98318 
        2.68618          44.496         2.93859 
        2.70184         44.0279         2.89509 
        2.71755         43.2762         2.85234 
        2.73329         42.9797         2.81039 
        2.74897         42.5538         2.76941 
        2.76462         42.2395         2.72933 
        2.78034          41.789         2.68988 
        2.79607         41.2153         2.65115 
        2.81179         40.7199         2.61322 
        2.82749         40.4403         2.57608 
        2.84321         40.0967          2.5396 
        2.85893         39.5928         2.50384 
        2.87462         39.1926         2.46883 
        2.89033         38.5893         2.43444 
        2.90605           38.16         2.40067 
        2.92176         38.1132         2.36756 
        2.93747         37.6038         2.33508 
        2.95318          37.199          2.3032 
        2.96891          36.749          2.2719 
        2.98456         36.4935         2.24131 
        3.00023         36.0199         2.21123 
        3.01596         35.5431         2.18161 
        3.03164         35.2476         2.15261 
        3.04738         34.9984         2.12405 
         3.0631         34.7607         2.09601 
        3.07883         34.3277         2.06847 
        3.09456          33.978         2.04143 
        3.11026         33.5667          2.0149 
        3.12596         33.2938         1.98885 
        3.14163         32.9113         1.96332 
        3.15734         32.6053         1.93817 
        3.17308         32.3363         1.91339 
        3.18879         32.0245         1.88911 
        3.20447         31.5716         1.86529 
         3.2202         31.2988          1.8418 
         3.2359         31.1042         1.81875 
        3.25157         30.7085         1.79615 
        3.26729         30.4802         1.77386 
        3.28304         30.1588          1.7519 
        3.29877         29.7644         1.73034 
        3.31446          29.494         1.70918 
        3.33014         29.2027          1.6884 
        3.34585         28.8697         1.66792 
        3.36158         28.6838         1.64775 
        3.37727         28.3486         1.62798 
        3.39294         28.1056         1.60854 
        3.40867          27.837         1.58935 
        3.42439         27.5842         1.57048 
        3.44008         27.3486         1.55195 
        3.45578         27.0847          1.5337 
        3.47153         26.8696         1.51571 
        3.48724         26.5248         1.49803 
        3.50292         26.3654         1.48067 
        3.51859         26.0637         1.46359 
        3.53431          25.838         1.44673 
        3.55007         25.5539         1.43009 
        3.56577         25.2947         1.41377 
        3.58146         25.0251         1.39772 
        3.59719         24.8733         1.38187 
        3.61292         24.6238         1.36627 
        3.62859         24.3924         1.35097 
        3.64429         24.1645         1.33587 
        3.66003         23.9067         1.32096 
        3.67578         23.7047         1.30627 
        3.69146         23.4861         1.29187 
        3.70712         23.3302          1.2777 
        3.72284         23.1542         1.26369 
        3.73853         22.9685         1.24992 
        3.75422          22.669         1.23634 
        3.76993         22.5319         1.22295 
        3.78564         22.2848         1.20977 
        3.80137          22.045         1.19675 
        3.81707         21.8838         1.18395 
        3.83279         21.6353         1.17133 
        3.84853         21.4851         1.15887 
        3.86424         21.2634         1.14661 
        3.87992         21.0922         1.13455 
        3.89561         20.8714         1.12265 
        3.91134         20.6951         1.11091 
        3.92704         20.4764         1.09934 
        3.94273         20.3076         1.08795 
        3.95845         20.1777         1.07669 
        3.97418         19.9996         1.06559 
        3.98988         19.7608         1.05467 
        4.00554         19.5833         1.04392 
        4.02125         19.4601         1.03329 
        4.03698         19.2235         1.02279 
        4.05268         19.0975         1.01246 
        4.06839         18.9015         1.00227 
         4.0841         18.7387        0.992212 
        4.09983         18.6146         0.98228 
        4.11555         18.4413        0.972487 
        4.13124         18.3112        0.962853 
        4.14693          18.115        0.953341 
        4.16266         18.0114        0.943934 
        4.17839         17.8554        0.934658 
        4.19408         17.6946        0.925527 
        4.20977         17.5581        0.916512 
        4.22551         17.3963        0.907595 
        4.24123         17.2442        0.898805 
        4.25691         17.1216        0.890154 
        4.27259         16.9156        0.881613 
        4.28831         16.8191        0.873166 
        4.30404         16.6576        0.864821 
        4.31974         16.5263        0.856602 
        4.33543         16.3693        0.848494 
        4.35116         16.2546         0.84047 
        4.36688         16.0807        0.832551 
        4.38255         15.9758        0.824764 
        4.39825         15.8594        0.817058 
        4.41398         15.7224        0.809435 
         4.4297         15.5792        0.801916 
        4.44541         15.4725        0.794493 
        4.46111         15.2986        0.787168 
        4.47683         15.2012         0.77993 
        4.49251         15.0517        0.772797 
        4.50819         14.9343        0.765754 
         4.5239         14.8811        0.758788 
        4.53962         14.6662        0.751899 
        4.55535         14.5755        0.745092 
        4.57106         14.4767        0.738378 
        4.58678         14.3399        0.731744 
         4.6025         14.2206         0.72519 
        4.61821         14.0891        0.718716 
        4.63391         13.9752        0.712329 
         4.6496         13.8504        0.706022 
        4.66532         13.7492         0.69978 
        4.68103         13.6668        0.693616 
        4.69673          13.558        0.687532 
        4.71241         13.4339        0.681525 
        4.72811         13.3323         0.67558 
        4.74384         13.2319        0.669698 
        4.75955         13.1219        0.663894 
        4.77525         12.9984        0.658161 
        4.79096         12.9118        0.652489 
        4.80669         12.7928         0.64688 
         4.8224         12.7056        0.641342 
        4.83809         12.5971        0.635875 
        4.85379         12.4881        0.630468 
         4.8695         12.4254        0.625118 
        4.88521         12.3218        0.619832 
        4.90093         12.2239        0.614606 
        4.91663         12.1102        0.609445 
        4.93234         12.0434        0.604336 
        4.94807         11.9328        0.599283 
        4.96377         11.8699        0.594296 
        4.97943         11.7513        0.589375 
        4.99514         11.6501        0.584498 
        5.01086         11.5715        0.579671 
        5.02654         11.4951        0.574911 
        5.04227         11.3976        0.570189 
          5.058         11.3061        0.565518 
        5.07371         11.2425        0.560908 
        5.08942         11.1655        0.556348 
        5.10513         11.0467        0.551838 
        5.12084         10.9786        0.547375 
        5.13656         10.9001        0.542962 
        5.15225         10.8128        0.538605 
        5.16796         10.7366        0.534288 
        5.18369         10.6309        0.530014 
         5.1994         10.5855        0.525794 
        5.21509         10.5008        0.521623 
        5.23079         10.4132        0.517493 
        5.24649         10.3307        0.513409 
        5.26217         10.2656        0.509373 
        5.27788         10.2081        0.505373 
        5.29359         10.1044        0.501416 
        5.30933         10.0356        0.497495 
        5.32504         9.96807        0.493621 
        5.34073         9.89267        0.489793 
        5.35646         9.81949        0.485998 
        5.37218         9.75026        0.482242 
        5.38789         9.66203        0.478531 
        5.40357         9.58324        0.474863 
        5.41929            9.55        0.471225 
        5.43502         9.47003        0.467624 
         5.4507          9.3915        0.464069 
        5.46639         9.32283         0.46055 
        5.48212         9.26655         0.45706 
        5.49786         9.18566        0.453601 
        5.51353         9.14331        0.450194 
        5.52921         9.07318        0.446819 
        5.54495         9.00782        0.443468 
        5.56066         8.94193        0.440155 
        5.57637         8.88064        0.436876 
        5.59207         8.79303        0.433632 
        5.60778          8.7654        0.430421 
        5.62346         8.68497        0.427246 
        5.63916         8.62475        0.424099 
        5.65487         8.57122        0.420983 
         5.6706         8.50284        0.417893 
        5.68633         8.44075        0.414834 
        5.70203         8.38308        0.411811 
        5.71773         8.31844        0.408818 
        5.73344         8.27292        0.405853 
        5.74916         8.20928        0.402915 
        5.76486          8.1548         0.40001 
        5.78054         8.10638        0.397137 
        5.79626         8.03401        0.394284 
          5.812         7.99028        0.391456 
         5.8277         7.91404        0.388664 
        5.84339         7.86586        0.385899 
        5.85911         7.81625        0.383155 
        5.87484         7.77293        0.380438 
        5.89053         7.72477        0.377753 
        5.90623         7.66613        0.375092 
        5.92195         7.59755        0.372452 
        5.93767         7.55684        0.369839 
        5.95336         7.49509        0.367254 
        5.96905         7.44338        0.364695 
        5.98476         7.41983        0.362157 
        6.00048         7.35065        0.359642 
        6.01617         7.30865        0.357153 
        6.03185         7.24866        0.354692 
        6.04756         7.20066        0.352247 
        6.06331         7.15738         0.34982 
        6.07903         7.11844         0.34742 
        6.09473         7.05156        0.345045 
        6.11044         7.01431         0.34269 
        6.12616         6.97505        0.340357 
        6.14186         6.93971        0.338048 
        6.15755         6.89465        0.335761 
        6.17326         6.83197        0.333492 
        6.18898         6.78801        0.331243 
        6.20467         6.74806        0.329019 
        6.22036         6.70836        0.326815 
         6.2361         6.67454        0.324626 
         6.2518         6.62259        0.322459 
        6.26748          6.5809        0.320317 
        6.28319         6.54528        0.318189 
        6.29893         6.49241        0.316078 
        6.31463         6.44464        0.313989 
        6.33033         6.39782         0.31192 
        6.34604         6.37099        0.309867 
        6.36177          6.3323        0.307831 
        6.37747         6.28328        0.305817 
