# k  (h/Mpc)    Pcb(k)  (Mpc/h)^3    Pcb_linear(k) (Mpc/h)^3   ShotnoiseSubtracted = true
      0.0200456           16919         17226.3 
      0.0350414         11048.1           11433 
      0.0492313         7649.65         7700.47 
      0.0637834         6386.47         6172.09 
      0.0800726         5034.99         4907.05 
       0.096163         3412.37         3458.11 
       0.111083         2617.56         2611.03 
       0.126058         2367.16         2269.79 
       0.142273         2082.28          1968.3 
       0.158546         1759.92         1543.13 
        0.17375            1365         1239.39 
       0.188953         1310.67         1097.56 
       0.204907         1235.42         992.147 
       0.220756         1056.51         845.897 
        0.23588         926.729         713.225 
         0.2514         795.343         630.893 
       0.267535         780.738         576.006 
       0.283568         706.745         513.894 
       0.299022         661.562         450.799 
       0.314451         622.582         403.151 
       0.330372         570.648         369.129 
       0.346141          521.83         337.765 
       0.361624         502.558         305.447 
       0.377134         463.315         277.043 
       0.392932         441.135          254.62 
       0.408854         424.721          235.26 
       0.424564         397.345         216.607 
       0.440253         388.495         199.208 
       0.455999         364.844          184.33 
       0.471626         345.567         171.639 
        0.48727         330.722         159.884 
       0.502856         320.464         148.842 
       0.518488         316.793         138.849 
       0.534347         296.282         129.892 
       0.550082         281.134         121.807 
       0.565732         277.791         114.319 
       0.581496         261.048         107.349 
       0.597222         256.187         101.034 
       0.612804         248.811         95.3178 
       0.628434         238.354         90.0017 
       0.644267         231.224          84.999 
       0.660051          226.67         80.3848 
       0.675724         221.917         76.1603 
       0.691403         215.129         72.2442 
       0.707174         207.556         68.5779 
       0.722871         203.869         65.1765 
        0.73838         200.479         62.0386 
       0.754018          195.57         59.0805 
       0.769845         188.951         56.2805 
        0.78569         187.912          53.657 
       0.801365         180.532         51.2246 
       0.817031         174.896         48.9433 
       0.832809         173.933         46.7854 
       0.848511         168.355         44.7666 
       0.864097         166.332         42.8804 
       0.879701         163.085         41.1008 
       0.895507         158.754         39.4008 
       0.911279         153.863         37.8003 
        0.92691         153.647         36.3015 
       0.942635         149.072         34.8755 
       0.958396         148.204         33.5228 
       0.974128         144.548         32.2439 
       0.989692         141.556         31.0441 
        1.00528         139.465         29.9033 
        1.02113         137.785         28.8018 
        1.03692         134.534         27.7595 
        1.05264         131.405         26.7732 
        1.06832         129.129         25.8362 
        1.08405         127.373         24.9412 
        1.09979         125.806         24.0879 
        1.11537         123.077         23.2826 
        1.13105         120.973         22.5092 
        1.14679         120.518         21.7677 
        1.16256         118.757          21.058 
        1.17828         116.458          20.382 
        1.19395         114.282         19.7378 
         1.2097         113.375          19.118 
        1.22537         111.592         18.5277 
          1.241         109.766         17.9639 
        1.25666         108.196          17.422 
        1.27241         106.007         16.8998 
        1.28819         105.181          16.398 
        1.30392         102.657          15.918 
        1.31957         102.388         15.4591 
        1.33529         99.6724         15.0166 
        1.35108         98.9598         14.5895 
        1.36674         97.8422          14.182 
         1.3824         96.3067         13.7903 
        1.39811         95.1756          13.412 
        1.41389         93.8435         13.0464 
        1.42964         91.7061          12.695 
        1.44531         90.2345         12.3581 
        1.46101         89.0116         12.0327 
        1.47667         88.4883         11.7198 
        1.49229         87.0062         11.4189 
        1.50793         86.1288         11.1281 
        1.52367         84.9023         10.8455 
        1.53953         83.5124         10.5708 
        1.55526         82.8884         10.3077 
        1.57092         82.1469         10.0546 
        1.58662         80.2212         9.80928 
        1.60235         79.9717         9.57165 
        1.61809         78.4072         9.34173 
        1.63369         77.7031         9.12134 
        1.64941          77.223         8.90644 
        1.66519         75.3846         8.69764 
        1.68085         75.2913         8.49697 
        1.69652         73.3427         8.30253 
        1.71228         73.1853         8.11303 
        1.72806         72.4331         7.92925 
        1.74368         71.2463         7.75296 
        1.75933         70.2357         7.58164 
        1.77505         69.6884         7.41466 
        1.79081         68.4853         7.25238 
         1.8065         67.5604         7.09561 
        1.82218          66.656         6.94359 
        1.83797         65.7261         6.79494 
        1.85367         65.4751         6.65143 
        1.86928         64.7161          6.5129 
        1.88497         63.6959         6.37753 
        1.90073         63.0518         6.24548 
        1.91647           62.39         6.11726 
        1.93218         61.5468         5.99288 
        1.94787         61.1119         5.87212 
        1.96363         60.1715         5.75418 
        1.97935         59.5327          5.6397 
        1.99499         58.8282         5.52896 
        2.01064         58.2201         5.42101 
         2.0264         57.3922         5.31524 
        2.04216         56.7481         5.21232 
        2.05781         55.9509         5.11276 
        2.07353         54.9931         5.01542 
        2.08928         54.4969         4.92039 
        2.10499          53.759         4.82805 
        2.12065         53.5216         4.73834 
        2.13633          52.901         4.65082 
        2.15211         52.4154         4.56492 
        2.16785         51.7386         4.48142 
        2.18349         51.3476         4.40052 
        2.19916            50.6         4.32142 
        2.21489          50.253         4.24399 
        2.23063         49.8326          4.1684 
         2.2463         48.8794         4.09496 
        2.26194         48.5556         4.02347 
        2.27765         48.3285         3.95331 
        2.29341          47.445         3.88462 
        2.30914         46.9554         3.81769 
        2.32486         46.2977         3.75236 
        2.34061         45.9306         3.68844 
        2.35635         45.2366         3.62606 
        2.37203         44.7439         3.56532 
        2.38768         44.2696         3.50609 
        2.40339         43.9447         3.44798 
        2.41914         43.4555         3.39104 
        2.43483          43.217         3.33557 
         2.4505          42.858         3.28143 
        2.46622         42.0315          3.2283 
        2.48195          41.943         3.17633 
        2.49759         41.1346         3.12577 
        2.51328         40.7357         3.07617 
        2.52906         40.3811         3.02732 
        2.54479         40.0512         2.97971 
        2.56049         39.4267         2.93321 
        2.57618         39.3061         2.88773 
        2.59189         38.6858         2.84314 
        2.60758         38.4709         2.79955 
        2.62325         37.9495         2.75692 
        2.63898         37.6772         2.71503 
        2.65468         37.1645         2.67408 
        2.67044         36.6148          2.6338 
        2.68618         36.3554         2.59443 
        2.70184         35.9276         2.55602 
        2.71755         35.5431         2.51828 
        2.73329         35.2818         2.48124 
        2.74897         34.8721         2.44506 
        2.76462         34.5114         2.40968 
        2.78034         34.2708         2.37484 
        2.79607          33.849         2.34065 
        2.81179         33.5406         2.30717 
        2.82749          33.087         2.27437 
        2.84321         32.7781         2.24217 
        2.85893         32.4887          2.2106 
        2.87462         32.1696         2.17968 
        2.89033         31.8039         2.14932 
        2.90605         31.4684         2.11951 
        2.92176         31.1659         2.09027 
        2.93747         30.8675          2.0616 
        2.95318         30.5215         2.03345 
        2.96891         30.2327         2.00581 
        2.98456         29.9637         1.97881 
        3.00023         29.5498         1.95225 
        3.01596         29.3909          1.9261 
        3.03164          29.101          1.9005 
        3.04738         28.8685         1.87528 
         3.0631         28.4696         1.85053 
        3.07883         28.1666         1.82621 
        3.09456         27.9613         1.80234 
        3.11026         27.6627         1.77892 
        3.12596         27.3814         1.75592 
        3.14163         27.0852         1.73337 
        3.15734         26.7805         1.71117 
        3.17308         26.5775          1.6893 
        3.18879         26.3841         1.66786 
        3.20447         26.0516         1.64683 
         3.2202         25.7722         1.62609 
         3.2359         25.6827         1.60574 
        3.25157         25.3056         1.58578 
        3.26729         25.0708          1.5661 
        3.28304         24.8174         1.54672 
        3.29877         24.6268         1.52768 
        3.31446         24.3632           1.509 
        3.33014         24.1955         1.49065 
        3.34585          23.855         1.47258 
        3.36158         23.6725         1.45477 
        3.37727         23.5003         1.43731 
        3.39294         23.2217         1.42015 
        3.40867         23.0134         1.40321 
        3.42439         22.8112         1.38655 
        3.44008         22.7168         1.37019 
        3.45578         22.3329         1.35408 
        3.47153         22.1392         1.33819 
        3.48724         21.9428         1.32258 
        3.50292         21.7541         1.30726 
        3.51859         21.5488         1.29218 
        3.53431         21.4071         1.27729 
        3.55007         21.1237          1.2626 
        3.56577         20.9558         1.24819 
        3.58146         20.7693         1.23402 
        3.59719         20.5541         1.22003 
        3.61292         20.3975         1.20626 
        3.62859         20.1479         1.19275 
        3.64429         20.0022         1.17942 
        3.66003         19.7657         1.16625 
        3.67578         19.6535         1.15329 
        3.69146         19.4531         1.14057 
        3.70712         19.2887         1.12806 
        3.72284          19.156         1.11569 
        3.73853         18.9594         1.10353 
        3.75422         18.8151         1.09154 
        3.76993            18.6         1.07972 
        3.78564         18.4078         1.06808 
        3.80137         18.2737         1.05659 
        3.81707         18.0963         1.04529 
        3.83279         17.9203         1.03414 
        3.84853         17.7738         1.02314 
        3.86424         17.6002         1.01232 
        3.87992         17.4849         1.00167 
        3.89561         17.2913         0.99117 
        3.91134         17.1639        0.980798 
        3.92704         17.0024        0.970586 
        3.94273         16.8842        0.960527 
        3.95845         16.6884        0.950592 
        3.97418         16.5818        0.940793 
        3.98988         16.3986        0.931145 
        4.00554         16.2886        0.921657 
        4.02125          16.228        0.912273 
        4.03698         15.9776        0.903004 
        4.05268         15.8351        0.893884 
        4.06839         15.7092        0.884881 
         4.0841         15.5855        0.876005 
        4.09983          15.444        0.867236 
        4.11555         15.2852        0.858591 
        4.13124           15.17        0.850085 
        4.14693         15.0543        0.841686 
        4.16266         14.9034        0.833381 
        4.17839         14.7719        0.825192 
        4.19408         14.6453         0.81713 
        4.20977         14.5471        0.809171 
        4.22551         14.3902        0.801299 
        4.24123          14.303        0.793538 
        4.25691         14.1603          0.7859 
        4.27259         14.0637         0.77836 
        4.28831         13.9531        0.770902 
        4.30404         13.8567        0.763534 
        4.31974         13.7093        0.756278 
        4.33543          13.594        0.749119 
        4.35116         13.4698        0.742035 
        4.36688         13.3581        0.735044 
        4.38255         13.2639        0.728168 
        4.39825         13.1742        0.721365 
        4.41398         13.0588        0.714634 
         4.4297         12.9437        0.707996 
        4.44541         12.7997        0.701443 
        4.46111         12.7255        0.694976 
        4.47683         12.6089        0.688586 
        4.49251         12.5363        0.682288 
        4.50819         12.4117         0.67607 
         4.5239         12.3014         0.66992 
        4.53962         12.2081        0.663838 
        4.55535         12.1153        0.657828 
        4.57106         12.0136          0.6519 
        4.58678         11.9414        0.646043 
         4.6025         11.7804        0.640257 
        4.61821         11.7075        0.634541 
        4.63391         11.6374        0.628902 
         4.6496         11.5511        0.623333 
        4.66532         11.4119        0.617823 
        4.68103         11.3259        0.612381 
        4.69673         11.2664        0.607009 
        4.71241         11.1582        0.601706 
        4.72811         11.0684        0.596457 
        4.74384         10.9727        0.591264 
        4.75955         10.9086        0.586139 
        4.77525         10.8439        0.581078 
        4.79096         10.7257         0.57607 
        4.80669         10.6499        0.571118 
         4.8224         10.5721        0.566229 
        4.83809         10.4784        0.561402 
        4.85379         10.3943        0.556628 
         4.8695         10.3238        0.551905 
        4.88521         10.2292        0.547238 
        4.90093         10.1668        0.542624 
        4.91663         10.0732        0.538067 
        4.93234         10.0251        0.533557 
        4.94807         9.93222        0.529095 
        4.96377          9.8574        0.524692 
        4.97943         9.78225        0.520348 
        4.99514         9.71034        0.516042 
        5.01086         9.63393        0.511781 
        5.02654         9.54238        0.507578 
        5.04227          9.4953        0.503409 
          5.058         9.40567        0.499285 
        5.07371         9.35953        0.495215 
        5.08942         9.26475        0.491189 
        5.10513         9.20556        0.487207 
        5.12084         9.15413        0.483267 
        5.13656         9.07623        0.479371 
        5.15225         9.01049        0.475524 
        5.16796         8.93966        0.471712 
        5.18369         8.86815        0.467939 
         5.1994         8.81378        0.464213 
        5.21509         8.74027        0.460531 
        5.23079         8.68232        0.456884 
        5.24649         8.62075        0.453279 
        5.26217         8.55167        0.449716 
        5.27788         8.50051        0.446185 
        5.29359         8.41704        0.442691 
        5.30933         8.36413        0.439229 
        5.32504         8.30425        0.435809 
        5.34073          8.2258        0.432429 
        5.35646         8.17961        0.429078 
        5.37218         8.12919        0.425762 
        5.38789         8.05876        0.422486 
        5.40357         8.01737        0.419247 
        5.41929          7.9389        0.416035 
        5.43502          7.9024        0.412856 
         5.4507         7.82062        0.409718 
        5.46639         7.76837        0.406611 
        5.48212         7.72937        0.403529 
        5.49786         7.66978        0.400475 
        5.51353         7.62062        0.397468 
        5.52921          7.5597        0.394488 
        5.54495         7.49959        0.391529 
        5.56066         7.44769        0.388604 
        5.57637         7.39476        0.385709 
        5.59207         7.35014        0.382846 
        5.60778         7.28911         0.38001 
        5.62346         7.24536        0.377207 
        5.63916         7.18982        0.374429 
        5.65487         7.13602        0.371678 
         5.6706         7.08965         0.36895 
        5.68633         7.04828        0.366249 
        5.70203         7.01134         0.36358 
        5.71773         6.94609        0.360938 
        5.73344         6.88344         0.35832 
        5.74916         6.86278        0.355726 
        5.76486         6.80749        0.353161 
        5.78054          6.7744        0.350625 
        5.79626         6.70652        0.348106 
          5.812         6.66456        0.345609 
         5.8277         6.63232        0.343144 
        5.84339         6.58599        0.340703 
        5.85911         6.54128        0.338281 
        5.87484         6.49297        0.335882 
        5.89053         6.44066        0.333511 
        5.90623         6.39774        0.331162 
        5.92195         6.37518        0.328831 
        5.93767         6.32693        0.326523 
        5.95336         6.26404        0.324242 
        5.96905         6.22876        0.321983 
        5.98476         6.20169        0.319741 
        6.00048         6.15898        0.317521 
        6.01617         6.10433        0.315324 
        6.03185         6.06861         0.31315 
        6.04756         6.02691        0.310992 
        6.06331         6.00269        0.308849 
        6.07903         5.95278        0.306731 
        6.09473         5.91978        0.304634 
        6.11044         5.87821        0.302555 
        6.12616         5.84184        0.300495 
        6.14186         5.79173        0.298456 
        6.15755         5.75469        0.296437 
        6.17326         5.71654        0.294434 
        6.18898         5.68379        0.292449 
        6.20467         5.64548        0.290485 
        6.22036         5.61138        0.288539 
         6.2361         5.57177        0.286606 
         6.2518         5.53571        0.284693 
        6.26748         5.49941        0.282802 
        6.28319         5.45834        0.280923 
        6.29893         5.44015        0.279059 
        6.31463         5.39836        0.277215 
        6.33033         5.35572        0.275388 
        6.34604         5.33352        0.273576 
        6.36177         5.29777        0.271778 
        6.37747         5.26132            0.27 
