# k  (h/Mpc)    Pcb(k)  (Mpc/h)^3    Pcb_linear(k) (Mpc/h)^3   ShotnoiseSubtracted = true
      0.0200456         21238.4         21655.2 
      0.0350414         13808.9         14372.5 
      0.0492313          9582.4          9680.3 
      0.0637834         8044.45         7758.97 
      0.0800726         6335.72         6168.67 
       0.096163         4286.55         4347.21 
       0.111083         3308.25         3282.34 
       0.126058         2991.13         2853.37 
       0.142273         2631.12         2474.36 
       0.158546         2259.35         1939.88 
        0.17375         1757.02         1558.05 
       0.188953         1696.73         1379.75 
       0.204907         1597.23         1247.23 
       0.220756         1373.94         1063.38 
        0.23588         1215.68         896.599 
         0.2514         1044.25         793.099 
       0.267535         1032.95           724.1 
       0.283568           934.9         646.019 
       0.299022         880.742         566.702 
       0.314451          833.51         506.804 
       0.330372         763.186         464.034 
       0.346141         712.237         424.606 
       0.361624         684.871         383.979 
       0.377134         633.876         348.272 
       0.392932         604.792         320.085 
       0.408854         589.005         295.747 
       0.424564         544.783         272.297 
       0.440253         536.257         250.425 
       0.455999         507.435         231.723 
       0.471626         487.299         215.769 
        0.48727         464.568         200.991 
       0.502856         451.578          187.11 
       0.518488         446.028         174.547 
       0.534347         416.541         163.288 
       0.550082         400.182         153.124 
       0.565732         398.846         143.712 
       0.581496         373.236         134.949 
       0.597222          367.28          127.01 
       0.612804          358.52         119.824 
       0.628434         345.809         113.142 
       0.644267         336.228         106.853 
       0.660051         326.665         101.052 
       0.675724         322.018         95.7415 
       0.691403          310.98         90.8186 
       0.707174         300.557         86.2096 
       0.722871         295.527         81.9337 
        0.73838         291.766          77.989 
       0.754018         283.744         74.2704 
       0.769845         277.149         70.7504 
        0.78569         274.454         67.4525 
       0.801365         265.661         64.3947 
       0.817031         256.446         61.5268 
       0.832809          255.64         58.8142 
       0.848511          248.33         56.2763 
       0.864097         243.787         53.9052 
       0.879701         240.069          51.668 
       0.895507         235.812          49.531 
       0.911279         228.306         47.5189 
        0.92691         227.003         45.6348 
       0.942635         220.872         43.8422 
       0.958396         217.576         42.1416 
       0.974128          213.19          40.534 
       0.989692         210.211         39.0257 
        1.00528         206.535         37.5916 
        1.02113         203.672         36.2068 
        1.03692         199.707         34.8966 
        1.05264           196.6         33.6568 
        1.06832         192.431         32.4788 
        1.08405         189.625         31.3537 
        1.09979         185.116          30.281 
        1.11537         183.894         29.2687 
        1.13105         178.918         28.2964 
        1.14679         177.665         27.3643 
        1.16256         175.466         26.4721 
        1.17828         173.048         25.6223 
        1.19395         169.245         24.8125 
         1.2097         168.758         24.0334 
        1.22537         165.503         23.2913 
          1.241         163.892         22.5825 
        1.25666         161.333         21.9013 
        1.27241          158.25         21.2449 
        1.28819         156.821         20.6141 
        1.30392         152.775         20.0105 
        1.31957         152.832         19.4337 
        1.33529         149.454         18.8774 
        1.35108         146.561         18.3405 
        1.36674         145.697         17.8282 
         1.3824         144.787         17.3359 
        1.39811         142.645         16.8603 
        1.41389         140.014         16.4007 
        1.42964         138.301         15.9589 
        1.44531         136.528         15.5354 
        1.46101         134.132         15.1263 
        1.47667          132.38         14.7331 
        1.49229         131.082         14.3547 
        1.50793         128.753         13.9892 
        1.52367         127.879         13.6339 
        1.53953         125.528         13.2886 
        1.55526         123.765         12.9578 
        1.57092         122.534         12.6396 
        1.58662         121.256         12.3313 
        1.60235         119.204         12.0326 
        1.61809         118.119         11.7435 
        1.63369         115.965         11.4665 
        1.64941          114.39         11.1963 
        1.66519         112.922         10.9338 
        1.68085         112.064         10.6816 
        1.69652         110.835         10.4371 
        1.71228         108.985         10.1989 
        1.72806         107.661         9.96789 
        1.74368         106.611         9.74628 
        1.75933         105.318         9.53092 
        1.77505         104.081         9.32101 
        1.79081         103.068           9.117 
         1.8065          101.69         8.91993 
        1.82218         99.8951         8.72882 
        1.83797         98.7217         8.54195 
        1.85367         97.9667         8.36155 
        1.86928         96.1623          8.1874 
        1.88497         95.0487         8.01722 
        1.90073         93.6891         7.85122 
        1.91647         93.0054         7.69003 
        1.93218         92.0845         7.53368 
        1.94787         90.5095         7.38187 
        1.96363          89.628         7.23361 
        1.97935         88.1297         7.08969 
        1.99499         87.5163         6.95048 
        2.01064           86.39         6.81477 
         2.0264         85.5102         6.68181 
        2.04216         84.4946         6.55243 
        2.05781         83.7095         6.42727 
        2.07353         82.4798         6.30491 
        2.08928         80.9912         6.18544 
        2.10499         79.9563         6.06937 
        2.12065         79.5399         5.95659 
        2.13633         78.7024         5.84657 
        2.15211         77.7794         5.73859 
        2.16785         76.6765         5.63362 
        2.18349         75.9533         5.53191 
        2.19916         74.8447         5.43248 
        2.21489         74.0576         5.33515 
        2.23063         73.1119         5.24011 
         2.2463         72.0858          5.1478 
        2.26194         71.8154         5.05793 
        2.27765         70.6981         4.96972 
        2.29341         69.9283         4.88337 
        2.30914         69.3599         4.79923 
        2.32486         68.5882         4.71711 
        2.34061          67.899         4.63676 
        2.35635         66.4649         4.55834 
        2.37203         65.6681         4.48198 
        2.38768          65.217         4.40752 
        2.40339         64.3462         4.33447 
        2.41914          63.761         4.26289 
        2.43483         63.3333         4.19317 
         2.4505         62.4125          4.1251 
        2.46622         61.6792         4.05831 
        2.48195         61.3001         3.99298 
        2.49759         60.3654         3.92942 
        2.51328         59.8325         3.86707 
        2.52906         59.0476         3.80566 
        2.54479         58.5714         3.74581 
        2.56049         57.7274         3.68735 
        2.57618           57.46         3.63018 
        2.59189         56.5759         3.57412 
        2.60758         55.7822         3.51933 
        2.62325         55.3114         3.46574 
        2.63898         54.6743         3.41307 
        2.65468         54.2477          3.3616 
        2.67044         53.6258         3.31096 
        2.68618          53.153         3.26147 
        2.70184         52.5364         3.21318 
        2.71755         51.9141         3.16574 
        2.73329         51.4367         3.11918 
        2.74897         50.9481          3.0737 
        2.76462         50.2918         3.02922 
        2.78034          49.699         2.98542 
        2.79607         49.3166         2.94244 
        2.81179         48.6744         2.90035 
        2.82749         48.1405         2.85912 
        2.84321         47.7852         2.81864 
        2.85893         47.1549         2.77895 
        2.87462         46.6765         2.74009 
        2.89033         46.2574         2.70192 
        2.90605         45.6699         2.66445 
        2.92176         45.1278         2.62769 
        2.93747         44.8548         2.59165 
        2.95318         44.2264         2.55626 
        2.96891         43.7086         2.52152 
        2.98456         43.2652         2.48757 
        3.00023         42.8939         2.45419 
        3.01596         42.3261         2.42131 
        3.03164         42.0828         2.38912 
        3.04738         41.7349         2.35742 
         3.0631         41.1849          2.3263 
        3.07883         40.8287         2.29574 
        3.09456         40.3711         2.26573 
        3.11026         39.9592         2.23629 
        3.12596         39.5665         2.20738 
        3.14163         39.1121         2.17903 
        3.15734         38.6663         2.15112 
        3.17308         38.5685         2.12362 
        3.18879         38.0498         2.09668 
        3.20447         37.5149         2.07024 
         3.2202         37.1466         2.04416 
         3.2359         37.0288         2.01858 
        3.25157         36.5299          1.9935 
        3.26729         36.2446         1.96876 
        3.28304         35.8739         1.94439 
        3.29877         35.4627         1.92046 
        3.31446         35.0852         1.89698 
        3.33014         34.6687         1.87391 
        3.34585         34.4101         1.85118 
        3.36158         34.1673          1.8288 
        3.37727          33.833         1.80685 
        3.39294         33.4987         1.78528 
        3.40867         33.2148         1.76398 
        3.42439         32.7581         1.74304 
        3.44008         32.4479         1.72247 
        3.45578         32.2351         1.70222 
        3.47153         31.9843         1.68224 
        3.48724         31.5339         1.66262 
        3.50292         31.2824         1.64336 
        3.51859         30.9798          1.6244 
        3.53431         30.7017         1.60569 
        3.55007         30.4374         1.58722 
        3.56577         30.1173         1.56911 
        3.58146         29.9212         1.55129 
        3.59719         29.6451          1.5337 
        3.61292         29.2827         1.51639 
        3.62859         28.9482         1.49941 
        3.64429          28.738         1.48265 
        3.66003          28.442          1.4661 
        3.67578         28.1517          1.4498 
        3.69146         27.9638         1.43381 
        3.70712         27.7331         1.41809 
        3.72284         27.4981         1.40254 
        3.73853         27.2617         1.38725 
        3.75422         27.0098         1.37218 
        3.76993         26.6855         1.35732 
        3.78564         26.4712         1.34269 
        3.80137         26.2093         1.32824 
        3.81707         26.0455         1.31404 
        3.83279         25.7275         1.30003 
        3.84853         25.5589          1.2862 
        3.86424         25.4148         1.27259 
        3.87992         25.0376          1.2592 
        3.89561         24.9406           1.246 
        3.91134         24.6979         1.23297 
        3.92704         24.4306         1.22013 
        3.94273         24.1815         1.20748 
        3.95845         24.0182         1.19499 
        3.97418         23.8119         1.18268 
        3.98988          23.575         1.17055 
        4.00554         23.3798         1.15862 
        4.02125         23.1196         1.14682 
        4.03698         22.9383         1.13517 
        4.05268          22.801         1.12371 
        4.06839         22.5817         1.11239 
         4.0841         22.3721         1.10123 
        4.09983         22.1539         1.09021 
        4.11555         21.9733         1.07934 
        4.13124         21.7635         1.06865 
        4.14693          21.589         1.05809 
        4.16266         21.3635         1.04765 
        4.17839         21.1748         1.03735 
        4.19408         20.9095         1.02722 
        4.20977         20.8458         1.01721 
        4.22551         20.6578         1.00732 
        4.24123          20.431         0.99756 
        4.25691         20.2888        0.987959 
        4.27259         20.1239         0.97848 
        4.28831         19.9187        0.969105 
        4.30404          19.827        0.959843 
        4.31974         19.6577         0.95072 
        4.33543         19.4324        0.941721 
        4.35116         19.2669        0.932815 
        4.36688         19.1653        0.924027 
        4.38255          18.975        0.915384 
        4.39825         18.8057        0.906832 
        4.41398         18.6522         0.89837 
         4.4297         18.4696        0.890025 
        4.44541          18.392        0.881787 
        4.46111         18.2099        0.873658 
        4.47683         18.0484        0.865624 
        4.49251         17.9406        0.857708 
        4.50819         17.7521        0.849891 
         4.5239         17.5941         0.84216 
        4.53962          17.459        0.834514 
        4.55535         17.3306        0.826958 
        4.57106         17.2028        0.819507 
        4.58678         17.0704        0.812144 
         4.6025         16.8941         0.80487 
        4.61821         16.7945        0.797685 
        4.63391           16.64        0.790596 
         4.6496         16.5131        0.783595 
        4.66532         16.3616        0.776668 
        4.68103         16.2176        0.769827 
        4.69673          16.091        0.763073 
        4.71241         15.9402        0.756407 
        4.72811         15.8933        0.749809 
        4.74384         15.7422         0.74328 
        4.75955         15.6027        0.736839 
        4.77525         15.4767        0.730476 
        4.79096         15.3452         0.72418 
        4.80669         15.2439        0.717955 
         4.8224         15.1246        0.711809 
        4.83809          15.004        0.705741 
        4.85379         14.8617         0.69974 
         4.8695         14.7857        0.693802 
        4.88521         14.7052        0.687936 
        4.90093         14.5399        0.682136 
        4.91663         14.4145        0.676407 
        4.93234         14.3109        0.670737 
        4.94807          14.191        0.665128 
        4.96377         14.0877        0.659593 
        4.97943         13.9911        0.654133 
        4.99514         13.8767        0.648719 
        5.01086         13.7445        0.643362 
        5.02654          13.656        0.638078 
        5.04227         13.5611        0.632838 
          5.058         13.4904        0.627654 
        5.07371         13.3345        0.622537 
        5.08942         13.2662        0.617476 
        5.10513         13.1553         0.61247 
        5.12084         13.0155        0.607517 
        5.13656         12.9763        0.602619 
        5.15225         12.8601        0.597783 
        5.16796         12.7643        0.592992 
        5.18369         12.6542        0.588248 
         5.1994         12.5684        0.583565 
        5.21509         12.4729        0.578936 
        5.23079         12.3872        0.574352 
        5.24649         12.3059         0.56982 
        5.26217         12.1877         0.56534 
        5.27788         12.0857        0.560901 
        5.29359         11.9942        0.556508 
        5.30933           11.93        0.552156 
        5.32504         11.8392        0.547858 
        5.34073          11.752        0.543609 
        5.35646         11.6768        0.539397 
        5.37218         11.6014        0.535228 
        5.38789         11.5119        0.531109 
        5.40357         11.4016        0.527038 
        5.41929         11.3285           0.523 
        5.43502         11.2612        0.519004 
         5.4507         11.1788        0.515058 
        5.46639         11.0887        0.511153 
        5.48212         10.9975        0.507279 
        5.49786         10.9312        0.503439 
        5.51353         10.8673        0.499659 
        5.52921         10.7917        0.495913 
        5.54495         10.7143        0.492194 
        5.56066         10.6115        0.488516 
        5.57637         10.5213        0.484877 
        5.59207         10.4636        0.481277 
        5.60778          10.415        0.477713 
        5.62346         10.3175        0.474189 
        5.63916         10.2465        0.470697 
        5.65487         10.1558        0.467238 
         5.6706         10.0875        0.463809 
        5.68633         10.0257        0.460413 
        5.70203         9.95124        0.457058 
        5.71773         9.89474        0.453737 
        5.73344         9.79565        0.450446 
        5.74916         9.74484        0.447185 
        5.76486          9.6852         0.44396 
        5.78054          9.6339        0.440772 
        5.79626         9.55136        0.437606 
          5.812          9.4827        0.434467 
         5.8277         9.40633        0.431368 
        5.84339         9.34264        0.428299 
        5.85911         9.28109        0.425254 
        5.87484           9.209        0.422239 
        5.89053          9.1607        0.419258 
        5.90623         9.09819        0.416305 
        5.92195         9.02966        0.413375 
        5.93767         8.97884        0.410474 
        5.95336         8.90475        0.407606 
        5.96905         8.84341        0.404766 
        5.98476         8.79818        0.401948 
        6.00048         8.73672        0.399157 
        6.01617          8.6623        0.396395 
        6.03185          8.5982        0.393663 
        6.04756         8.55396        0.390949 
        6.06331         8.49711        0.388256 
        6.07903         8.42246        0.385593 
        6.09473         8.39147        0.382957 
        6.11044         8.32887        0.380343 
        6.12616         8.26704        0.377754 
        6.14186         8.22341        0.375191 
        6.15755         8.17651        0.372652 
        6.17326           8.106        0.370134 
        6.18898         8.05582        0.367638 
        6.20467         7.99989         0.36517 
        6.22036         7.94675        0.362724 
         6.2361         7.89575        0.360294 
         6.2518         7.84394        0.357889 
        6.26748          7.8025        0.355512 
        6.28319          7.7476         0.35315 
        6.29893         7.70214        0.350806 
        6.31463         7.63757        0.348488 
        6.33033         7.58359        0.346191 
        6.34604         7.54596        0.343914 
        6.36177         7.49862        0.341654 
        6.37747         7.44555        0.339419 
