# k  (h/Mpc)    Pcb(k)  (Mpc/h)^3    Pcb_linear(k) (Mpc/h)^3   ShotnoiseSubtracted = true
      0.0200456         1396.93         1414.37 
      0.0350414         934.986         938.714 
      0.0492313         635.653          632.25 
      0.0637834         513.863         506.762 
      0.0800726         405.958         402.895 
       0.096163         282.946          283.93 
       0.111083         213.647          214.38 
       0.126058         187.971         186.362 
       0.142273         163.308         161.608 
       0.158546         129.006         126.699 
        0.17375         102.207         101.761 
       0.188953         91.8929         90.1157 
       0.204907         85.0311         81.4607 
       0.220756         71.3633         69.4527 
        0.23588         60.4893         58.5597 
         0.2514         53.0096         51.7997 
       0.267535         48.7093         47.2932 
       0.283568         43.6299         42.1935 
       0.299022         38.8317         37.0131 
       0.314451         34.1167         33.1009 
       0.330372         31.5549         30.3075 
       0.346141         28.7739         27.7324 
       0.361624         26.3018         25.0789 
       0.377134         24.2541         22.7467 
       0.392932         21.4695         20.9057 
       0.408854         20.5304         19.3161 
       0.424564          18.953         17.7846 
       0.440253         17.3868          16.356 
       0.455999         16.2344         15.1345 
       0.471626         15.2116         14.0925 
        0.48727         14.2015         13.1273 
       0.502856         13.1805         12.2208 
       0.518488         12.5073         11.4002 
       0.534347         11.9017         10.6648 
       0.550082         10.8283          10.001 
       0.565732         9.97364         9.38625 
       0.581496         9.71372         8.81396 
       0.597222         9.26985         8.29544 
       0.612804         8.61114         7.82611 
       0.628434         8.26501         7.38963 
       0.644267         7.87292         6.97888 
       0.660051         7.39264         6.60003 
       0.675724         6.99541         6.25317 
       0.691403         6.73845         5.93164 
       0.707174         6.37482         5.63062 
       0.722871          6.0884         5.35135 
        0.73838         5.81358          5.0937 
       0.754018         5.61736         4.85083 
       0.769845         5.31212         4.62093 
        0.78569         5.11519         4.40553 
       0.801365         4.87588         4.20582 
       0.817031         4.69349         4.01851 
       0.832809         4.52653         3.84134 
       0.848511         4.25963         3.67558 
       0.864097         4.10126         3.52071 
       0.879701         3.95642         3.37459 
       0.895507         3.76216         3.23502 
       0.911279         3.70153         3.10361 
        0.92691         3.55237         2.98055 
       0.942635         3.38631         2.86347 
       0.958396         3.26047          2.7524 
       0.974128         3.16134          2.6474 
       0.989692         3.08628         2.54889 
        1.00528         2.94379         2.45523 
        1.02113         2.83027         2.36478 
        1.03692         2.76536          2.2792 
        1.05264         2.66613         2.19823 
        1.06832         2.59382         2.12129 
        1.08405         2.46715         2.04781 
        1.09979         2.41376         1.97774 
        1.11537         2.34213         1.91163 
        1.13105         2.27385         1.84813 
        1.14679         2.20948         1.78725 
        1.16256         2.12738         1.72897 
        1.17828         2.07624         1.67347 
        1.19395         2.01581         1.62058 
         1.2097         1.93085          1.5697 
        1.22537         1.88017         1.52122 
          1.241         1.83771         1.47493 
        1.25666         1.81809         1.43044 
        1.27241         1.72795         1.38757 
        1.28819         1.69242         1.34637 
        1.30392         1.65534         1.30695 
        1.31957         1.61369         1.26928 
        1.33529         1.56055         1.23294 
        1.35108         1.52331         1.19788 
        1.36674         1.47722         1.16442 
         1.3824         1.43288         1.13226 
        1.39811         1.39949          1.1012 
        1.41389         1.37447         1.07118 
        1.42964         1.34032         1.04233 
        1.44531         1.30627         1.01467 
        1.46101          1.2738        0.987947 
        1.47667          1.2313        0.962262 
        1.49229         1.21893        0.937552 
        1.50793         1.18291        0.913677 
        1.52367         1.16061        0.890475 
        1.53953         1.12199        0.867917 
        1.55526         1.10025        0.846316 
        1.57092         1.07515        0.825533 
        1.58662         1.05373        0.805395 
        1.60235         1.02651        0.785885 
        1.61809         1.00273        0.767007 
        1.63369        0.991625        0.748912 
        1.64941        0.961478        0.731267 
        1.66519        0.944042        0.714124 
        1.68085        0.915993        0.697648 
        1.69652          0.8996        0.681683 
        1.71228        0.884962        0.666123 
        1.72806        0.859461        0.651034 
        1.74368        0.846326         0.63656 
        1.75933        0.825348        0.622494 
        1.77505        0.811779        0.608784 
        1.79081        0.795041         0.59546 
         1.8065        0.775076        0.582588 
        1.82218        0.764524        0.570106 
        1.83797        0.751638        0.557901 
        1.85367        0.739356        0.546119 
        1.86928        0.724596        0.534744 
        1.88497        0.705087         0.52363 
        1.90073        0.687922        0.512788 
        1.91647        0.682169         0.50226 
        1.93218        0.669358        0.492048 
        1.94787        0.653598        0.482133 
        1.96363        0.639718        0.472449 
        1.97935        0.628892         0.46305 
        1.99499        0.616856        0.453957 
        2.01064         0.60481        0.445094 
         2.0264         0.59801         0.43641 
        2.04216        0.585508         0.42796 
        2.05781        0.572792        0.419785 
        2.07353        0.564896        0.411793 
        2.08928        0.552766         0.40399 
        2.10499        0.544068        0.396409 
        2.12065        0.538188        0.389044 
        2.13633        0.527859        0.381857 
        2.15211        0.517484        0.374805 
        2.16785        0.505477        0.367949 
        2.18349        0.500084        0.361306 
        2.19916        0.490829        0.354812 
        2.21489         0.48149        0.348455 
        2.23063        0.473111        0.342248 
         2.2463        0.468775        0.336219 
        2.26194        0.456055        0.330349 
        2.27765        0.449229        0.324588 
        2.29341          0.4447        0.318948 
        2.30914        0.438887        0.313453 
        2.32486        0.431853        0.308089 
        2.34061        0.423873        0.302841 
        2.35635        0.414265        0.297719 
        2.37203        0.409874        0.292732 
        2.38768        0.403737        0.287869 
        2.40339        0.398012        0.283098 
        2.41914        0.393008        0.278423 
        2.43483        0.385345        0.273869 
         2.4505        0.378827        0.269423 
        2.46622         0.37311        0.265061 
        2.48195        0.369496        0.260794 
        2.49759         0.36314        0.256643 
        2.51328        0.356037         0.25257 
        2.52906        0.351052         0.24856 
        2.54479        0.346744        0.244651 
        2.56049        0.341104        0.240832 
        2.57618        0.337135        0.237098 
        2.59189        0.331587        0.233437 
        2.60758        0.327679        0.229858 
        2.62325        0.322718        0.226358 
        2.63898        0.318526        0.222918 
        2.65468        0.313721        0.219556 
        2.67044        0.308739        0.216249 
        2.68618         0.30392        0.213017 
        2.70184        0.299724        0.209863 
        2.71755        0.295514        0.206764 
        2.73329        0.292828        0.203723 
        2.74897        0.288532        0.200753 
        2.76462        0.284117        0.197848 
        2.78034        0.280852        0.194987 
        2.79607        0.276685         0.19218 
        2.81179        0.272896        0.189431 
        2.82749         0.26962        0.186738 
        2.84321        0.266499        0.184094 
        2.85893        0.262686        0.181502 
        2.87462        0.259204        0.178963 
        2.89033        0.255399        0.176471 
        2.90605        0.252593        0.174023 
        2.92176        0.249222        0.171623 
        2.93747        0.245887        0.169269 
        2.95318        0.243186        0.166958 
        2.96891        0.240343        0.164688 
        2.98456        0.237533        0.162471 
        3.00023        0.234555        0.160291 
        3.01596        0.231346        0.158143 
        3.03164        0.229522        0.156041 
        3.04738        0.225196        0.153971 
         3.0631        0.223334        0.151938 
        3.07883        0.219937        0.149942 
        3.09456        0.217568        0.147982 
        3.11026        0.215056        0.146059 
        3.12596        0.212255        0.144171 
        3.14163        0.210078        0.142319 
        3.15734        0.208377        0.140496 
        3.17308        0.205517          0.1387 
        3.18879        0.203143        0.136941 
        3.20447        0.201037        0.135214 
         3.2202        0.198809        0.133511 
         3.2359        0.196558         0.13184 
        3.25157          0.1942        0.130202 
        3.26729        0.192566        0.128586 
        3.28304        0.190394        0.126994 
        3.29877        0.188233        0.125431 
        3.31446        0.186589        0.123897 
        3.33014         0.18471        0.122391 
        3.34585        0.183552        0.120906 
        3.36158        0.181039        0.119444 
        3.37727        0.179484        0.118011 
        3.39294        0.177385        0.116602 
        3.40867        0.175363        0.115211 
        3.42439        0.174077        0.113843 
        3.44008        0.172105          0.1125 
        3.45578        0.170994        0.111177 
        3.47153         0.16919        0.109873 
        3.48724        0.168021        0.108591 
        3.50292        0.166521        0.107333 
        3.51859        0.164208        0.106095 
        3.53431        0.162902        0.104872 
        3.55007        0.161853        0.103666 
        3.56577        0.159987        0.102483 
        3.58146        0.158249        0.101319 
        3.59719        0.157313        0.100171 
        3.61292        0.155973       0.0990401 
        3.62859         0.15389        0.097931 
        3.64429        0.152898       0.0968366 
        3.66003        0.151742       0.0957554 
        3.67578        0.150279        0.094691 
        3.69146        0.149365       0.0936466 
        3.70712        0.148044       0.0926197 
        3.72284         0.14691       0.0916043 
        3.73853        0.145988       0.0906057 
        3.75422        0.144364       0.0896216 
        3.76993        0.143288        0.088651 
        3.78564        0.141873       0.0876951 
        3.80137         0.14064       0.0867516 
        3.81707        0.140115       0.0858239 
        3.83279        0.138816       0.0849088 
        3.84853        0.137437       0.0840055 
        3.86424        0.136201        0.083117 
        3.87992        0.135459       0.0822425 
        3.89561        0.134029       0.0813804 
        3.91134        0.133472       0.0805289 
        3.92704        0.131842       0.0796903 
        3.94273         0.13097       0.0788645 
        3.95845        0.129553       0.0780487 
        3.97418        0.128553       0.0772442 
        3.98988        0.127506       0.0764521 
        4.00554        0.126114       0.0756731 
        4.02125        0.125029       0.0749026 
        4.03698        0.123946       0.0741416 
        4.05268        0.122693       0.0733927 
        4.06839        0.121063       0.0726536 
         4.0841        0.119441       0.0719248 
        4.09983        0.117903       0.0712048 
        4.11555        0.116593       0.0704949 
        4.13124        0.115175       0.0697966 
        4.14693        0.114308        0.069107 
        4.16266         0.11297       0.0684251 
        4.17839        0.111823       0.0677527 
        4.19408        0.110762       0.0670908 
        4.20977        0.109634       0.0664374 
        4.22551        0.108887        0.065791 
        4.24123        0.107434       0.0651538 
        4.25691        0.106553       0.0645267 
        4.27259        0.105601       0.0639076 
        4.28831        0.104938       0.0632952 
        4.30404        0.103598       0.0626903 
        4.31974        0.103346       0.0620945 
        4.33543        0.102203       0.0615067 
        4.35116        0.101449       0.0609251 
        4.36688        0.100525       0.0603511 
        4.38255        0.099761       0.0597866 
        4.39825       0.0994558        0.059228 
        4.41398       0.0985037       0.0586754 
         4.4297       0.0979458       0.0581303 
        4.44541       0.0974267       0.0575922 
        4.46111       0.0971589       0.0570613 
        4.47683       0.0964709       0.0565366 
        4.49251       0.0958302       0.0560195 
        4.50819       0.0953605        0.055509 
         4.5239       0.0952492       0.0550041 
        4.53962       0.0945706       0.0545047 
        4.55535       0.0942765       0.0540112 
        4.57106       0.0938096       0.0535245 
        4.58678       0.0936314       0.0530437 
         4.6025       0.0931235       0.0525685 
        4.61821       0.0931478       0.0520993 
        4.63391       0.0927583       0.0516363 
         4.6496       0.0926015        0.051179 
        4.66532       0.0923185       0.0507266 
        4.68103       0.0925237       0.0502798 
        4.69673       0.0921158       0.0498387 
        4.71241       0.0919991       0.0494033 
        4.72811       0.0918601       0.0489724 
        4.74384       0.0920289       0.0485459 
        4.75955       0.0921548       0.0481252 
        4.77525       0.0921499       0.0477097 
        4.79096       0.0920444       0.0472985 
        4.80669       0.0920006       0.0468919 
         4.8224       0.0922486       0.0464905 
        4.83809       0.0922672       0.0460942 
        4.85379       0.0927473       0.0457022 
         4.8695       0.0926059       0.0453144 
        4.88521       0.0928313       0.0449312 
        4.90093       0.0932906       0.0445524 
        4.91663       0.0936614       0.0441782 
        4.93234       0.0938158       0.0438079 
        4.94807       0.0943258       0.0434416 
        4.96377       0.0945551       0.0430801 
        4.97943       0.0953333       0.0427234 
        4.99514       0.0954779       0.0423698 
        5.01086       0.0962777         0.04202 
        5.02654       0.0965865       0.0416749 
        5.04227       0.0969719       0.0413326 
          5.058       0.0979299        0.040994 
        5.07371       0.0984322       0.0406598 
        5.08942       0.0993715       0.0403293 
        5.10513       0.0996827       0.0400024 
        5.12084        0.100327       0.0396788 
        5.13656        0.101305        0.039359 
        5.15225         0.10246       0.0390431 
        5.16796        0.103204       0.0387302 
        5.18369        0.103261       0.0384203 
         5.1994        0.104534       0.0381144 
        5.21509        0.105524       0.0378121 
        5.23079         0.10694       0.0375127 
        5.24649        0.107715       0.0372167 
        5.26217         0.10857       0.0369241 
        5.27788        0.109669       0.0366342 
        5.29359        0.110864       0.0363473 
        5.30933         0.11245       0.0360631 
        5.32504        0.113045       0.0357823 
        5.34073        0.114513       0.0355048 
        5.35646        0.115927       0.0352297 
        5.37218        0.116735       0.0349574 
        5.38789        0.118503       0.0346884 
        5.40357        0.119926       0.0344225 
        5.41929        0.121128       0.0341588 
        5.43502        0.122284       0.0338977 
         5.4507        0.124125       0.0336401 
        5.46639        0.125922        0.033385 
        5.48212        0.127278       0.0331319 
        5.49786        0.129177       0.0328812 
        5.51353        0.131451       0.0326343 
        5.52921        0.132379       0.0323896 
        5.54495        0.134311       0.0321467 
        5.56066        0.137185       0.0319065 
        5.57637        0.138087       0.0316688 
        5.59207         0.14092       0.0314337 
        5.60778         0.14246       0.0312009 
        5.62346        0.145162       0.0309707 
        5.63916        0.146629       0.0307427 
        5.65487        0.148444       0.0305167 
         5.6706        0.150707       0.0302928 
        5.68633         0.15416        0.030071 
        5.70203        0.155727       0.0298519 
        5.71773        0.158083        0.029635 
        5.73344        0.159815         0.02942 
        5.74916        0.162674        0.029207 
        5.76486        0.164501       0.0289964 
        5.78054         0.16889       0.0287882 
        5.79626         0.16936       0.0285814 
          5.812         0.17251       0.0283764 
         5.8277         0.17549        0.028174 
        5.84339        0.179187       0.0279736 
        5.85911        0.181318       0.0277747 
        5.87484        0.182579       0.0275777 
        5.89053        0.186907       0.0273831 
        5.90623        0.189217       0.0271902 
        5.92195        0.192413       0.0269988 
        5.93767        0.195252       0.0268093 
        5.95336         0.19814        0.026622 
        5.96905        0.202158       0.0264365 
        5.98476        0.205176       0.0262525 
        6.00048        0.208204       0.0260702 
        6.01617        0.210567       0.0258898 
        6.03185        0.213747       0.0257113 
        6.04756        0.217073       0.0255341 
        6.06331         0.22036       0.0253582 
        6.07903        0.223792       0.0251843 
        6.09473        0.227666       0.0250121 
        6.11044         0.23078       0.0248414 
        6.12616        0.234261       0.0246723 
        6.14186        0.238208       0.0245049 
        6.15755        0.241244       0.0243391 
        6.17326         0.24529       0.0241746 
        6.18898        0.249374       0.0240116 
        6.20467        0.254072       0.0238504 
        6.22036        0.254717       0.0236906 
         6.2361        0.258459       0.0235319 
         6.2518         0.26298       0.0233749 
        6.26748        0.266192       0.0232196 
        6.28319        0.270874       0.0230653 
        6.29893        0.273303       0.0229123 
        6.31463        0.278894       0.0227608 
        6.33033        0.282195       0.0226108 
        6.34604        0.285161       0.0224621 
        6.36177        0.289766       0.0223145 
        6.37747        0.293141       0.0221685 
