# k  (h/Mpc)    Pcb(k)  (Mpc/h)^3    Pcb_linear(k) (Mpc/h)^3   ShotnoiseSubtracted = true
      0.0200456         4398.45         4450.13 
      0.0350414         3021.17         2953.54 
      0.0492313         1994.47         1989.29 
      0.0637834         1571.76         1594.46 
      0.0800726          1237.7         1267.66 
       0.096163         920.148         893.346 
       0.111083         704.705         674.518 
       0.126058         587.499         586.364 
       0.142273         507.793         508.479 
       0.158546         409.217         398.643 
        0.17375         338.231         320.177 
       0.188953         300.987         283.537 
       0.204907         259.562         256.305 
       0.220756         230.422         218.524 
        0.23588         197.575          184.25 
         0.2514         174.405         162.981 
       0.267535         163.858         148.802 
       0.283568         143.868         132.756 
       0.299022         131.789         116.457 
       0.314451         123.773         104.148 
       0.330372         108.816         95.3585 
       0.346141         99.8698         87.2561 
       0.361624         92.1734         78.9072 
       0.377134         83.6231         71.5695 
       0.392932         80.4512          65.777 
       0.408854         74.4302         60.7756 
       0.424564          70.586         55.9568 
       0.440253         63.9703          51.462 
       0.455999         58.3377         47.6187 
       0.471626         55.6591         44.3402 
        0.48727         53.7516         41.3034 
       0.502856         49.6174          38.451 
       0.518488         47.0157         35.8692 
       0.534347         44.1375         33.5554 
       0.550082         42.4664         31.4669 
       0.565732          40.842         29.5326 
       0.581496          37.809         27.7319 
       0.597222         36.1211         26.1005 
       0.612804         34.3978         24.6238 
       0.628434         33.7183         23.2505 
       0.644267         31.7531         21.9581 
       0.660051          30.276         20.7661 
       0.675724         28.9402         19.6748 
       0.691403         28.3352         18.6631 
       0.707174         27.1264          17.716 
       0.722871          26.235         16.8373 
        0.73838         24.9249         16.0266 
       0.754018         23.4985         15.2625 
       0.769845         23.0745         14.5391 
        0.78569         22.2372         13.8614 
       0.801365         21.4411          13.233 
       0.817031         20.5251         12.6437 
       0.832809         20.0332         12.0862 
       0.848511         19.3296         11.5647 
       0.864097         18.7464         11.0774 
       0.879701         18.3957         10.6177 
       0.895507         17.6374         10.1786 
       0.911279         16.9727         9.76508 
        0.92691         16.6582          9.3779 
       0.942635         16.2251         9.00951 
       0.958396         15.7364         8.66005 
       0.974128         15.2918         8.32969 
       0.989692         14.5799         8.01974 
        1.00528         14.4354         7.72504 
        1.02113          13.962         7.44046 
        1.03692         13.6687          7.1712 
        1.05264         13.3639         6.91643 
        1.06832         13.0626         6.67435 
        1.08405          12.668         6.44315 
        1.09979         12.4004          6.2227 
        1.11537         11.9939         6.01468 
        1.13105         11.8204         5.81488 
        1.14679         11.5066         5.62333 
        1.16256         11.2904         5.43998 
        1.17828         11.0414         5.26536 
        1.19395         10.8371         5.09894 
         1.2097         10.5571         4.93883 
        1.22537         10.3472         4.78633 
          1.241         10.0737         4.64068 
        1.25666         9.94181          4.5007 
        1.27241         9.76838          4.3658 
        1.28819          9.3644         4.23617 
        1.30392         9.40612         4.11214 
        1.31957         9.10673         3.99361 
        1.33529         8.98277         3.87928 
        1.35108         8.81725         3.76896 
        1.36674         8.60708         3.66368 
         1.3824         8.44396          3.5625 
        1.39811         8.29932         3.46478 
        1.41389         8.16065         3.37033 
        1.42964           8.022         3.27954 
        1.44531         7.87812         3.19251 
        1.46101         7.78065         3.10844 
        1.47667         7.61281         3.02763 
        1.49229         7.40468         2.94988 
        1.50793         7.34836         2.87476 
        1.52367         7.23578         2.80176 
        1.53953         7.10652         2.73078 
        1.55526         6.95718         2.66282 
        1.57092         6.90348         2.59743 
        1.58662         6.76907         2.53407 
        1.60235         6.69535         2.47268 
        1.61809         6.57287         2.41328 
        1.63369         6.45371         2.35635 
        1.64941         6.34045         2.30083 
        1.66519         6.28137         2.24689 
        1.68085         6.14378         2.19505 
        1.69652         6.10708         2.14482 
        1.71228         6.01984         2.09587 
        1.72806         5.91814         2.04839 
        1.74368         5.83359         2.00285 
        1.75933         5.75027         1.95859 
        1.77505         5.64923         1.91546 
        1.79081         5.58384         1.87353 
         1.8065         5.53787         1.83304 
        1.82218         5.46765         1.79376 
        1.83797          5.3612         1.75536 
        1.85367         5.30363         1.71829 
        1.86928         5.21984          1.6825 
        1.88497          5.1724         1.64753 
        1.90073         5.08553         1.61342 
        1.91647         4.97103         1.58029 
        1.93218         4.95357         1.54816 
        1.94787         4.87711         1.51696 
        1.96363         4.82812          1.4865 
        1.97935         4.78491         1.45692 
        1.99499         4.71594         1.42832 
        2.01064         4.65176         1.40043 
         2.0264         4.60351          1.3731 
        2.04216         4.56477         1.34652 
        2.05781         4.50817          1.3208 
        2.07353         4.43852         1.29565 
        2.08928         4.38402          1.2711 
        2.10499         4.33541         1.24725 
        2.12065          4.3096         1.22407 
        2.13633         4.24877         1.20146 
        2.15211         4.20375         1.17927 
        2.16785         4.13817          1.1577 
        2.18349         4.12411          1.1368 
        2.19916         4.07022         1.11637 
        2.21489         4.03042         1.09637 
        2.23063         3.97943         1.07684 
         2.2463         3.92091         1.05787 
        2.26194         3.87485          1.0394 
        2.27765         3.83454         1.02127 
        2.29341          3.7841         1.00353 
        2.30914         3.76917        0.986237 
        2.32486         3.71222        0.969361 
        2.34061         3.69697        0.952849 
        2.35635         3.64861        0.936733 
        2.37203         3.61737        0.921042 
        2.38768         3.58283         0.90574 
        2.40339           3.531        0.890728 
        2.41914         3.51285        0.876019 
        2.43483         3.48293        0.861691 
         2.4505         3.42604        0.847704 
        2.46622         3.39814        0.833978 
        2.48195         3.38586        0.820552 
        2.49759         3.32893        0.807491 
        2.51328         3.30683        0.794678 
        2.52906         3.26424        0.782059 
        2.54479         3.24419         0.76976 
        2.56049         3.20836        0.757746 
        2.57618         3.18503        0.745997 
        2.59189         3.17593        0.734478 
        2.60758         3.13039        0.723218 
        2.62325         3.07839        0.712205 
        2.63898         3.08292        0.701382 
        2.65468         3.04359        0.690805 
        2.67044         3.02544        0.680398 
        2.68618         2.98623        0.670228 
        2.70184         2.97364        0.660305 
        2.71755         2.93623        0.650556 
        2.73329         2.90817        0.640988 
        2.74897         2.88735        0.631641 
        2.76462         2.86484          0.6225 
        2.78034         2.84138        0.613501 
        2.79607         2.81207        0.604669 
        2.81179         2.79276        0.596019 
        2.82749         2.76173        0.587546 
        2.84321         2.74733        0.579228 
        2.85893         2.71263        0.571071 
        2.87462         2.70481        0.563084 
        2.89033         2.68262        0.555242 
        2.90605         2.65511         0.54754 
        2.92176         2.62512        0.539988 
        2.93747         2.61451         0.53258 
        2.95318          2.5901        0.525309 
        2.96891         2.56738        0.518169 
        2.98456         2.55069        0.511192 
        3.00023         2.53592        0.504333 
        3.01596         2.50519        0.497576 
        3.03164         2.48934        0.490962 
        3.04738         2.47492        0.484448 
         3.0631         2.45828        0.478053 
        3.07883         2.43368        0.471772 
        3.09456         2.40682        0.465604 
        3.11026         2.39913        0.459555 
        3.12596         2.38535        0.453613 
        3.14163         2.35731        0.447789 
        3.15734         2.34187        0.442053 
        3.17308         2.32734        0.436402 
        3.18879         2.31095        0.430865 
        3.20447         2.30233        0.425431 
         3.2202         2.27532        0.420073 
         3.2359         2.26134        0.414817 
        3.25157         2.24665        0.409661 
        3.26729         2.22966        0.404577 
        3.28304         2.20452        0.399569 
        3.29877         2.19704        0.394651 
        3.31446         2.18457        0.389826 
        3.33014         2.16442        0.385086 
        3.34585         2.15478        0.380416 
        3.36158         2.13512        0.375816 
        3.37727         2.12099        0.371305 
        3.39294         2.10941        0.366873 
        3.40867         2.09403        0.362496 
        3.42439         2.07583        0.358192 
        3.44008         2.06319        0.353966 
        3.45578         2.04601        0.349804 
        3.47153         2.03553        0.345699 
        3.48724         2.02339        0.341667 
        3.50292         2.01009        0.337708 
        3.51859         1.99265        0.333813 
        3.53431         1.98116        0.329967 
        3.55007         1.96865        0.326172 
        3.56577         1.95384         0.32245 
        3.58146         1.94609        0.318788 
        3.59719         1.93817        0.315174 
        3.61292         1.91882        0.311616 
        3.62859         1.90887        0.308127 
        3.64429         1.89411        0.304683 
        3.66003         1.88544        0.301281 
        3.67578         1.87526        0.297932 
        3.69146         1.85879        0.294646 
        3.70712         1.85289        0.291415 
        3.72284         1.83596         0.28822 
        3.73853         1.82536        0.285079 
        3.75422         1.81009        0.281982 
        3.76993         1.79709        0.278928 
        3.78564         1.78786        0.275921 
        3.80137          1.7745        0.272952 
        3.81707         1.76839        0.270033 
        3.83279         1.75306        0.267154 
        3.84853         1.74199        0.264312 
        3.86424         1.73056        0.261516 
        3.87992         1.72456        0.258765 
        3.89561         1.71321        0.256052 
        3.91134         1.69888        0.253373 
        3.92704         1.68947        0.250735 
        3.94273         1.67695        0.248136 
        3.95845         1.66949         0.24557 
        3.97418         1.65767        0.243039 
        3.98988         1.64602        0.240546 
        4.00554         1.63543        0.238095 
        4.02125         1.62529        0.235671 
        4.03698           1.615        0.233276 
        4.05268         1.60688         0.23092 
        4.06839         1.59479        0.228595 
         4.0841         1.58335        0.226301 
        4.09983         1.57252        0.224036 
        4.11555         1.56192        0.221803 
        4.13124         1.55559        0.219605 
        4.14693         1.54453        0.217436 
        4.16266         1.53444         0.21529 
        4.17839         1.52347        0.213175 
        4.19408         1.51109        0.211092 
        4.20977         1.50489        0.209036 
        4.22551         1.49262        0.207002 
        4.24123         1.48721        0.204997 
        4.25691         1.47727        0.203024 
        4.27259         1.46698        0.201076 
        4.28831         1.45549         0.19915 
        4.30404         1.45128        0.197247 
        4.31974         1.44333        0.195372 
        4.33543         1.43124        0.193523 
        4.35116         1.42186        0.191692 
        4.36688         1.41405        0.189887 
        4.38255         1.40927         0.18811 
        4.39825         1.39867        0.186353 
        4.41398         1.39405        0.184614 
         4.4297         1.38395        0.182899 
        4.44541         1.37285        0.181206 
        4.46111            1.37        0.179536 
        4.47683         1.35999        0.177885 
        4.49251         1.35077        0.176258 
        4.50819         1.34752        0.174652 
         4.5239         1.34041        0.173063 
        4.53962         1.33364        0.171492 
        4.55535         1.32414        0.169939 
        4.57106         1.31625        0.168408 
        4.58678         1.30916        0.166895 
         4.6025         1.30332          0.1654 
        4.61821         1.29701        0.163923 
        4.63391         1.29166        0.162467 
         4.6496         1.28145        0.161028 
        4.66532         1.27723        0.159604 
        4.68103         1.27184        0.158198 
        4.69673         1.26504        0.156811 
        4.71241         1.25742        0.155441 
        4.72811         1.25598        0.154085 
        4.74384         1.24827        0.152743 
        4.75955         1.24267        0.151419 
        4.77525         1.23459        0.150112 
        4.79096          1.2299        0.148818 
        4.80669         1.22498        0.147539 
         4.8224         1.21356        0.146276 
        4.83809         1.21353        0.145029 
        4.85379         1.21055        0.143796 
         4.8695         1.20459        0.142576 
        4.88521         1.19508         0.14137 
        4.90093         1.19235        0.140178 
        4.91663         1.18793        0.139001 
        4.93234         1.18464        0.137836 
        4.94807         1.18017        0.136683 
        4.96377         1.17139        0.135546 
        4.97943         1.16817        0.134423 
        4.99514         1.16366        0.133311 
        5.01086         1.15764         0.13221 
        5.02654          1.1531        0.131124 
        5.04227         1.14811        0.130047 
          5.058         1.14438        0.128982 
        5.07371         1.14178        0.127931 
        5.08942         1.13954        0.126891 
        5.10513         1.13378        0.125862 
        5.12084          1.1274        0.124844 
        5.13656         1.12314        0.123838 
        5.15225         1.11992        0.122844 
        5.16796           1.117        0.121859 
        5.18369           1.112        0.120884 
         5.1994         1.10958        0.119922 
        5.21509          1.1041        0.118971 
        5.23079         1.10154        0.118029 
        5.24649         1.09935        0.117097 
        5.26217         1.09327        0.116177 
        5.27788         1.08635        0.115264 
        5.29359           1.086        0.114362 
        5.30933         1.08154        0.113467 
        5.32504          1.0797        0.112584 
        5.34073         1.07351        0.111711 
        5.35646          1.0697        0.110845 
        5.37218         1.06819        0.109989 
        5.38789         1.06447        0.109142 
        5.40357         1.05956        0.108306 
        5.41929         1.05599        0.107476 
        5.43502         1.05389        0.106655 
         5.4507         1.04935        0.105844 
        5.46639         1.04645        0.105041 
        5.48212         1.04454        0.104245 
        5.49786         1.04004        0.103456 
        5.51353         1.03739        0.102679 
        5.52921         1.03487        0.101909 
        5.54495         1.03502        0.101145 
        5.56066         1.03058         0.10039 
        5.57637         1.02477       0.0996416 
        5.59207         1.02128       0.0989019 
        5.60778         1.02081       0.0981694 
        5.62346         1.01804       0.0974452 
        5.63916         1.01458       0.0967276 
        5.65487         1.01064       0.0960168 
         5.6706         1.01002       0.0953122 
        5.68633         1.00696       0.0946144 
        5.70203         1.00135       0.0939249 
        5.71773         1.00171       0.0932424 
        5.73344        0.998184       0.0925662 
        5.74916        0.996341        0.091896 
        5.76486        0.993935       0.0912333 
        5.78054         0.99006       0.0905781 
        5.79626         0.98946       0.0899275 
          5.812        0.985015       0.0892825 
         5.8277        0.984019       0.0886457 
        5.84339        0.980545        0.088015 
        5.85911        0.979136       0.0873892 
        5.87484        0.975022       0.0867696 
        5.89053        0.974329       0.0861571 
        5.90623        0.972339       0.0855502 
        5.92195        0.968978        0.084948 
        5.93767        0.965465        0.084352 
        5.95336        0.965842       0.0837625 
        5.96905         0.96074       0.0831789 
        5.98476         0.95875       0.0825999 
        6.00048        0.956623       0.0820263 
        6.01617        0.954727       0.0814588 
        6.03185        0.953218       0.0808973 
        6.04756        0.950413       0.0803397 
        6.06331         0.94771       0.0797861 
        6.07903        0.946388       0.0792388 
        6.09473         0.94625       0.0786972 
        6.11044         0.94216         0.07816 
        6.12616        0.936809        0.077628 
        6.14186         0.93772       0.0771013 
        6.15755        0.934613       0.0765796 
        6.17326        0.933257       0.0760622 
        6.18898         0.93242       0.0755493 
        6.20467        0.929365        0.075042 
        6.22036        0.928532       0.0745393 
         6.2361        0.924464       0.0740399 
         6.2518         0.92344       0.0735458 
        6.26748        0.918548       0.0730573 
        6.28319          0.9187       0.0725718 
        6.29893        0.918448       0.0720903 
        6.31463        0.914171       0.0716139 
        6.33033        0.911401       0.0711419 
        6.34604        0.908833       0.0706738 
        6.36177        0.907657       0.0702095 
        6.37747        0.906681       0.0697501 
