# k  (h/Mpc)    Pcb(k)  (Mpc/h)^3    Pcb_linear(k) (Mpc/h)^3   ShotnoiseSubtracted = true
      0.0200456         57.6721         58.3327 
      0.0350414         39.0457         38.7152 
      0.0492313         26.2365         26.0758 
      0.0637834         20.9324         20.9003 
      0.0800726         16.5249         16.6165 
       0.096163          11.806         11.7101 
       0.111083         8.94361         8.84164 
       0.126058         7.68253         7.68611 
       0.142273         6.62444         6.66519 
       0.158546         5.23406         5.22544 
        0.17375         4.22935         4.19691 
       0.188953         3.72367         3.71662 
       0.204907         3.33128         3.35967 
       0.220756         2.86096         2.86443 
        0.23588         2.41908         2.41517 
         0.2514         2.14027         2.13637 
       0.267535         1.94812         1.95051 
       0.283568         1.73824         1.74018 
       0.299022         1.52734         1.52652 
       0.314451          1.3728         1.36518 
       0.330372         1.25116         1.24997 
       0.346141         1.14375         1.14376 
       0.361624          1.0339         1.03432 
       0.377134        0.937306         0.93814 
       0.392932        0.868106        0.862211 
       0.408854        0.795431        0.796652 
       0.424564        0.736573        0.733487 
       0.440253        0.675362        0.674569 
       0.455999        0.622626         0.62419 
       0.471626        0.579587        0.581216 
        0.48727        0.542615        0.541408 
       0.502856        0.505782        0.504019 
       0.518488        0.468505        0.470177 
       0.534347        0.436955        0.439848 
       0.550082        0.412684         0.41247 
       0.565732        0.389156        0.387115 
       0.581496         0.36356        0.363512 
       0.597222        0.341855        0.342128 
       0.612804         0.32233        0.322771 
       0.628434        0.303948        0.304769 
       0.644267        0.287845        0.287829 
       0.660051        0.272485        0.272204 
       0.675724        0.257158        0.257899 
       0.691403        0.243917        0.244638 
       0.707174        0.231633        0.232223 
       0.722871        0.221614        0.220705 
        0.73838        0.209231        0.210079 
       0.754018        0.199112        0.200062 
       0.769845        0.189143         0.19058 
        0.78569        0.181085        0.181697 
       0.801365        0.173156         0.17346 
       0.817031        0.165359        0.165735 
       0.832809         0.15767        0.158428 
       0.848511         0.15097        0.151591 
       0.864097        0.144939        0.145204 
       0.879701        0.139334        0.139178 
       0.895507        0.132486        0.133422 
       0.911279        0.127571        0.128002 
        0.92691          0.1229        0.122926 
       0.942635        0.117387        0.118098 
       0.958396         0.11309        0.113517 
       0.974128        0.108783        0.109186 
       0.989692        0.104618        0.105123 
        1.00528        0.100434         0.10126 
        1.02113        0.097354       0.0975303 
        1.03692       0.0938653       0.0940008 
        1.05264       0.0901643       0.0906612 
        1.06832       0.0871029        0.087488 
        1.08405       0.0838966       0.0844574 
        1.09979       0.0811805       0.0815677 
        1.11537       0.0780736        0.078841 
        1.13105       0.0754176        0.076222 
        1.14679       0.0731641       0.0737111 
        1.16256       0.0709228       0.0713077 
        1.17828       0.0686682       0.0690188 
        1.19395       0.0664714       0.0668374 
         1.2097       0.0642545       0.0647387 
        1.22537       0.0620825       0.0627396 
          1.241       0.0602444       0.0608305 
        1.25666       0.0585285       0.0589955 
        1.27241       0.0566932       0.0572273 
        1.28819       0.0549254        0.055528 
        1.30392       0.0534798       0.0539024 
        1.31957       0.0518172       0.0523486 
        1.33529       0.0505186         0.05085 
        1.35108       0.0488134       0.0494038 
        1.36674       0.0476523       0.0480239 
         1.3824       0.0461608       0.0466976 
        1.39811       0.0448056       0.0454167 
        1.41389       0.0437602       0.0441786 
        1.42964       0.0424839       0.0429885 
        1.44531       0.0413042       0.0418478 
        1.46101       0.0402068       0.0407457 
        1.47667       0.0391964       0.0396864 
        1.49229       0.0381958       0.0386673 
        1.50793       0.0372124       0.0376826 
        1.52367       0.0362455       0.0367257 
        1.53953       0.0351937       0.0357954 
        1.55526       0.0343389       0.0349045 
        1.57092       0.0336368       0.0340473 
        1.58662       0.0327572       0.0332168 
        1.60235       0.0319099       0.0324121 
        1.61809        0.031152       0.0316335 
        1.63369       0.0303902       0.0308872 
        1.64941       0.0296314       0.0301595 
        1.66519       0.0289924       0.0294525 
        1.68085       0.0282793        0.028773 
        1.69652       0.0276658       0.0281145 
        1.71228       0.0269296       0.0274728 
        1.72806       0.0264192       0.0268505 
        1.74368       0.0257923       0.0262535 
        1.75933       0.0252115       0.0256734 
        1.77505       0.0246961        0.025108 
        1.79081       0.0240923       0.0245584 
         1.8065       0.0236336       0.0240276 
        1.82218       0.0230292       0.0235128 
        1.83797       0.0225373       0.0230094 
        1.85367       0.0220627       0.0225235 
        1.86928       0.0215107       0.0220544 
        1.88497       0.0211016        0.021596 
        1.90073       0.0206138       0.0211488 
        1.91647       0.0203144       0.0207146 
        1.93218       0.0199304       0.0202934 
        1.94787       0.0194085       0.0198845 
        1.96363       0.0190209       0.0194852 
        1.97935        0.018623       0.0190975 
        1.99499       0.0182908       0.0187225 
        2.01064       0.0178895       0.0183569 
         2.0264       0.0175605       0.0179988 
        2.04216       0.0172307       0.0176503 
        2.05781       0.0168545       0.0173131 
        2.07353       0.0165411       0.0169835 
        2.08928       0.0162254       0.0166617 
        2.10499       0.0159512        0.016349 
        2.12065       0.0156166       0.0160453 
        2.13633       0.0153339       0.0157489 
        2.15211       0.0150568        0.015458 
        2.16785       0.0146898       0.0151753 
        2.18349       0.0144612       0.0149013 
        2.19916       0.0141715       0.0146335 
        2.21489       0.0139219       0.0143713 
        2.23063       0.0137146       0.0141153 
         2.2463       0.0134419       0.0138666 
        2.26194       0.0132148       0.0136245 
        2.27765       0.0129826       0.0133869 
        2.29341        0.012714       0.0131543 
        2.30914       0.0125087       0.0129277 
        2.32486       0.0122598       0.0127065 
        2.34061       0.0120411         0.01249 
        2.35635       0.0118675       0.0122788 
        2.37203        0.011695       0.0120731 
        2.38768       0.0115265       0.0118725 
        2.40339       0.0112854       0.0116757 
        2.41914       0.0110854       0.0114829 
        2.43483        0.010946       0.0112951 
         2.4505       0.0107236       0.0111118 
        2.46622       0.0105248       0.0109319 
        2.48195       0.0103407       0.0107559 
        2.49759       0.0101894       0.0105847 
        2.51328       0.0100025       0.0104167 
        2.52906      0.00985066       0.0102513 
        2.54479      0.00969416       0.0100901 
        2.56049      0.00952943      0.00993261 
        2.57618      0.00938814       0.0097786 
        2.59189      0.00921924       0.0096276 
        2.60758      0.00911931      0.00948001 
        2.62325      0.00892734      0.00933565 
        2.63898      0.00881052      0.00919378 
        2.65468      0.00865686      0.00905513 
        2.67044      0.00852763      0.00891872 
        2.68618      0.00838153      0.00878541 
        2.70184      0.00830067      0.00865534 
        2.71755      0.00815633      0.00852755 
        2.73329      0.00804944      0.00840213 
        2.74897      0.00790298      0.00827961 
        2.76462      0.00779814      0.00815979 
        2.78034      0.00768701      0.00804183 
        2.79607      0.00756217      0.00792605 
        2.81179      0.00744646      0.00781267 
        2.82749      0.00735282      0.00770161 
        2.84321      0.00723111      0.00759257 
        2.85893      0.00713838      0.00748565 
        2.87462      0.00702287      0.00738096 
        2.89033      0.00692741      0.00727816 
        2.90605      0.00681517      0.00717721 
        2.92176      0.00673237      0.00707821 
        2.93747      0.00663428      0.00698111 
        2.95318      0.00653853       0.0068858 
        2.96891      0.00642887      0.00679221 
        2.98456      0.00634948      0.00670075 
        3.00023      0.00628706      0.00661084 
        3.01596      0.00618203      0.00652228 
        3.03164      0.00609816      0.00643558 
        3.04738       0.0060229      0.00635019 
         3.0631      0.00591255      0.00626636 
        3.07883      0.00585402      0.00618403 
        3.09456      0.00577183      0.00610318 
        3.11026       0.0056768      0.00602389 
        3.12596       0.0056285        0.005946 
        3.14163      0.00555018      0.00586966 
        3.15734      0.00548533      0.00579447 
        3.17308       0.0054056       0.0057204 
        3.18879      0.00531856      0.00564782 
        3.20447      0.00526854      0.00557659 
         3.2202      0.00519011      0.00550636 
         3.2359      0.00512752      0.00543745 
        3.25157      0.00505402      0.00536988 
        3.26729      0.00499361      0.00530324 
        3.28304      0.00494541      0.00523759 
        3.29877      0.00487063      0.00517313 
        3.31446      0.00480533      0.00510988 
        3.33014      0.00474706      0.00504774 
        3.34585      0.00470542      0.00498653 
        3.36158      0.00463388      0.00492623 
        3.37727      0.00457318       0.0048671 
        3.39294      0.00451807        0.004809 
        3.40867      0.00446939      0.00475163 
        3.42439      0.00440797      0.00469521 
        3.44008      0.00435839      0.00463981 
        3.45578      0.00431142      0.00458526 
        3.47153      0.00425351      0.00453146 
        3.48724      0.00420485       0.0044786 
        3.50292       0.0041595      0.00442671 
        3.51859      0.00413327      0.00437565 
        3.53431      0.00406307      0.00432524 
        3.55007      0.00401737      0.00427549 
        3.56577      0.00396721      0.00422671 
        3.58146      0.00393307       0.0041787 
        3.59719      0.00388972      0.00413133 
        3.61292      0.00384515      0.00408469 
        3.62859      0.00378563      0.00403895 
        3.64429      0.00376158      0.00399381 
        3.66003      0.00372233      0.00394922 
        3.67578      0.00367771      0.00390532 
        3.69146      0.00364357      0.00386225 
        3.70712      0.00359391       0.0038199 
        3.72284      0.00356559      0.00377802 
        3.73853       0.0035188      0.00373684 
        3.75422      0.00348896      0.00369625 
        3.76993      0.00346209      0.00365622 
        3.78564       0.0034231      0.00361679 
        3.80137       0.0033807      0.00357788 
        3.81707      0.00334802      0.00353962 
        3.83279      0.00330825      0.00350188 
        3.84853      0.00328675      0.00346462 
        3.86424      0.00325004      0.00342798 
        3.87992      0.00322389      0.00339191 
        3.89561      0.00319302      0.00335636 
        3.91134      0.00315698      0.00332124 
        3.92704      0.00313141      0.00328666 
        3.94273      0.00310546       0.0032526 
        3.95845      0.00308025      0.00321895 
        3.97418       0.0030504      0.00318577 
        3.98988      0.00301315       0.0031531 
        4.00554      0.00298381      0.00312097 
        4.02125      0.00294786      0.00308919 
        4.03698      0.00290142      0.00305781 
        4.05268      0.00286645      0.00302692 
        4.06839      0.00283699      0.00299644 
         4.0841      0.00279127      0.00296638 
        4.09983       0.0027668      0.00293669 
        4.11555      0.00272161      0.00290741 
        4.13124      0.00269881      0.00287861 
        4.14693      0.00266566      0.00285017 
        4.16266      0.00263827      0.00282205 
        4.17839      0.00260428      0.00279431 
        4.19408      0.00257139      0.00276701 
        4.20977      0.00254556      0.00274006 
        4.22551      0.00252204      0.00271341 
        4.24123      0.00249874      0.00268713 
        4.25691      0.00248496      0.00266126 
        4.27259      0.00245546      0.00263573 
        4.28831      0.00243584      0.00261048 
        4.30404      0.00241108      0.00258553 
        4.31974      0.00240483      0.00256095 
        4.33543      0.00238008      0.00253671 
        4.35116      0.00236279      0.00251272 
        4.36688      0.00234851      0.00248905 
        4.38255      0.00233583      0.00246577 
        4.39825      0.00232535      0.00244273 
        4.41398       0.0023077      0.00241994 
         4.4297       0.0022941      0.00239746 
        4.44541       0.0022886      0.00237527 
        4.46111      0.00227929      0.00235337 
        4.47683       0.0022746      0.00233173 
        4.49251      0.00226298       0.0023104 
        4.50819      0.00225134      0.00228935 
         4.5239      0.00224591      0.00226852 
        4.53962      0.00224801      0.00224793 
        4.55535      0.00224284      0.00222758 
        4.57106      0.00224331       0.0022075 
        4.58678      0.00223743      0.00218767 
         4.6025      0.00224028      0.00216808 
        4.61821      0.00224281      0.00214872 
        4.63391      0.00224312      0.00212963 
         4.6496      0.00223391      0.00211077 
        4.66532      0.00224911      0.00209211 
        4.68103      0.00224907      0.00207368 
        4.69673      0.00225055      0.00205549 
        4.71241      0.00227205      0.00203753 
        4.72811      0.00227417      0.00201976 
        4.74384      0.00227951      0.00200217 
        4.75955      0.00229386      0.00198482 
        4.77525      0.00230086      0.00196768 
        4.79096      0.00231895      0.00195072 
        4.80669      0.00232944      0.00193395 
         4.8224      0.00234149       0.0019174 
        4.83809       0.0023527      0.00190105 
        4.85379      0.00237793      0.00188489 
         4.8695      0.00239835      0.00186889 
        4.88521       0.0024123      0.00185309 
        4.90093       0.0024283      0.00183747 
        4.91663      0.00246405      0.00182204 
        4.93234      0.00246735      0.00180676 
        4.94807      0.00249421      0.00179165 
        4.96377      0.00251976      0.00177675 
        4.97943       0.0025564      0.00176204 
        4.99514      0.00256887      0.00174745 
        5.01086      0.00260219      0.00173302 
        5.02654      0.00263488      0.00171879 
        5.04227      0.00265187      0.00170467 
          5.058      0.00269968      0.00169071 
        5.07371      0.00272346      0.00167693 
        5.08942      0.00277326      0.00166329 
        5.10513       0.0028011      0.00164981 
        5.12084      0.00283522      0.00163647 
        5.13656      0.00288033      0.00162327 
        5.15225      0.00292182      0.00161025 
        5.16796      0.00296674      0.00159734 
        5.18369       0.0030069      0.00158456 
         5.1994      0.00306159      0.00157195 
        5.21509      0.00309409      0.00155948 
        5.23079      0.00314417      0.00154713 
        5.24649      0.00319677      0.00153492 
        5.26217      0.00324589      0.00152285 
        5.27788      0.00330279       0.0015109 
        5.29359      0.00335399      0.00149907 
        5.30933      0.00341569      0.00148734 
        5.32504      0.00345662      0.00147576 
        5.34073      0.00353124      0.00146432 
        5.35646      0.00359196      0.00145297 
        5.37218       0.0036761      0.00144174 
        5.38789      0.00373708      0.00143065 
        5.40357        0.003792      0.00141968 
        5.41929      0.00386892       0.0014088 
        5.43502      0.00396181      0.00139804 
         5.4507      0.00402912      0.00138741 
        5.46639      0.00408267      0.00137689 
        5.48212      0.00417308      0.00136646 
        5.49786      0.00428576      0.00135611 
        5.51353      0.00437254      0.00134593 
        5.52921      0.00443834      0.00133584 
        5.54495      0.00455029      0.00132582 
        5.56066      0.00464659      0.00131592 
        5.57637      0.00475698      0.00130611 
        5.59207      0.00484817      0.00129642 
        5.60778      0.00495644      0.00128681 
        5.62346      0.00505171      0.00127732 
        5.63916      0.00513838      0.00126791 
        5.65487      0.00527335       0.0012586 
         5.6706      0.00537435      0.00124936 
        5.68633      0.00551092      0.00124021 
        5.70203       0.0056525      0.00123118 
        5.71773      0.00575855      0.00122223 
        5.73344      0.00584757      0.00121337 
        5.74916      0.00604316      0.00120458 
        5.76486      0.00616551      0.00119589 
        5.78054      0.00631533      0.00118731 
        5.79626      0.00644043      0.00117878 
          5.812      0.00660951      0.00117032 
         5.8277      0.00676425      0.00116198 
        5.84339      0.00696385      0.00115371 
        5.85911      0.00714862      0.00114551 
        5.87484      0.00727151      0.00113738 
        5.89053      0.00745878      0.00112936 
        5.90623      0.00767205       0.0011214 
        5.92195      0.00782889      0.00111351 
        5.93767      0.00802945      0.00110569 
        5.95336      0.00825788      0.00109797 
        5.96905      0.00849418      0.00109032 
        5.98476      0.00866114      0.00108273 
        6.00048       0.0089564      0.00107521 
        6.01617      0.00910804      0.00106777 
        6.03185      0.00933218      0.00106041 
        6.04756      0.00965515       0.0010531 
        6.06331       0.0098532      0.00104584 
        6.07903       0.0101587      0.00103867 
        6.09473       0.0103462      0.00103157 
        6.11044       0.0107582      0.00102453 
        6.12616       0.0109883      0.00101755 
        6.14186       0.0112688      0.00101065 
        6.15755       0.0116544      0.00100381 
        6.17326       0.0118458      0.00099703 
        6.18898       0.0122261     0.000990307 
        6.20467       0.0125475     0.000983657 
        6.22036       0.0129382     0.000977069 
         6.2361       0.0131912     0.000970522 
         6.2518       0.0136389     0.000964045 
        6.26748       0.0139522     0.000957642 
        6.28319        0.014502     0.000951278 
        6.29893       0.0148907     0.000944966 
        6.31463       0.0152648     0.000938722 
        6.33033       0.0156592     0.000932535 
        6.34604       0.0161575     0.000926399 
        6.36177       0.0165514     0.000920312 
        6.37747       0.0171806     0.000914291 
