# k  (h/Mpc)    Pcb(k)  (Mpc/h)^3    Pcb_linear(k) (Mpc/h)^3   ShotnoiseSubtracted = true
      0.0200456         530.806         537.566 
      0.0350414         351.824         346.777 
      0.0492313         239.616         238.284 
      0.0637834         197.357         198.968 
      0.0800726         151.964         153.368 
       0.096163         106.619         104.912 
       0.111083         84.9058         83.4685 
       0.126058         75.1871         75.6867 
       0.142273         62.0201         62.4455 
       0.158546         47.8071         47.4395 
        0.17375         40.8939         40.3827 
       0.188953         37.2597          37.182 
       0.204907         31.8257         32.2823 
       0.220756         26.8173          26.638 
        0.23588         23.4566         23.3274 
         0.2514         21.5012         21.4461 
       0.267535         19.3263         19.1915 
       0.283568         16.8006         16.6598 
       0.299022         15.0441          14.876 
       0.314451         14.0081         13.6963 
       0.330372         12.6543         12.4948 
       0.346141         11.3975         11.2316 
       0.361624         10.3338          10.202 
       0.377134         9.50085         9.42152 
       0.392932         8.97698         8.69908 
       0.408854         8.08637         7.97388 
       0.424564         7.58336         7.33737 
       0.440253         6.95756         6.81111 
       0.455999         6.39885         6.34027 
       0.471626         5.96326         5.89484 
        0.48727         5.65467         5.48606 
       0.502856           5.299         5.12935 
       0.518488         4.87865         4.80752 
       0.534347         4.54692         4.50392 
       0.550082         4.33607         4.22474 
       0.565732           4.125         3.97376 
       0.581496         3.85638         3.74348 
       0.597222         3.63096         3.53111 
       0.612804         3.41572         3.33531 
       0.628434         3.25352         3.15443 
       0.644267         3.08972         2.98576 
       0.660051          2.9258         2.82992 
       0.675724         2.75649         2.68607 
       0.691403          2.6321          2.5521 
       0.707174         2.49937         2.42651 
       0.722871         2.42797         2.30988 
        0.73838         2.26469         2.20217 
       0.754018         2.15998         2.10052 
       0.769845         2.04372          2.0042 
        0.78569          1.9811         1.91385 
       0.801365         1.89605         1.82998 
       0.817031         1.82028         1.75123 
       0.832809         1.72589         1.67664 
       0.848511         1.66437         1.60675 
       0.864097         1.60305         1.54135 
       0.879701         1.55039         1.47954 
       0.895507         1.46947         1.42042 
       0.911279         1.42198         1.36466 
        0.92691         1.37881         1.31237 
       0.942635         1.30633         1.26255 
       0.958396         1.26493         1.21523 
       0.974128         1.22173         1.17042 
       0.989692         1.17325         1.12833 
        1.00528          1.1296         1.08826 
        1.02113         1.09946         1.04951 
        1.03692         1.06805          1.0128 
        1.05264         1.01825        0.978029 
        1.06832        0.988975        0.944949 
        1.08405        0.948998        0.913318 
        1.09979        0.924895        0.883124 
        1.11537        0.890091          0.8546 
        1.13105        0.855666        0.827171 
        1.14679        0.835951        0.800847 
        1.16256        0.809748        0.775622 
        1.17828        0.788943        0.751571 
        1.19395        0.762197        0.728626 
         1.2097         0.73698        0.706527 
        1.22537        0.711819        0.685455 
          1.241        0.693721         0.66531 
        1.25666        0.678791        0.645928 
        1.27241        0.656184         0.62723 
        1.28819        0.633068        0.609244 
        1.30392        0.617996        0.592019 
        1.31957        0.601344        0.575539 
        1.33529        0.581725        0.559628 
        1.35108        0.566644        0.544259 
        1.36674        0.550441        0.529579 
         1.3824        0.540259        0.515455 
        1.39811        0.522235        0.501802 
        1.41389        0.509791        0.488594 
        1.42964        0.496084        0.475884 
        1.44531        0.482558        0.463691 
        1.46101        0.468129          0.4519 
        1.47667         0.45866        0.440556 
        1.49229        0.444551        0.429633 
        1.50793        0.435377         0.41907 
        1.52367        0.422657        0.408795 
        1.53953        0.411503        0.398796 
        1.55526        0.403516        0.389213 
        1.57092         0.39701        0.379986 
        1.58662        0.387605        0.371037 
        1.60235        0.376682        0.362359 
        1.61809        0.366063        0.353956 
        1.63369        0.356301        0.345894 
        1.64941         0.35033        0.338027 
        1.66519        0.343291        0.330377 
        1.68085        0.333282        0.323019 
        1.69652        0.326393        0.315884 
        1.71228        0.318156        0.308924 
        1.72806        0.312359        0.302169 
        1.74368        0.304961        0.295684 
        1.75933         0.29899        0.289378 
        1.77505        0.293214        0.283226 
        1.79081        0.284131        0.277243 
         1.8065        0.280728        0.271458 
        1.82218        0.272702        0.265845 
        1.83797        0.265001        0.260352 
        1.85367        0.262508        0.255045 
        1.86928        0.255834        0.249918 
        1.88497        0.249603        0.244905 
        1.90073        0.245897        0.240011 
        1.91647         0.24051        0.235255 
        1.93218        0.236517        0.230639 
        1.94787        0.230586        0.226153 
        1.96363        0.226386         0.22177 
        1.97935        0.221438        0.217512 
        1.99499        0.217105         0.21339 
        2.01064        0.213156        0.209369 
         2.0264        0.208703        0.205427 
        2.04216        0.203829        0.201589 
        2.05781        0.200545        0.197873 
        2.07353        0.196708        0.194237 
        2.08928         0.19383        0.190686 
        2.10499        0.189001        0.187233 
        2.12065        0.185956        0.183876 
        2.13633        0.182468        0.180598 
        2.15211        0.179208         0.17738 
        2.16785        0.175858        0.174249 
        2.18349        0.172615        0.171213 
        2.19916        0.168712        0.168244 
        2.21489        0.165453        0.165335 
        2.23063        0.163017        0.162493 
         2.2463        0.160119        0.159731 
        2.26194        0.157377         0.15704 
        2.27765         0.15439        0.154398 
        2.29341        0.151566        0.151809 
        2.30914        0.148383        0.149285 
        2.32486        0.146144        0.146821 
        2.34061        0.143581        0.144408 
        2.35635        0.141245        0.142051 
        2.37203        0.139575        0.139755 
        2.38768        0.136874        0.137515 
        2.40339        0.134115        0.135316 
        2.41914        0.132297         0.13316 
        2.43483        0.129796        0.131059 
         2.4505        0.127365        0.129006 
        2.46622         0.12548        0.126991 
        2.48195        0.123233        0.125018 
        2.49759        0.121829        0.123098 
        2.51328        0.118748        0.121214 
        2.52906        0.117306        0.119357 
        2.54479        0.115485        0.117546 
        2.56049        0.113159        0.115776 
        2.57618        0.112018        0.114044 
        2.59189        0.109698        0.112345 
        2.60758        0.108585        0.110684 
        2.62325        0.106545        0.109058 
        2.63898        0.105313        0.107459 
        2.65468        0.102922        0.105895 
        2.67044        0.101592        0.104356 
        2.68618       0.0998628        0.102852 
        2.70184       0.0987478        0.101382 
        2.71755       0.0969109       0.0999385 
        2.73329       0.0957929       0.0985204 
        2.74897       0.0940191       0.0971346 
        2.76462       0.0926745       0.0957785 
        2.78034       0.0912817       0.0944427 
        2.79607       0.0900969       0.0931311 
        2.81179       0.0881358       0.0918459 
        2.82749       0.0872787       0.0905864 
        2.84321       0.0861303       0.0893492 
        2.85893       0.0844194       0.0881355 
        2.87462       0.0837154       0.0869464 
        2.89033        0.082137       0.0857783 
        2.90605       0.0812307       0.0846306 
        2.92176       0.0801513       0.0835045 
        2.93747       0.0787916       0.0823995 
        2.95318       0.0779893       0.0813143 
        2.96891       0.0769505       0.0802481 
        2.98456       0.0759545       0.0792059 
        3.00023       0.0746817       0.0781806 
        3.01596       0.0735552       0.0771704 
        3.03164       0.0724837       0.0761808 
        3.04738       0.0716785       0.0752058 
         3.0631       0.0705661       0.0742482 
        3.07883       0.0696098       0.0733072 
        3.09456       0.0689061       0.0723828 
        3.11026        0.067698       0.0714757 
        3.12596       0.0671494       0.0705842 
        3.14163       0.0662112       0.0697101 
        3.15734       0.0654967       0.0688487 
        3.17308       0.0645485       0.0679998 
        3.18879       0.0637174       0.0671676 
        3.20447       0.0627588       0.0663505 
         3.2202       0.0621359       0.0655445 
         3.2359       0.0613972       0.0647534 
        3.25157       0.0604975       0.0639772 
        3.26729       0.0598201       0.0632114 
        3.28304       0.0593067       0.0624566 
        3.29877       0.0583138       0.0617152 
        3.31446       0.0576725       0.0609874 
        3.33014       0.0572051        0.060272 
        3.34585       0.0562691        0.059567 
        3.36158       0.0556214       0.0588723 
        3.37727       0.0549833       0.0581908 
        3.39294       0.0545194       0.0575208 
        3.40867       0.0538815       0.0568589 
        3.42439       0.0532272       0.0562077 
        3.44008       0.0527409       0.0555681 
        3.45578       0.0523453       0.0549379 
        3.47153       0.0517396       0.0543162 
        3.48724       0.0510659       0.0537051 
        3.50292       0.0506731        0.053105 
        3.51859        0.050021       0.0525142 
        3.53431       0.0495746       0.0519306 
        3.55007       0.0490628       0.0513545 
        3.56577       0.0486943       0.0507894 
        3.58146       0.0480294       0.0502331 
        3.59719       0.0474939       0.0496838 
        3.61292       0.0469802       0.0491429 
        3.62859       0.0466525       0.0486121 
        3.64429       0.0461059       0.0480882 
        3.66003       0.0459413       0.0475704 
        3.67578       0.0453955       0.0470604 
        3.69146       0.0449766       0.0465598 
        3.70712       0.0445877       0.0460674 
        3.72284       0.0440251       0.0455803 
        3.73853       0.0438751       0.0451011 
        3.75422       0.0432722       0.0446286 
        3.76993       0.0429929       0.0441625 
        3.78564       0.0427029       0.0437033 
        3.80137       0.0423426       0.0432498 
        3.81707        0.041708       0.0428037 
        3.83279       0.0415291       0.0423636 
        3.84853         0.04115       0.0419289 
        3.86424       0.0408267       0.0415012 
        3.87992       0.0405448       0.0410801 
        3.89561       0.0400225       0.0406649 
        3.91134       0.0397499       0.0402545 
        3.92704       0.0393145       0.0398502 
        3.94273       0.0389514        0.039452 
        3.95845       0.0386524       0.0390584 
        3.97418       0.0383614       0.0386702 
        3.98988       0.0377147       0.0382877 
        4.00554       0.0375344       0.0379115 
        4.02125       0.0372081       0.0375392 
        4.03698       0.0365471       0.0371714 
        4.05268       0.0362422       0.0368093 
        4.06839       0.0356861       0.0364518 
         4.0841        0.035099       0.0360992 
        4.09983       0.0346041       0.0357507 
        4.11555       0.0341699        0.035407 
        4.13124       0.0336371       0.0350687 
        4.14693       0.0332099       0.0347346 
        4.16266       0.0327258       0.0344041 
        4.17839       0.0323477       0.0340781 
        4.19408       0.0319202        0.033757 
        4.20977       0.0315425       0.0334399 
        4.22551       0.0311396       0.0331262 
        4.24123       0.0307874       0.0328168 
        4.25691       0.0304699       0.0325122 
        4.27259       0.0301398       0.0322114 
        4.28831       0.0299063       0.0319138 
        4.30404       0.0295331       0.0316196 
        4.31974       0.0292325       0.0313298 
        4.33543       0.0290018       0.0310438 
        4.35116       0.0287834       0.0307607 
        4.36688       0.0285104       0.0304813 
        4.38255       0.0282176       0.0302063 
        4.39825       0.0281546       0.0299342 
        4.41398       0.0278115       0.0296648 
         4.4297       0.0277042       0.0293991 
        4.44541       0.0275281       0.0291367 
        4.46111       0.0273478       0.0288777 
        4.47683        0.027245       0.0286216 
        4.49251       0.0271194       0.0283692 
        4.50819       0.0269225       0.0281199 
         4.5239       0.0268115       0.0278732 
        4.53962       0.0268141       0.0276292 
        4.55535       0.0267288        0.027388 
        4.57106       0.0265898         0.02715 
        4.58678        0.026565       0.0269148 
         4.6025        0.026439       0.0266823 
        4.61821       0.0265334       0.0264526 
        4.63391       0.0264453       0.0262259 
         4.6496       0.0263416        0.026002 
        4.66532       0.0264283       0.0257803 
        4.68103       0.0265173       0.0255614 
        4.69673       0.0264628       0.0253451 
        4.71241       0.0264789       0.0251316 
        4.72811        0.026458       0.0249202 
        4.74384       0.0265687        0.024711 
        4.75955       0.0267221       0.0245045 
        4.77525       0.0267795       0.0243005 
        4.79096       0.0268613       0.0240985 
        4.80669        0.027004       0.0238987 
         4.8224       0.0270845       0.0237015 
        4.83809       0.0271394       0.0235067 
        4.85379       0.0274193       0.0233139 
         4.8695       0.0275502       0.0231231 
        4.88521       0.0277301       0.0229346 
        4.90093       0.0279202       0.0227482 
        4.91663       0.0281337       0.0225639 
        4.93234       0.0282009       0.0223816 
        4.94807       0.0285225       0.0222011 
        4.96377       0.0287273       0.0220229 
        4.97943       0.0290818       0.0218471 
        4.99514       0.0292131       0.0216728 
        5.01086       0.0295648       0.0215002 
        5.02654       0.0298408         0.02133 
        5.04227       0.0301109        0.021161 
          5.058        0.030461       0.0209939 
        5.07371       0.0307641       0.0208289 
        5.08942        0.031162       0.0206656 
        5.10513       0.0313981        0.020504 
        5.12084       0.0318794       0.0203442 
        5.13656       0.0322837        0.020186 
        5.15225       0.0327045       0.0200298 
        5.16796       0.0330925        0.019875 
        5.18369       0.0336204       0.0197217 
         5.1994       0.0338932       0.0195703 
        5.21509       0.0345836       0.0194206 
        5.23079       0.0348719       0.0192723 
        5.24649       0.0355109       0.0191257 
        5.26217        0.035976       0.0189807 
        5.27788       0.0367485        0.018837 
        5.29359       0.0372742       0.0186948 
        5.30933       0.0377641       0.0185538 
        5.32504       0.0384199       0.0184145 
        5.34073       0.0388058       0.0182768 
        5.35646       0.0395943       0.0181403 
        5.37218       0.0402645       0.0180051 
        5.38789       0.0409933       0.0178715 
        5.40357       0.0418182       0.0177394 
        5.41929       0.0426591       0.0176083 
        5.43502       0.0434009       0.0174786 
         5.4507       0.0438957       0.0173505 
        5.46639       0.0447029       0.0172236 
        5.48212       0.0455767       0.0170978 
        5.49786       0.0466689        0.016973 
        5.51353       0.0476302       0.0168501 
        5.52921        0.048257       0.0167283 
        5.54495       0.0492392       0.0166073 
        5.56066       0.0503523       0.0164877 
        5.57637       0.0514782       0.0163693 
        5.59207       0.0521549       0.0162521 
        5.60778       0.0531714        0.016136 
        5.62346        0.054266       0.0160213 
        5.63916       0.0556626       0.0159075 
        5.65487       0.0569491       0.0157948 
         5.6706       0.0573202        0.015683 
        5.68633       0.0589616       0.0155723 
        5.70203       0.0601479       0.0154629 
        5.71773       0.0618301       0.0153546 
        5.73344        0.063272       0.0152472 
        5.74916       0.0647762       0.0151408 
        5.76486       0.0660248       0.0150355 
        5.78054       0.0677618       0.0149314 
        5.79626       0.0687083       0.0148279 
          5.812       0.0707205       0.0147254 
         5.8277        0.072084       0.0146241 
        5.84339       0.0735484       0.0145238 
        5.85911        0.075281       0.0144243 
        5.87484       0.0767972       0.0143256 
        5.89053       0.0790353       0.0142281 
        5.90623       0.0809286       0.0141315 
        5.92195       0.0826709       0.0140356 
        5.93767       0.0845769       0.0139406 
        5.95336        0.086258       0.0138467 
        5.96905       0.0890062       0.0137537 
        5.98476       0.0903888       0.0136614 
        6.00048       0.0927702       0.0135699 
        6.01617       0.0952211       0.0134794 
        6.03185       0.0971133       0.0133898 
        6.04756       0.0991673       0.0133008 
        6.06331        0.102126       0.0132125 
        6.07903        0.104111       0.0131251 
        6.09473        0.106455       0.0130386 
        6.11044        0.109567       0.0129528 
        6.12616        0.112153       0.0128678 
        6.14186         0.11467       0.0127836 
        6.15755        0.117432       0.0127002 
        6.17326        0.120685       0.0126175 
        6.18898        0.124024       0.0125354 
        6.20467        0.126398       0.0124543 
        6.22036        0.130566       0.0123738 
         6.2361         0.13192       0.0122939 
         6.2518        0.136848       0.0122148 
        6.26748        0.139024       0.0121366 
        6.28319         0.14225       0.0120588 
        6.29893         0.14738       0.0119817 
        6.31463        0.150332       0.0119053 
        6.33033        0.153355       0.0118297 
        6.34604        0.157944       0.0117546 
        6.36177         0.16136       0.0116802 
        6.37747        0.165054       0.0116065 
