# k  (h/Mpc)    Pcb(k)  (Mpc/h)^3    Pcb_linear(k) (Mpc/h)^3   ShotnoiseSubtracted = true
      0.0200456         1184.58          1200.9 
      0.0350414         773.801         774.685 
      0.0492313         535.114         532.316 
      0.0637834          447.72         444.486 
      0.0800726         345.256         342.618 
       0.096163         234.484         234.369 
       0.111083         185.587         186.465 
       0.126058         169.486         169.081 
       0.142273         141.046         139.501 
       0.158546         108.183         105.978 
        0.17375          90.272         90.2132 
       0.188953         83.8949         83.0631 
       0.204907         74.9402         72.1172 
       0.220756         61.2379         59.5082 
        0.23588         53.4969         52.1123 
         0.2514         48.5224         47.9097 
       0.267535         43.8475         42.8729 
       0.283568         38.4152         37.2174 
       0.299022         34.6078         33.2324 
       0.314451         31.1436         30.5969 
       0.330372         28.7446         27.9128 
       0.346141         25.8859         25.0909 
       0.361624         23.7257         22.7909 
       0.377134          22.152         21.0473 
       0.392932         19.7221         19.4334 
       0.408854         18.7344         17.8133 
       0.424564         17.2636         16.3914 
       0.440253         15.9573         15.2157 
       0.455999         14.9681         14.1639 
       0.471626         14.0246         13.1688 
        0.48727         13.0727         12.2556 
       0.502856         12.1679         11.4588 
       0.518488         11.5834         10.7398 
       0.534347         11.0311         10.0616 
       0.550082         10.0552         9.43789 
       0.565732          9.2804         8.87721 
       0.581496         9.04939         8.36277 
       0.597222         8.63996         7.88835 
       0.612804         8.04484         7.45094 
       0.628434         7.73364         7.04685 
       0.644267         7.36148         6.67006 
       0.660051         6.92591         6.32193 
       0.675724         6.57419         6.00057 
       0.691403         6.33473         5.70128 
       0.707174         5.99693         5.42073 
       0.722871         5.73018         5.16018 
        0.73838         5.48628         4.91955 
       0.754018         5.30623         4.69248 
       0.769845         5.01978          4.4773 
        0.78569         4.83816         4.27547 
       0.801365         4.61712         4.08811 
       0.817031         4.44984         3.91217 
       0.832809         4.28874         3.74554 
       0.848511         4.04842         3.58941 
       0.864097         3.89544          3.4433 
       0.879701         3.76135         3.30523 
       0.895507         3.58954         3.17315 
       0.911279         3.53041         3.04859 
        0.92691          3.3905         2.93179 
       0.942635         3.23799         2.82049 
       0.958396         3.11847         2.71477 
       0.974128         3.02524         2.61468 
       0.989692         2.95452         2.52065 
        1.00528         2.82011         2.43112 
        1.02113         2.71501         2.34456 
        1.03692         2.65921         2.26256 
        1.05264         2.56161         2.18488 
        1.06832         2.49577         2.11098 
        1.08405         2.37312         2.04031 
        1.09979         2.32455         1.97286 
        1.11537         2.25749         1.90914 
        1.13105          2.1956         1.84787 
        1.14679         2.13462         1.78906 
        1.16256         2.05565         1.73271 
        1.17828         2.00725         1.67898 
        1.19395         1.95162         1.62772 
         1.2097         1.86715         1.57835 
        1.22537         1.82391         1.53128 
          1.241         1.78342         1.48627 
        1.25666         1.76549         1.44297 
        1.27241         1.67803         1.40121 
        1.28819         1.64369         1.36103 
        1.30392         1.60993         1.32255 
        1.31957         1.57075         1.28573 
        1.33529         1.51929         1.25019 
        1.35108         1.48384         1.21585 
        1.36674         1.43672         1.18306 
         1.3824         1.40083         1.15151 
        1.39811         1.36677         1.12101 
        1.41389         1.34277          1.0915 
        1.42964         1.31075         1.06311 
        1.44531         1.27712         1.03587 
        1.46101         1.24791         1.00953 
        1.47667         1.20455        0.984183 
        1.49229         1.19406        0.959782 
        1.50793          1.1599        0.936184 
        1.52367         1.13812         0.91323 
        1.53953         1.10161        0.890894 
        1.55526         1.08074        0.869486 
        1.57092         1.05665        0.848872 
        1.58662         1.03733         0.82888 
        1.60235         1.01013        0.809495 
        1.61809        0.986409        0.790722 
        1.63369        0.978087        0.772714 
        1.64941         0.94785        0.755139 
        1.66519        0.930534        0.738049 
        1.68085        0.903221        0.721611 
        1.69652        0.887479        0.705671 
        1.71228        0.874563        0.690123 
        1.72806        0.848806        0.675033 
        1.74368        0.837862        0.660546 
        1.75933        0.816708        0.646457 
        1.77505        0.803408        0.632715 
        1.79081        0.787481        0.619349 
         1.8065        0.766791        0.606427 
        1.82218         0.75765        0.593886 
        1.83797        0.744113        0.581615 
        1.85367        0.734357        0.569759 
        1.86928        0.719031        0.558306 
        1.88497        0.700051        0.547106 
        1.90073        0.683895        0.536173 
        1.91647        0.679219         0.52555 
        1.93218        0.664968        0.515237 
        1.94787        0.650494        0.505217 
        1.96363        0.636836        0.495425 
        1.97935        0.626312        0.485912 
        1.99499        0.615114        0.476704 
        2.01064        0.603127        0.467722 
         2.0264        0.595541        0.458916 
        2.04216        0.584377        0.450341 
        2.05781        0.572528        0.442039 
        2.07353        0.563651        0.433918 
        2.08928        0.551246        0.425984 
        2.10499        0.544168         0.41827 
        2.12065        0.538216         0.41077 
        2.13633        0.528266        0.403449 
        2.15211          0.5177        0.396258 
        2.16785        0.506439        0.389264 
        2.18349        0.500727        0.382483 
        2.19916        0.492136        0.375849 
        2.21489        0.482909        0.369351 
        2.23063        0.474819        0.363003 
         2.2463        0.470766        0.356832 
        2.26194        0.457302        0.350821 
        2.27765        0.451417        0.344918 
        2.29341        0.447012        0.339135 
        2.30914        0.441975        0.333497 
        2.32486        0.433754        0.327991 
        2.34061        0.426297          0.3226 
        2.35635         0.41685        0.317336 
        2.37203        0.412422        0.312207 
        2.38768        0.406517        0.307203 
        2.40339        0.400986         0.30229 
        2.41914         0.39592        0.297473 
        2.43483        0.388264        0.292779 
         2.4505        0.382047        0.288194 
        2.46622        0.376707        0.283692 
        2.48195        0.373251        0.279286 
        2.49759        0.366408        0.274996 
        2.51328        0.359655        0.270787 
        2.52906        0.355364        0.266638 
        2.54479        0.350309        0.262592 
        2.56049        0.344713        0.258639 
        2.57618        0.340693         0.25477 
        2.59189        0.335937        0.250974 
        2.60758        0.332074        0.247262 
        2.62325        0.326699         0.24363 
        2.63898        0.322683        0.240058 
        2.65468        0.317787        0.236565 
        2.67044        0.312777        0.233128 
        2.68618        0.308281        0.229766 
        2.70184        0.304275        0.226484 
        2.71755        0.299918        0.223258 
        2.73329        0.296817         0.22009 
        2.74897        0.292989        0.216995 
        2.76462        0.288493        0.213965 
        2.78034        0.285255        0.210981 
        2.79607        0.281326        0.208051 
        2.81179        0.277773         0.20518 
        2.82749        0.274142        0.202366 
        2.84321        0.271151        0.199602 
        2.85893        0.267371        0.196891 
        2.87462        0.263542        0.194235 
        2.89033        0.260105        0.191625 
        2.90605         0.25767        0.189061 
        2.92176        0.253957        0.186545 
        2.93747        0.250831        0.184077 
        2.95318        0.247841        0.181653 
        2.96891        0.245087        0.179271 
        2.98456        0.242042        0.176943 
        3.00023        0.239396        0.174652 
        3.01596        0.236112        0.172395 
        3.03164        0.234194        0.170185 
        3.04738        0.229894        0.168007 
         3.0631        0.228117        0.165867 
        3.07883        0.224426        0.163765 
        3.09456        0.222409          0.1617 
        3.11026        0.220245        0.159674 
        3.12596        0.217036        0.157682 
        3.14163        0.215103        0.155729 
        3.15734        0.213277        0.153805 
        3.17308        0.210395        0.151909 
        3.18879        0.208405         0.15005 
        3.20447        0.205508        0.148224 
         3.2202         0.20363        0.146424 
         3.2359        0.201513        0.144656 
        3.25157        0.199184        0.142922 
        3.26729        0.197271        0.141212 
        3.28304        0.195418        0.139525 
        3.29877        0.193133        0.137869 
        3.31446        0.191393        0.136243 
        3.33014        0.189436        0.134645 
        3.34585        0.188563         0.13307 
        3.36158        0.185883        0.131518 
        3.37727        0.184381        0.129996 
        3.39294        0.182104        0.128499 
        3.40867        0.180128         0.12702 
        3.42439        0.178924        0.125566 
        3.44008        0.176748        0.124137 
        3.45578        0.175836        0.122729 
        3.47153        0.173731         0.12134 
        3.48724        0.172793        0.119975 
        3.50292        0.171092        0.118634 
        3.51859        0.168707        0.117315 
        3.53431        0.167361        0.116011 
        3.55007        0.166362        0.114724 
        3.56577        0.164519        0.113461 
        3.58146        0.162672        0.112219 
        3.59719        0.161772        0.110991 
        3.61292        0.160556        0.109783 
        3.62859        0.158435        0.108597 
        3.64429        0.157343        0.107427 
        3.66003        0.156343         0.10627 
        3.67578          0.1547        0.105131 
        3.69146         0.15356        0.104013 
        3.70712        0.152446        0.102913 
        3.72284        0.151136        0.101824 
        3.73853        0.150346        0.100754 
        3.75422        0.148769       0.0996984 
        3.76993        0.147588       0.0986572 
        3.78564        0.146098       0.0976312 
        3.80137        0.144945       0.0966182 
        3.81707        0.144079       0.0956217 
        3.83279        0.142964       0.0946384 
        3.84853        0.141533       0.0936674 
        3.86424        0.140387        0.092712 
        3.87992        0.139526       0.0917712 
        3.89561        0.138084       0.0908435 
        3.91134        0.137559       0.0899268 
        3.92704        0.135932       0.0890238 
        3.94273        0.134595        0.088134 
        3.95845        0.133437       0.0872548 
        3.97418        0.132614       0.0863875 
        3.98988        0.131336       0.0855331 
        4.00554        0.130049       0.0846926 
        4.02125        0.128801        0.083861 
        4.03698        0.127618       0.0830393 
        4.05268        0.126295       0.0822305 
        4.06839        0.124585       0.0814318 
         4.0841        0.122981        0.080644 
        4.09983        0.121304       0.0798656 
        4.11555        0.120039       0.0790977 
        4.13124        0.118244       0.0783421 
        4.14693        0.117559       0.0775957 
        4.16266        0.116088       0.0768573 
        4.17839        0.114936       0.0761289 
        4.19408        0.113762       0.0754117 
        4.20977         0.11263       0.0747034 
        4.22551        0.111669       0.0740025 
        4.24123        0.110281       0.0733113 
        4.25691        0.109331       0.0726309 
        4.27259        0.108339       0.0719588 
        4.28831         0.10753        0.071294 
        4.30404        0.106228       0.0706369 
        4.31974        0.105871       0.0699895 
        4.33543        0.104645       0.0693506 
        4.35116        0.103857       0.0687182 
        4.36688        0.102995       0.0680939 
        4.38255         0.10196       0.0674797 
        4.39825        0.101784       0.0668717 
        4.41398        0.100861         0.06627 
         4.4297        0.100286       0.0656764 
        4.44541       0.0996517       0.0650901 
        4.46111       0.0992431       0.0645115 
        4.47683       0.0985573       0.0639395 
        4.49251       0.0979313       0.0633756 
        4.50819       0.0974429       0.0628186 
         4.5239        0.097086       0.0622676 
        4.53962       0.0965815       0.0617224 
        4.55535       0.0961878       0.0611836 
        4.57106       0.0957532       0.0606519 
        4.58678       0.0954244       0.0601265 
         4.6025       0.0951958       0.0596071 
        4.61821       0.0949208        0.059094 
        4.63391       0.0945358       0.0585876 
         4.6496       0.0944995       0.0580874 
        4.66532       0.0942278       0.0575922 
        4.68103       0.0942632        0.057103 
        4.69673       0.0938337         0.05662 
        4.71241       0.0937259        0.056143 
        4.72811       0.0936612       0.0556708 
        4.74384       0.0937746       0.0552033 
        4.75955       0.0939106        0.054742 
        4.77525       0.0939535       0.0542862 
        4.79096       0.0935874        0.053835 
        4.80669       0.0936174       0.0533888 
         4.8224        0.093898       0.0529481 
        4.83809        0.093875       0.0525129 
        4.85379       0.0942305       0.0520822 
         4.8695       0.0941313       0.0516561 
        4.88521       0.0944532       0.0512349 
        4.90093       0.0947991       0.0508184 
        4.91663       0.0950672       0.0504069 
        4.93234       0.0953508       0.0499995 
        4.94807       0.0958026       0.0495963 
        4.96377       0.0961425       0.0491983 
        4.97943       0.0967824       0.0488056 
        4.99514       0.0968645       0.0484161 
        5.01086       0.0978601       0.0480306 
        5.02654       0.0979677       0.0476502 
        5.04227         0.09839       0.0472729 
          5.058       0.0993496       0.0468994 
        5.07371       0.0998094       0.0465308 
        5.08942        0.100483        0.046166 
        5.10513        0.100951       0.0458052 
        5.12084        0.101595        0.045448 
        5.13656        0.102371       0.0450947 
        5.15225        0.103716       0.0447457 
        5.16796        0.104286       0.0443999 
        5.18369        0.104453       0.0440574 
         5.1994        0.105739       0.0437192 
        5.21509        0.106696       0.0433848 
        5.23079        0.108116       0.0430535 
        5.24649        0.108975        0.042726 
        5.26217        0.109802       0.0424021 
        5.27788        0.110796       0.0420811 
        5.29359        0.111688       0.0417633 
        5.30933        0.113394       0.0414484 
        5.32504        0.113972       0.0411373 
        5.34073        0.115451       0.0408297 
        5.35646        0.116661       0.0405246 
        5.37218        0.117516       0.0402226 
        5.38789        0.119113       0.0399241 
        5.40357        0.120501        0.039629 
        5.41929         0.12203       0.0393363 
        5.43502        0.123004       0.0390465 
         5.4507        0.124954       0.0387603 
        5.46639        0.126255       0.0384769 
        5.48212        0.127789       0.0381957 
        5.49786        0.129901        0.037917 
        5.51353        0.131599       0.0376424 
        5.52921        0.132668       0.0373703 
        5.54495        0.134792       0.0371001 
        5.56066        0.136903       0.0368328 
        5.57637        0.138662       0.0365682 
        5.59207        0.140801       0.0363065 
        5.60778        0.142376       0.0360472 
        5.62346         0.14489       0.0357908 
        5.63916        0.146462       0.0355367 
        5.65487        0.148469       0.0352849 
         5.6706        0.150374       0.0350352 
        5.68633        0.153328       0.0347879 
        5.70203        0.155261       0.0345434 
        5.71773        0.157532       0.0343014 
        5.73344        0.159076       0.0340616 
        5.74916         0.16197       0.0338238 
        5.76486        0.164184       0.0335886 
        5.78054        0.167509        0.033356 
        5.79626        0.168946        0.033125 
          5.812        0.171453       0.0328959 
         5.8277        0.174482       0.0326697 
        5.84339        0.177521       0.0324456 
        5.85911        0.180408       0.0322232 
        5.87484        0.181647       0.0320029 
        5.89053        0.185353       0.0317851 
        5.90623        0.187862       0.0315692 
        5.92195        0.190519        0.031355 
        5.93767        0.193737       0.0311428 
        5.95336        0.196796        0.030933 
        5.96905        0.200295       0.0307252 
        5.98476        0.202438        0.030519 
        6.00048        0.205942       0.0303146 
        6.01617        0.209431       0.0301124 
        6.03185        0.211466       0.0299123 
        6.04756        0.215242       0.0297135 
        6.06331        0.218168       0.0295161 
        6.07903        0.220767       0.0293209 
        6.09473        0.225177       0.0291276 
        6.11044        0.228425        0.028936 
        6.12616        0.231414        0.028746 
        6.14186        0.235412        0.028558 
        6.15755        0.238068       0.0283717 
        6.17326         0.24274       0.0281869 
        6.18898        0.245904       0.0280036 
        6.20467        0.250107       0.0278223 
        6.22036        0.252185       0.0276426 
         6.2361         0.25585       0.0274641 
         6.2518        0.260182       0.0272874 
        6.26748        0.262419       0.0271126 
        6.28319        0.266235       0.0269389 
        6.29893         0.27078       0.0267665 
        6.31463        0.276073        0.026596 
        6.33033        0.278413        0.026427 
        6.34604        0.281435       0.0262594 
        6.36177        0.286724        0.026093 
        6.37747        0.289876       0.0259284 
