# k  (h/Mpc)    Pcb(k)  (Mpc/h)^3    Pcb_linear(k) (Mpc/h)^3   ShotnoiseSubtracted = true
      0.0200456         10616.3         10768.3 
      0.0350414         7173.49         6946.47 
      0.0492313         4759.79         4773.18 
      0.0637834         3865.28         3985.63 
      0.0800726         2966.71         3072.19 
       0.096163         2204.85         2101.55 
       0.111083         1776.09            1672 
       0.126058            1510         1516.12 
       0.142273         1270.49         1250.88 
       0.158546         1011.93         950.285 
        0.17375         882.821         808.926 
       0.188953         820.565         744.813 
       0.204907         690.042         646.662 
       0.220756         609.007           533.6 
        0.23588         539.828         467.282 
         0.2514         483.421         429.598 
       0.267535         463.676         384.434 
       0.283568         400.868         333.722 
       0.299022         379.601          297.99 
       0.314451         377.044         274.357 
       0.330372         323.154         250.289 
       0.346141         298.099         224.986 
       0.361624         282.158         204.362 
       0.377134         260.656         188.727 
       0.392932         252.258         174.256 
       0.408854         239.122         159.729 
       0.424564         228.958         146.979 
       0.440253         206.453         136.437 
       0.455999         194.718         127.005 
       0.471626         192.528         118.083 
        0.48727         183.072         109.894 
       0.502856         166.915         102.749 
       0.518488         166.373          96.302 
       0.534347         154.565         90.2203 
       0.550082         150.586          84.628 
       0.565732         148.566         79.6004 
       0.581496         137.241         74.9875 
       0.597222         133.996         70.7335 
       0.612804         129.049         66.8113 
       0.628434         125.588         63.1879 
       0.644267         118.973         59.8093 
       0.660051         116.015         56.6876 
       0.675724         113.876          53.806 
       0.691403          111.17         51.1224 
       0.707174         106.893         48.6067 
       0.722871         104.977         46.2704 
        0.73838         102.976         44.1128 
       0.754018         96.5872         42.0767 
       0.769845         96.2533         40.1472 
        0.78569         93.4473         38.3374 
       0.801365         90.0559         36.6574 
       0.817031         87.5167         35.0798 
       0.832809         85.8431         33.5856 
       0.848511         83.7804         32.1856 
       0.864097         82.2295         30.8755 
       0.879701         80.7442         29.6374 
       0.895507         77.8914         28.4531 
       0.911279         76.1558         27.3362 
        0.92691         74.5195         26.2888 
       0.942635         72.5232         25.2909 
       0.958396          72.422         24.3428 
       0.974128         70.6927         23.4454 
       0.989692         68.8378         22.6022 
        1.00528         67.6176         21.7995 
        1.02113         65.9596         21.0233 
        1.03692         65.8266          20.288 
        1.05264         64.7409         19.5914 
        1.06832         62.6142         18.9288 
        1.08405         61.8152         18.2951 
        1.09979         61.2128         17.6903 
        1.11537         59.6069         17.1189 
        1.13105         58.4464         16.5695 
        1.14679         57.7792         16.0422 
        1.16256         56.6618         15.5369 
        1.17828         56.1943         15.0551 
        1.19395         54.7516         14.5955 
         1.2097         54.5893         14.1528 
        1.22537         53.2165         13.7307 
          1.241         53.1279         13.3272 
        1.25666         51.1626         12.9389 
        1.27241         51.0936         12.5644 
        1.28819         50.5127         12.2041 
        1.30392         49.4032          11.859 
        1.31957         49.1756         11.5289 
        1.33529         48.3811         11.2102 
        1.35108          47.832         10.9023 
        1.36674         46.8573         10.6083 
         1.3824         46.2541         10.3254 
        1.39811         45.4354         10.0519 
        1.41389         44.8721         9.78727 
        1.42964         44.4455         9.53268 
        1.44531         43.8012         9.28843 
        1.46101         43.3705         9.05224 
        1.47667         42.7173           8.825 
        1.49229         42.0223          8.6062 
        1.50793         41.6435          8.3946 
        1.52367         41.3159         8.18877 
        1.53953         40.7625         7.98849 
        1.55526         39.9274         7.79653 
        1.57092         39.8365         7.61169 
        1.58662         39.2853         7.43242 
        1.60235         38.7191          7.2586 
        1.61809         38.1677         7.09027 
        1.63369         37.6255         6.92879 
        1.64941         37.2814          6.7712 
        1.66519         36.6985         6.61796 
        1.68085         36.2937         6.47056 
        1.69652         35.7963         6.32763 
        1.71228         35.5443         6.18821 
        1.72806         35.1782          6.0529 
        1.74368           34.53         5.92301 
        1.75933         34.4635         5.79667 
        1.77505          33.951         5.67344 
        1.79081          33.656         5.55359 
         1.8065         33.2727         5.43772 
        1.82218         32.5307         5.32527 
        1.83797         32.3068         5.21524 
        1.85367         32.0262         5.10893 
        1.86928         31.8562         5.00624 
        1.88497         31.3046         4.90581 
        1.90073         31.0763         4.80777 
        1.91647         30.8977         4.71251 
        1.93218         30.6058         4.62004 
        1.94787         30.1749         4.53019 
        1.96363         29.7288         4.44239 
        1.97935         29.5037         4.35709 
        1.99499         29.2226         4.27453 
        2.01064         28.7366         4.19398 
         2.0264         28.6588         4.11502 
        2.04216         28.4103         4.03813 
        2.05781         28.0995         3.96369 
        2.07353         27.6659         3.89087 
        2.08928         27.5917         3.81973 
        2.10499         27.2339         3.75055 
        2.12065           26.87         3.68331 
        2.13633         26.7705         3.61765 
        2.15211         26.3273         3.55318 
        2.16785         26.0275         3.49046 
        2.18349         25.8363         3.42966 
        2.19916         25.5959         3.37017 
        2.21489         25.4015         3.31191 
        2.23063         25.1082         3.25498 
         2.2463         24.9529         3.19965 
        2.26194         24.6032         3.14575 
        2.27765         24.3831         3.09282 
        2.29341         24.0717         3.04097 
        2.30914         23.8473         2.99041 
        2.32486         23.6865         2.94104 
        2.34061         23.4378          2.8927 
        2.35635         23.1629          2.8455 
        2.37203         23.0404         2.79951 
        2.38768         22.7929         2.75463 
        2.40339         22.5717         2.71058 
        2.41914         22.4162         2.66739 
        2.43483         22.2711          2.6253 
         2.4505         21.9418         2.58419 
        2.46622         21.6877         2.54382 
        2.48195         21.5384         2.50431 
        2.49759         21.2673         2.46585 
        2.51328         21.0662          2.4281 
        2.52906         20.8974          2.3909 
        2.54479         20.7877         2.35462 
        2.56049         20.5991         2.31917 
        2.57618         20.3958         2.28448 
        2.59189         20.1583         2.25044 
        2.60758         19.9779         2.21716 
        2.62325         19.7417         2.18459 
        2.63898         19.7094         2.15256 
        2.65468         19.4843         2.12124 
        2.67044         19.2818         2.09041 
        2.68618         19.0236         2.06027 
        2.70184         18.8754         2.03084 
        2.71755         18.6679         2.00192 
        2.73329         18.5134         1.97351 
        2.74897         18.4141         1.94575 
        2.76462         18.2557         1.91859 
        2.78034         17.9883         1.89183 
        2.79607         17.8835         1.86556 
        2.81179         17.7089         1.83981 
        2.82749          17.511         1.81458 
        2.84321         17.4085          1.7898 
        2.85893         17.2581         1.76549 
        2.87462         17.0874         1.74167 
        2.89033         16.9448         1.71827 
        2.90605         16.7532         1.69528 
        2.92176          16.565         1.67272 
        2.93747          16.506         1.65059 
        2.95318         16.3832         1.62885 
        2.96891         16.1316         1.60749 
        2.98456          16.074         1.58661 
        3.00023         15.9179         1.56608 
        3.01596         15.6909         1.54584 
        3.03164         15.6396         1.52602 
        3.04738         15.5387         1.50649 
         3.0631         15.3715          1.4873 
        3.07883         15.2378         1.46845 
        3.09456         15.0917         1.44994 
        3.11026         14.9796         1.43177 
        3.12596         14.7906         1.41391 
        3.14163         14.7015          1.3964 
        3.15734         14.6156         1.37914 
        3.17308         14.4327         1.36214 
        3.18879         14.2936         1.34547 
        3.20447         14.2392          1.3291 
         3.2202         14.0678         1.31296 
         3.2359         13.9405         1.29711 
        3.25157         13.8445         1.28156 
        3.26729         13.7496         1.26622 
        3.28304         13.6491          1.2511 
        3.29877          13.545         1.23625 
        3.31446         13.4201         1.22167 
        3.33014         13.2593         1.20734 
        3.34585         13.2194         1.19322 
        3.36158           13.08          1.1793 
        3.37727         12.9772         1.16565 
        3.39294         12.8597         1.15223 
        3.40867         12.7301         1.13897 
        3.42439         12.6295         1.12593 
        3.44008         12.5286         1.11311 
        3.45578         12.4163         1.10049 
        3.47153         12.3304         1.08804 
        3.48724         12.2403          1.0758 
        3.50292         12.1505         1.06377 
        3.51859         12.0125         1.05194 
        3.53431         11.9441         1.04025 
        3.55007         11.8513         1.02871 
        3.56577          11.728         1.01739 
        3.58146         11.6271         1.00624 
        3.59719         11.5519        0.995241 
        3.61292         11.4614        0.984407 
        3.62859         11.3283        0.973775 
        3.64429         11.2758        0.963279 
        3.66003         11.1467        0.952906 
        3.67578         11.1011         0.94269 
        3.69146          10.997        0.932663 
        3.70712         10.8661        0.922799 
        3.72284         10.8097        0.913042 
        3.73853         10.7278        0.903443 
        3.75422         10.6132        0.893979 
        3.76993         10.5305        0.884642 
        3.78564         10.4675        0.875442 
        3.80137         10.3911        0.866359 
        3.81707         10.2792        0.857423 
        3.83279         10.2239        0.848606 
        3.84853         10.1382          0.8399 
        3.86424         10.0341        0.831332 
        3.87992         9.96204        0.822897 
        3.89561         9.88186        0.814578 
        3.91134         9.80531        0.806358 
        3.92704         9.73884        0.798261 
        3.94273         9.68089        0.790283 
        3.95845         9.56876        0.782399 
        3.97418         9.49742        0.774622 
        3.98988          9.4317         0.76696 
        4.00554          9.3565        0.759424 
        4.02125         9.29908        0.751967 
        4.03698         9.20837        0.744599 
        4.05268         9.15811        0.737346 
        4.06839         9.05859        0.730185 
         4.0841          9.0031        0.723121 
        4.09983         8.91091        0.716141 
        4.11555          8.8638        0.709256 
        4.13124          8.7696         0.70248 
        4.14693         8.71487        0.695787 
        4.16266         8.63158        0.689166 
        4.17839         8.56793        0.682635 
        4.19408         8.51419        0.676204 
        4.20977           8.414        0.669852 
        4.22551          8.3846        0.663568 
        4.24123         8.31149         0.65737 
        4.25691         8.23298        0.651269 
        4.27259         8.17166        0.645243 
        4.28831         8.10785        0.639281 
        4.30404         8.04692        0.633389 
        4.31974         8.00451        0.627584 
        4.33543         7.91445        0.621855 
        4.35116           7.867        0.616184 
        4.36688         7.80858        0.610586 
        4.38255          7.7496        0.605078 
        4.39825         7.67012        0.599627 
        4.41398         7.62778        0.594232 
         4.4297          7.5688        0.588909 
        4.44541         7.51262        0.583652 
        4.46111         7.44173        0.578464 
        4.47683         7.39502        0.573334 
        4.49251         7.35934        0.568278 
        4.50819         7.27128        0.563284 
         4.5239         7.22742        0.558342 
        4.53962          7.1739        0.553454 
        4.55535         7.13227        0.548623 
        4.57106         7.07887        0.543855 
        4.58678         7.02042        0.539144 
         4.6025         6.96136        0.534487 
        4.61821          6.9024        0.529886 
        4.63391         6.85737        0.525345 
         4.6496         6.82109        0.520859 
        4.66532         6.78348        0.516419 
        4.68103         6.71295        0.512033 
        4.69673          6.6679        0.507702 
        4.71241         6.61551        0.503425 
        4.72811         6.55921         0.49919 
        4.74384         6.52052        0.494999 
        4.75955         6.48827        0.490862 
        4.77525         6.44259        0.486775 
        4.79096         6.39682        0.482729 
        4.80669         6.34392        0.478728 
         4.8224         6.30657        0.474776 
        4.83809         6.25549        0.470874 
        4.85379         6.21798        0.467013 
         4.8695         6.17414        0.463191 
        4.88521         6.13294        0.459415 
        4.90093         6.08678         0.45568 
        4.91663         6.03333         0.45199 
        4.93234          5.9941        0.448337 
        4.94807         5.95294        0.444721 
        4.96377         5.89636        0.441153 
        4.97943         5.87347        0.437631 
        4.99514         5.82406        0.434139 
        5.01086         5.77185        0.430682 
        5.02654         5.74464        0.427271 
        5.04227         5.69586        0.423888 
          5.058         5.65958        0.420539 
        5.07371         5.63474        0.417234 
        5.08942         5.57808        0.413963 
        5.10513         5.54356        0.410727 
        5.12084         5.50334        0.407524 
        5.13656         5.45754        0.404356 
        5.15225         5.42404        0.401227 
        5.16796         5.39067        0.398126 
        5.18369         5.34419        0.395055 
         5.1994         5.32206        0.392023 
        5.21509         5.28337        0.389024 
        5.23079         5.23809        0.386054 
        5.24649         5.19728        0.383117 
        5.26217         5.16858        0.380212 
        5.27788         5.13304        0.377334 
        5.29359         5.09905        0.374485 
        5.30933         5.05978        0.371661 
        5.32504         5.03982        0.368871 
        5.34073         4.99644        0.366112 
        5.35646         4.96062        0.363377 
        5.37218         4.93683        0.360669 
        5.38789         4.90693        0.357993 
        5.40357         4.86275        0.355347 
        5.41929         4.82618        0.352722 
        5.43502         4.80119        0.350123 
         5.4507          4.7582        0.347557 
        5.46639         4.72846        0.345016 
        5.48212         4.70557        0.342494 
        5.49786         4.67458        0.339995 
        5.51353         4.64715        0.337533 
        5.52921         4.61055        0.335093 
        5.54495         4.58631         0.33267 
        5.56066         4.56028        0.330273 
        5.57637         4.53234        0.327901 
        5.59207          4.4881        0.325554 
        5.60778         4.46278        0.323229 
        5.62346         4.43355         0.32093 
        5.63916         4.40597        0.318651 
        5.65487         4.37439        0.316393 
         5.6706         4.35077        0.314155 
        5.68633         4.31638        0.311937 
        5.70203         4.30236        0.309745 
        5.71773         4.26455        0.307575 
        5.73344         4.23548        0.305424 
        5.74916         4.21744        0.303292 
        5.76486         4.18318        0.301183 
        5.78054         4.15989        0.299098 
        5.79626         4.13658        0.297026 
          5.812         4.10852        0.294972 
         5.8277         4.07974        0.292944 
        5.84339         4.05634        0.290934 
        5.85911          4.0269         0.28894 
        5.87484         4.00281        0.286964 
        5.89053          3.9761        0.285011 
        5.90623         3.95773        0.283076 
        5.92195         3.93959        0.281154 
        5.93767         3.90724        0.279252 
        5.95336          3.8887        0.277371 
        5.96905         3.86491        0.275507 
        5.98476         3.83887        0.273659 
        6.00048          3.8143        0.271826 
        6.01617         3.78586        0.270013 
        6.03185         3.76363        0.268218 
        6.04756         3.73608        0.266436 
        6.06331         3.71457        0.264666 
        6.07903         3.69918        0.262915 
        6.09473         3.68267        0.261182 
        6.11044         3.64983        0.259464 
        6.12616          3.6317        0.257761 
        6.14186         3.60661        0.256075 
        6.15755         3.58576        0.254404 
        6.17326         3.57075        0.252747 
        6.18898          3.5396        0.251103 
        6.20467         3.52435        0.249478 
        6.22036         3.50583        0.247867 
         6.2361         3.47223        0.246265 
         6.2518          3.4627        0.244681 
        6.26748         3.43943        0.243114 
        6.28319         3.40835        0.241556 
        6.29893         3.40163        0.240011 
        6.31463         3.37938        0.238482 
        6.33033         3.35947        0.236966 
        6.34604          3.3393        0.235463 
        6.36177         3.31384        0.233972 
        6.37747         3.30781        0.232496 
