# k  (h/Mpc)    Pcb(k)  (Mpc/h)^3    Pcb_linear(k) (Mpc/h)^3   ShotnoiseSubtracted = true
      0.0200456         13561.5         13764.3 
      0.0350414         9191.68         8879.16 
      0.0492313         6068.54         6101.21 
      0.0637834         4920.85         5094.54 
      0.0800726         3774.17         3926.96 
       0.096163         2832.75         2686.25 
       0.111083         2284.64          2137.2 
       0.126058         1932.47         1937.94 
       0.142273         1635.53         1598.91 
       0.158546         1306.81         1214.68 
        0.17375         1145.45         1033.99 
       0.188953         1070.94         952.039 
       0.204907         903.193         826.581 
       0.220756         800.846         682.062 
        0.23588         711.417         597.293 
         0.2514         636.304         549.124 
       0.267535         613.996         491.394 
       0.283568         532.738         426.572 
       0.299022         506.437         380.898 
       0.314451         511.163         350.691 
       0.330372         436.837         319.926 
       0.346141          403.28         287.583 
       0.361624         383.709         261.221 
       0.377134         358.104         241.236 
       0.392932         345.493         222.738 
       0.408854         328.716          204.17 
       0.424564         316.754         187.872 
       0.440253         285.954         174.397 
       0.455999         272.069         162.341 
       0.471626         272.387         150.936 
        0.48727         257.375          140.47 
       0.502856         236.227         131.336 
       0.518488          236.43         123.096 
       0.534347         219.831         115.322 
       0.550082         212.817         108.174 
       0.565732         211.503         101.747 
       0.581496         198.856          95.851 
       0.597222         193.387         90.4134 
       0.612804         187.011            85.4 
       0.628434         181.256         80.7685 
       0.644267         172.515         76.4498 
       0.660051         169.529         72.4596 
       0.675724         166.491         68.7763 
       0.691403         162.612          65.346 
       0.707174         156.467         62.1304 
       0.722871         153.726         59.1441 
        0.73838         152.073         56.3862 
       0.754018         143.784         53.7835 
       0.769845         143.734         51.3172 
        0.78569          139.31         49.0038 
       0.801365         134.691         46.8564 
       0.817031         132.053         44.8399 
       0.832809          129.38           42.93 
       0.848511         126.125         41.1405 
       0.864097         123.488         39.4659 
       0.879701         122.194         37.8834 
       0.895507         119.003         36.3695 
       0.911279         115.636         34.9419 
        0.92691         113.406         33.6031 
       0.942635         111.219         32.3275 
       0.958396         109.908         31.1157 
       0.974128         107.703         29.9685 
       0.989692         104.499         28.8907 
        1.00528         103.576         27.8646 
        1.02113         100.909         26.8725 
        1.03692         100.097         25.9327 
        1.05264         98.8838         25.0423 
        1.06832         96.4389         24.1952 
        1.08405         94.8489         23.3853 
        1.09979         94.1752         22.6122 
        1.11537          91.821         21.8819 
        1.13105         90.5671         21.1796 
        1.14679         89.2223         20.5055 
        1.16256         87.3482         19.8597 
        1.17828          86.614         19.2438 
        1.19395         84.7521         18.6563 
         1.2097         83.8048         18.0905 
        1.22537         82.4258         17.5509 
          1.241          81.674         17.0351 
        1.25666         79.3672         16.5389 
        1.27241         78.4192         16.0601 
        1.28819         77.8619         15.5996 
        1.30392          76.604         15.1585 
        1.31957          75.597         14.7366 
        1.33529         74.4488         14.3292 
        1.35108         73.9578         13.9356 
        1.36674         72.6407         13.5598 
         1.3824         72.1082         13.1981 
        1.39811         70.5303         12.8486 
        1.41389         69.5201         12.5103 
        1.42964         68.4367         12.1849 
        1.44531         68.0355         11.8727 
        1.46101         67.2665         11.5708 
        1.47667         66.4094         11.2804 
        1.49229         65.5311         11.0007 
        1.50793         64.6161         10.7302 
        1.52367         64.1291         10.4671 
        1.53953         63.3662         10.2111 
        1.55526         62.0256         9.96573 
        1.57092          61.883         9.72946 
        1.58662         61.1475         9.50032 
        1.60235         60.3714         9.27814 
        1.61809         59.1803         9.06297 
        1.63369         58.7111         8.85656 
        1.64941         58.3877         8.65513 
        1.66519         57.1203         8.45925 
        1.68085         56.3632         8.27085 
        1.69652         55.5962         8.08814 
        1.71228         55.0237         7.90994 
        1.72806         54.8418         7.73698 
        1.74368         53.8236         7.57094 
        1.75933         53.4195         7.40946 
        1.77505         52.8356         7.25195 
        1.79081         52.0744         7.09875 
         1.8065         51.7662         6.95064 
        1.82218         50.7167         6.80691 
        1.83797         50.1201         6.66626 
        1.85367         49.7108         6.53037 
        1.86928         49.1814          6.3991 
        1.88497         48.6161         6.27074 
        1.90073          47.919         6.14543 
        1.91647         47.7344         6.02366 
        1.93218          47.061         5.90546 
        1.94787         46.4824         5.79062 
        1.96363         45.9734         5.67838 
        1.97935         45.4161         5.56935 
        1.99499         44.9009         5.46381 
        2.01064         44.3697         5.36086 
         2.0264         44.1245         5.25992 
        2.04216         43.4171         5.16164 
        2.05781         42.9352          5.0665 
        2.07353         42.3912         4.97341 
        2.08928         42.1412         4.88248 
        2.10499         41.6502         4.79406 
        2.12065          41.241          4.7081 
        2.13633         40.8963         4.62418 
        2.15211         40.4178         4.54177 
        2.16785         39.6956          4.4616 
        2.18349         39.3304         4.38388 
        2.19916         39.0176         4.30785 
        2.21489         38.7744         4.23337 
        2.23063         38.3047          4.1606 
         2.2463         37.8079         4.08988 
        2.26194         37.5334         4.02098 
        2.27765         37.0532         3.95332 
        2.29341         36.5508         3.88704 
        2.30914         36.1048         3.82243 
        2.32486         35.8497         3.75932 
        2.34061          35.506         3.69753 
        2.35635         35.0839         3.63719 
        2.37203         34.6129         3.57841 
        2.38768         34.5623         3.52105 
        2.40339         34.0952         3.46474 
        2.41914         33.8837         3.40953 
        2.43483         33.3112         3.35573 
         2.4505         33.2196         3.30318 
        2.46622         32.7482         3.25157 
        2.48195         32.4422         3.20107 
        2.49759         32.1139         3.15191 
        2.51328         31.7838         3.10366 
        2.52906         31.4988         3.05611 
        2.54479         31.3638         3.00974 
        2.56049         30.7823         2.96442 
        2.57618         30.6007         2.92008 
        2.59189         30.3727         2.87658 
        2.60758         29.8375         2.83403 
        2.62325         29.8846          2.7924 
        2.63898         29.4102         2.75146 
        2.65468         29.0085         2.71143 
        2.67044         28.9919         2.67202 
        2.68618         28.6132         2.63349 
        2.70184         28.2728         2.59588 
        2.71755         28.0205         2.55891 
        2.73329         27.7969          2.5226 
        2.74897         27.4958         2.48711 
        2.76462         27.1649         2.45239 
        2.78034         27.0439         2.41819 
        2.79607         26.7399          2.3846 
        2.81179         26.4226          2.3517 
        2.82749         26.2585         2.31945 
        2.84321         25.9441         2.28777 
        2.85893          25.689         2.25669 
        2.87462         25.4889         2.22625 
        2.89033         25.2419         2.19634 
        2.90605          25.019         2.16695 
        2.92176         24.8739         2.13812 
        2.93747         24.5914         2.10982 
        2.95318         24.4053         2.08204 
        2.96891         24.1324         2.05474 
        2.98456         23.9504         2.02805 
        3.00023         23.6583          2.0018 
        3.01596         23.3863         1.97593 
        3.03164         23.1909          1.9506 
        3.04738         23.0173         1.92563 
         3.0631         22.8322         1.90111 
        3.07883         22.4944         1.87702 
        3.09456         22.3068         1.85335 
        3.11026         22.0722         1.83012 
        3.12596         21.9238          1.8073 
        3.14163         21.7284         1.78491 
        3.15734         21.5671         1.76286 
        3.17308          21.286         1.74112 
        3.18879          21.182         1.71981 
        3.20447         20.9991         1.69889 
         3.2202          20.723         1.67826 
         3.2359         20.5244           1.658 
        3.25157         20.3564         1.63812 
        3.26729         20.2906         1.61852 
        3.28304         20.0016         1.59919 
        3.29877         19.8608         1.58021 
        3.31446         19.7021         1.56157 
        3.33014          19.447         1.54325 
        3.34585         19.3057          1.5252 
        3.36158         19.1035         1.50741 
        3.37727           18.96         1.48996 
        3.39294         18.8439         1.47281 
        3.40867         18.6344         1.45586 
        3.42439          18.465         1.43919 
        3.44008         18.2676         1.42281 
        3.45578         18.1495         1.40668 
        3.47153         17.9925         1.39076 
        3.48724         17.8579         1.37511 
        3.50292         17.6673         1.35974 
        3.51859         17.5243         1.34462 
        3.53431         17.3765         1.32967 
        3.55007         17.2303         1.31492 
        3.56577         17.0357         1.30045 
        3.58146            16.9         1.28621 
        3.59719         16.7681         1.27214 
        3.61292         16.6565          1.2583 
        3.62859         16.4266          1.2447 
        3.64429         16.2799         1.23129 
        3.66003         16.2339         1.21803 
        3.67578         16.0613         1.20497 
        3.69146         15.9769         1.19215 
        3.70712         15.7695         1.17955 
        3.72284         15.6203         1.16708 
        3.73853         15.5223         1.15481 
        3.75422         15.3814         1.14271 
        3.76993         15.2356         1.13077 
        3.78564         15.1307         1.11901 
        3.80137         14.9873          1.1074 
        3.81707         14.8501         1.09598 
        3.83279         14.7469         1.08471 
        3.84853         14.5691         1.07358 
        3.86424         14.5041         1.06263 
        3.87992         14.3957         1.05185 
        3.89561         14.2307         1.04122 
        3.91134         14.1807         1.03071 
        3.92704         14.0681         1.02036 
        3.94273         13.8835         1.01016 
        3.95845         13.7847         1.00008 
        3.97418         13.6717        0.990142 
        3.98988         13.5636        0.980349 
        4.00554         13.4266        0.970716 
        4.02125          13.321        0.961184 
        4.03698          13.211        0.951766 
        4.05268         13.1091        0.942496 
        4.06839         12.9741        0.933342 
         4.0841         12.9063        0.924313 
        4.09983         12.7946         0.91539 
        4.11555         12.6797         0.90659 
        4.13124         12.5698        0.897929 
        4.14693         12.5032        0.889373 
        4.16266         12.4108         0.88091 
        4.17839          12.281        0.872562 
        4.19408         12.1605        0.864342 
        4.20977         12.0918        0.856223 
        4.22551         11.9705         0.84819 
        4.24123         11.8516        0.840268 
        4.25691         11.7735        0.832469 
        4.27259         11.6824        0.824766 
        4.28831         11.6156        0.817146 
        4.30404         11.4863        0.809614 
        4.31974         11.4258        0.802195 
        4.33543         11.2991        0.794872 
        4.35116         11.2162        0.787623 
        4.36688         11.0991        0.780467 
        4.38255         11.0325        0.773428 
        4.39825         10.9786        0.766459 
        4.41398         10.8517        0.759563 
         4.4297         10.7664        0.752759 
        4.44541          10.693         0.74604 
        4.46111         10.6083        0.739408 
        4.47683         10.4995        0.732851 
        4.49251         10.4175        0.726388 
        4.50819         10.3456        0.720004 
         4.5239         10.2601        0.713688 
        4.53962         10.1866         0.70744 
        4.55535         10.1283        0.701264 
        4.57106         10.0518         0.69517 
        4.58678         9.95563        0.689148 
         4.6025         9.88311        0.683196 
        4.61821         9.81267        0.677315 
        4.63391         9.74251         0.67151 
         4.6496         9.64503        0.665777 
        4.66532          9.5937        0.660101 
        4.68103          9.5103        0.654494 
        4.69673         9.43989        0.648958 
        4.71241         9.35826        0.643491 
        4.72811         9.30005        0.638078 
        4.74384         9.21472        0.632721 
        4.75955         9.14228        0.627433 
        4.77525         9.08569        0.622209 
        4.79096         9.01437        0.617038 
        4.80669         8.95566        0.611923 
         4.8224         8.88448        0.606872 
        4.83809         8.81597        0.601883 
        4.85379         8.73774        0.596948 
         4.8695         8.67746        0.592064 
        4.88521         8.60302        0.587236 
        4.90093         8.56515        0.582462 
        4.91663         8.46901        0.577745 
        4.93234         8.44472        0.573076 
        4.94807         8.34682        0.568455 
        4.96377         8.29314        0.563893 
        4.97943         8.22467        0.559392 
        4.99514         8.18379        0.554928 
        5.01086         8.11063        0.550509 
        5.02654         8.04988        0.546149 
        5.04227         7.99587        0.541825 
          5.058         7.94692        0.537544 
        5.07371         7.87377        0.533319 
        5.08942         7.82799        0.529138 
        5.10513         7.77588        0.525002 
        5.12084         7.69594        0.520908 
        5.13656         7.65625        0.516859 
        5.15225         7.59918        0.512859 
        5.16796         7.54856        0.508896 
        5.18369         7.48659         0.50497 
         5.1994         7.43948        0.501094 
        5.21509         7.38631        0.497261 
        5.23079         7.32913        0.493464 
        5.24649         7.28862         0.48971 
        5.26217         7.22065        0.485997 
        5.27788         7.18363        0.482318 
        5.29359         7.11039        0.478676 
        5.30933         7.08146        0.475067 
        5.32504         7.02596          0.4715 
        5.34073         6.97578        0.467975 
        5.35646         6.91809        0.464478 
        5.37218         6.87367        0.461017 
        5.38789          6.8395        0.457596 
        5.40357         6.78076        0.454214 
        5.41929           6.733        0.450858 
        5.43502         6.68734        0.447537 
         5.4507         6.64639        0.444256 
        5.46639         6.58281        0.441008 
        5.48212         6.54601        0.437785 
        5.49786         6.49691        0.434591 
        5.51353         6.46633        0.431444 
        5.52921         6.42661        0.428325 
        5.54495         6.38982        0.425228 
        5.56066         6.31679        0.422164 
        5.57637         6.28179        0.419132 
        5.59207         6.24203        0.416132 
        5.60778         6.19239         0.41316 
        5.62346         6.15447        0.410221 
        5.63916          6.1086        0.407308 
        5.65487         6.08863        0.404422 
         5.6706          6.0289        0.401561 
        5.68633         5.99886        0.398726 
        5.70203         5.94983        0.395925 
        5.71773         5.92029         0.39315 
        5.73344         5.86847        0.390401 
        5.74916         5.81567        0.387676 
        5.76486         5.79812        0.384981 
        5.78054         5.75955        0.382315 
        5.79626         5.71987        0.379667 
          5.812         5.67256        0.377041 
         5.8277         5.64206        0.374448 
        5.84339         5.61112         0.37188 
        5.85911         5.56561         0.36933 
        5.87484         5.53037        0.366805 
        5.89053         5.49434        0.364309 
        5.90623         5.45916        0.361835 
        5.92195          5.4276        0.359379 
        5.93767         5.38106        0.356948 
        5.95336         5.34559        0.354543 
        5.96905         5.32238        0.352161 
        5.98476          5.2809        0.349798 
        6.00048         5.24227        0.347455 
        6.01617         5.21733        0.345137 
        6.03185          5.1843        0.342844 
        6.04756         5.14788        0.340565 
        6.06331         5.11341        0.338303 
        6.07903         5.07981        0.336065 
        6.09473         5.05035         0.33385 
        6.11044         5.01677        0.331653 
        6.12616         4.97866        0.329477 
        6.14186         4.95813        0.327322 
        6.15755         4.92265        0.325186 
        6.17326         4.88805        0.323068 
        6.18898         4.85894        0.320967 
        6.20467         4.82973        0.318889 
        6.22036         4.79229         0.31683 
         6.2361         4.77713        0.314783 
         6.2518         4.73784        0.312758 
        6.26748         4.70741        0.310755 
        6.28319         4.67576        0.308764 
        6.29893           4.651        0.306788 
        6.31463         4.62676        0.304834 
        6.33033         4.59959        0.302897 
        6.34604         4.55751        0.300975 
        6.36177         4.53633        0.299069 
        6.37747         4.50206        0.297182 
