# k  (h/Mpc)    Pcb(k)  (Mpc/h)^3    Pcb_linear(k) (Mpc/h)^3   ShotnoiseSubtracted = true
      0.0200456         1761.64         1784.16 
      0.0350414         1173.13         1150.94 
      0.0492313           794.5         790.852 
      0.0637834         651.641         660.365 
      0.0800726          501.46         509.021 
       0.096163           356.4         348.198 
       0.111083         284.645         277.028 
       0.126058         249.405           251.2 
       0.142273         206.004         207.253 
       0.158546         160.067         157.449 
        0.17375         137.597         134.028 
       0.188953         125.451         123.405 
       0.204907         106.052         107.143 
       0.220756         90.6309         88.4103 
        0.23588         79.3987         77.4224 
         0.2514         72.5263         71.1786 
       0.267535         65.9618         63.6955 
       0.283568         57.2489         55.2931 
       0.299022         51.8512         49.3728 
       0.314451         48.7249         45.4573 
       0.330372         43.6126         41.4695 
       0.346141         39.4501          37.277 
       0.361624         35.9528           33.86 
       0.377134         32.9599         31.2695 
       0.392932         31.5656         28.8718 
       0.408854         28.5257         26.4649 
       0.424564         27.0536         24.3524 
       0.440253         24.6855         22.6057 
       0.455999         22.5112          21.043 
       0.471626         21.1626         19.5647 
        0.48727         20.3569         18.2079 
       0.502856         19.0542         17.0241 
       0.518488         17.5959         15.9559 
       0.534347          16.456         14.9483 
       0.550082         15.7621         14.0217 
       0.565732         15.0655         13.1887 
       0.581496         14.1413         12.4244 
       0.597222         13.3136         11.7196 
       0.612804         12.5434         11.0697 
       0.628434         12.1953         10.4694 
       0.644267         11.5297         9.90959 
       0.660051         10.9003         9.39237 
       0.675724         10.3176         8.91493 
       0.691403         9.99727         8.47028 
       0.707174         9.50332         8.05347 
       0.722871         9.22364         7.66638 
        0.73838         8.65666         7.30889 
       0.754018          8.2139         6.97154 
       0.769845         7.88503         6.65185 
        0.78569          7.6681         6.35198 
       0.801365         7.32122         6.07363 
       0.817031         7.04892         5.81224 
       0.832809         6.72686         5.56467 
       0.848511         6.52497         5.33272 
       0.864097         6.27976         5.11565 
       0.879701         6.12313         4.91052 
       0.895507         5.87139         4.71429 
       0.911279         5.63221         4.52924 
        0.92691         5.46924         4.35571 
       0.942635         5.25937         4.19035 
       0.958396         5.08915         4.03328 
       0.974128         4.95317         3.88458 
       0.989692         4.70739         3.74488 
        1.00528         4.63432         3.61187 
        1.02113         4.47448         3.48328 
        1.03692         4.36435         3.36144 
        1.05264          4.1979         3.24603 
        1.06832         4.08986         3.13624 
        1.08405         3.96932         3.03126 
        1.09979          3.8628         2.93104 
        1.11537         3.74872         2.83637 
        1.13105         3.63514         2.74534 
        1.14679         3.54098         2.65797 
        1.16256         3.43056         2.57425 
        1.17828          3.3785         2.49443 
        1.19395         3.25404         2.41827 
         1.2097          3.1561         2.34493 
        1.22537         3.06481         2.27499 
          1.241         2.99337         2.20813 
        1.25666         2.95815          2.1438 
        1.27241         2.88743         2.08175 
        1.28819         2.76448         2.02205 
        1.30392         2.70514         1.96488 
        1.31957         2.65732         1.91018 
        1.33529         2.56525         1.85738 
        1.35108         2.51864         1.80637 
        1.36674           2.448         1.75764 
         1.3824          2.4183         1.71077 
        1.39811         2.35285         1.66546 
        1.41389         2.28944         1.62162 
        1.42964         2.24288         1.57944 
        1.44531         2.19973         1.53897 
        1.46101         2.15983         1.49983 
        1.47667         2.11076         1.46218 
        1.49229         2.03937         1.42593 
        1.50793         1.98749         1.39087 
        1.52367         1.95402         1.35677 
        1.53953         1.90709         1.32358 
        1.55526          1.9038         1.29178 
        1.57092         1.85077         1.26115 
        1.58662         1.82765         1.23145 
        1.60235         1.77124         1.20265 
        1.61809         1.73921         1.17476 
        1.63369         1.70197         1.14801 
        1.64941         1.67134          1.1219 
        1.66519         1.64935         1.09651 
        1.68085         1.60752         1.07208 
        1.69652         1.57864          1.0484 
        1.71228         1.54713          1.0253 
        1.72806         1.52358         1.00288 
        1.74368         1.49314        0.981362 
        1.75933         1.47008         0.96043 
        1.77505         1.44209        0.940013 
        1.79081          1.4083        0.920155 
         1.8065         1.39251        0.900957 
        1.82218         1.35792        0.882325 
        1.83797         1.33524        0.864094 
        1.85367         1.31455        0.846481 
        1.86928         1.29129        0.829465 
        1.88497         1.26662        0.812826 
        1.90073         1.25527        0.796583 
        1.91647         1.22446        0.780799 
        1.93218         1.20669        0.765478 
        1.94787          1.1893        0.750592 
        1.96363         1.17029        0.736043 
        1.97935         1.14948        0.721911 
        1.99499         1.13043        0.708231 
        2.01064         1.11362        0.694886 
         2.0264         1.09262        0.681802 
        2.04216         1.07928        0.669063 
        2.05781         1.05864         0.65673 
        2.07353         1.04899        0.644664 
        2.08928          1.0295        0.632877 
        2.10499          1.0106        0.621416 
        2.12065        0.998104        0.610274 
        2.13633        0.983791        0.599396 
        2.15211        0.962664        0.588714 
        2.16785        0.953645        0.578322 
        2.18349        0.936456        0.568247 
        2.19916        0.928384        0.558392 
        2.21489        0.915606        0.548738 
        2.23063         0.89504        0.539306 
         2.2463        0.881929        0.530139 
        2.26194        0.874054        0.521208 
        2.27765         0.85677        0.512438 
        2.29341         0.84716        0.503847 
        2.30914        0.832926        0.495471 
        2.32486        0.826201         0.48729 
        2.34061        0.812272        0.479281 
        2.35635        0.800665         0.47146 
        2.37203        0.790451         0.46384 
        2.38768         0.77953        0.456405 
        2.40339        0.770654        0.449107 
        2.41914        0.761587        0.441951 
        2.43483        0.751516        0.434977 
         2.4505        0.739879        0.428165 
        2.46622        0.730441        0.421476 
        2.48195        0.722148        0.414929 
        2.49759        0.710485        0.408557 
        2.51328        0.700566        0.402303 
        2.52906        0.695098         0.39614 
        2.54479        0.683209        0.390129 
        2.56049        0.676976        0.384255 
        2.57618        0.668069        0.378507 
        2.59189        0.660588        0.372868 
        2.60758        0.650886        0.367353 
        2.62325        0.643762        0.361957 
        2.63898        0.636565         0.35665 
        2.65468        0.624609        0.351461 
        2.67044         0.62172        0.346353 
        2.68618        0.615392        0.341359 
        2.70184        0.607327        0.336483 
        2.71755        0.600397        0.331691 
        2.73329         0.59131        0.326984 
        2.74897        0.584762        0.322385 
        2.76462        0.577714        0.317884 
        2.78034        0.572913        0.313451 
        2.79607         0.56533        0.309097 
        2.81179        0.558744        0.304832 
        2.82749         0.55209        0.300652 
        2.84321        0.545491        0.296545 
        2.85893        0.539276        0.292517 
        2.87462        0.534401        0.288571 
        2.89033        0.529812        0.284694 
        2.90605        0.524467        0.280885 
        2.92176        0.518423        0.277147 
        2.93747         0.51267         0.27348 
        2.95318        0.506878        0.269878 
        2.96891         0.50443         0.26634 
        2.98456        0.494581         0.26288 
        3.00023        0.491301        0.259478 
        3.01596        0.486012        0.256124 
        3.03164        0.481624         0.25284 
        3.04738        0.476916        0.249604 
         3.0631        0.470166        0.246426 
        3.07883        0.466555        0.243303 
        3.09456         0.46258        0.240235 
        3.11026        0.458275        0.237224 
        3.12596        0.453791        0.234265 
        3.14163        0.450915        0.231364 
        3.15734        0.444912        0.228505 
        3.17308        0.441143        0.225688 
        3.18879         0.43771        0.222926 
        3.20447         0.43386        0.220214 
         3.2202        0.426467        0.217539 
         3.2359        0.424113        0.214913 
        3.25157        0.418978        0.212337 
        3.26729         0.41705        0.209795 
        3.28304        0.414132         0.20729 
        3.29877        0.409429         0.20483 
        3.31446        0.407665        0.202414 
        3.33014        0.401112         0.20004 
        3.34585        0.399056          0.1977 
        3.36158        0.395163        0.195394 
        3.37727        0.392798        0.193132 
        3.39294        0.388671        0.190908 
        3.40867        0.385407        0.188712 
        3.42439         0.38278        0.186551 
        3.44008        0.378921        0.184428 
        3.45578        0.376318        0.182336 
        3.47153        0.373654        0.180273 
        3.48724        0.370053        0.178245 
        3.50292        0.366691        0.176253 
        3.51859        0.365452        0.174292 
        3.53431        0.360535        0.172355 
        3.55007        0.358717        0.170443 
        3.56577        0.356031        0.168568 
        3.58146        0.353192        0.166721 
        3.59719        0.350557        0.164898 
        3.61292        0.347328        0.163103 
        3.62859         0.34505        0.161341 
        3.64429        0.341794        0.159602 
        3.66003         0.33909        0.157884 
        3.67578        0.337312        0.156191 
        3.69146        0.335018         0.15453 
        3.70712        0.332754        0.152895 
        3.72284        0.330191        0.151279 
        3.73853        0.327101        0.149688 
        3.75422        0.325347         0.14812 
        3.76993        0.323058        0.146573 
        3.78564        0.319822        0.145049 
        3.80137        0.317788        0.143544 
        3.81707        0.315264        0.142063 
        3.83279        0.313222        0.140603 
        3.84853        0.310826         0.13916 
        3.86424        0.308822         0.13774 
        3.87992        0.307327        0.136343 
        3.89561         0.30504        0.134965 
        3.91134        0.301539        0.133603 
        3.92704        0.300136        0.132261 
        3.94273        0.298078        0.130939 
        3.95845        0.296072        0.129633 
        3.97418        0.294247        0.128344 
        3.98988        0.292011        0.127075 
        4.00554        0.288616        0.125826 
        4.02125        0.287279        0.124591 
        4.03698        0.283694         0.12337 
        4.05268        0.281011        0.122168 
        4.06839        0.278543        0.120982 
         4.0841        0.275227        0.119811 
        4.09983        0.273813        0.118655 
        4.11555        0.270286        0.117514 
        4.13124        0.268487        0.116391 
        4.14693        0.266875        0.115282 
        4.16266        0.262644        0.114185 
        4.17839        0.260458        0.113103 
        4.19408         0.25914        0.112038 
        4.20977        0.256521        0.110985 
        4.22551        0.254568        0.109944 
        4.24123        0.252806        0.108917 
        4.25691         0.25048        0.107906 
        4.27259        0.248206        0.106908 
        4.28831        0.246819         0.10592 
        4.30404        0.244878        0.104944 
        4.31974        0.243457        0.103982 
        4.33543        0.241099        0.103033 
        4.35116        0.240177        0.102093 
        4.36688        0.238148        0.101166 
        4.38255        0.236491        0.100253 
        4.39825        0.234866         0.09935 
        4.41398        0.233313       0.0984561 
         4.4297         0.23244       0.0975742 
        4.44541        0.230898       0.0967032 
        4.46111        0.229535       0.0958435 
        4.47683        0.228179       0.0949937 
        4.49251        0.227354       0.0941559 
        4.50819        0.226966       0.0933285 
         4.5239        0.225222       0.0925098 
        4.53962        0.223784       0.0916999 
        4.55535        0.222834       0.0908993 
        4.57106        0.222156       0.0901094 
        4.58678        0.220947       0.0893288 
         4.6025        0.220417       0.0885572 
        4.61821        0.219394       0.0877949 
        4.63391        0.219836       0.0870426 
         4.6496        0.217944       0.0862993 
        4.66532        0.217442       0.0855637 
        4.68103        0.216437       0.0848369 
        4.69673        0.215947       0.0841192 
        4.71241        0.215679       0.0834106 
        4.72811        0.215619        0.082709 
        4.74384        0.214378       0.0820146 
        4.75955        0.214498       0.0813292 
        4.77525        0.213922        0.080652 
        4.79096        0.213664       0.0799817 
        4.80669         0.21322       0.0793187 
         4.8224         0.21304        0.078664 
        4.83809        0.212546       0.0780174 
        4.85379        0.212875       0.0773776 
         4.8695        0.213422       0.0767445 
        4.88521         0.21282       0.0761188 
        4.90093        0.212517          0.0755 
        4.91663        0.212818       0.0748886 
        4.93234        0.212241       0.0742833 
        4.94807        0.212836       0.0736843 
        4.96377        0.213579        0.073093 
        4.97943        0.212857       0.0725095 
        4.99514        0.213277       0.0719309 
        5.01086        0.213918       0.0713581 
        5.02654        0.214773        0.070793 
        5.04227        0.214047       0.0702324 
          5.058        0.215066       0.0696776 
        5.07371        0.215416       0.0691299 
        5.08942        0.216252        0.068588 
        5.10513        0.216537       0.0680519 
        5.12084        0.216774       0.0675212 
        5.13656        0.218279       0.0669963 
        5.15225         0.21862       0.0664779 
        5.16796        0.219409       0.0659641 
        5.18369        0.219734       0.0654553 
         5.1994        0.220923       0.0649528 
        5.21509        0.221793        0.064456 
        5.23079        0.221841       0.0639639 
        5.24649        0.223919       0.0634772 
        5.26217        0.223669        0.062996 
        5.27788        0.225423       0.0625191 
        5.29359         0.22635        0.062047 
        5.30933        0.227611       0.0615791 
        5.32504          0.2289       0.0611169 
        5.34073        0.230659       0.0606599 
        5.35646        0.231534       0.0602066 
        5.37218        0.232115       0.0597579 
        5.38789         0.23294       0.0593145 
        5.40357        0.235056       0.0588761 
        5.41929        0.236446       0.0584412 
        5.43502        0.238289       0.0580106 
         5.4507        0.239614       0.0575854 
        5.46639        0.240871       0.0571644 
        5.48212        0.241544       0.0567466 
        5.49786        0.243865       0.0563325 
        5.51353        0.246088       0.0559246 
        5.52921        0.246304       0.0555204 
        5.54495        0.248872       0.0551189 
        5.56066        0.250704       0.0547218 
        5.57637        0.251956       0.0543287 
        5.59207         0.25445       0.0539399 
        5.60778        0.255915       0.0535546 
        5.62346        0.257848       0.0531737 
        5.63916        0.259296       0.0527962 
        5.65487        0.261104       0.0524221 
         5.6706        0.263077       0.0520512 
        5.68633        0.266055       0.0516837 
        5.70203        0.267822       0.0513206 
        5.71773        0.268953        0.050961 
        5.73344         0.27162       0.0506046 
        5.74916        0.274397       0.0502514 
        5.76486        0.276107        0.049902 
        5.78054        0.278728       0.0495564 
        5.79626        0.279555       0.0492132 
          5.812         0.28345       0.0488729 
         5.8277        0.284846       0.0485368 
        5.84339        0.286878       0.0482038 
        5.85911        0.289758       0.0478734 
        5.87484        0.291957       0.0475461 
        5.89053        0.295268       0.0472225 
        5.90623        0.296875       0.0469018 
        5.92195        0.298572       0.0465835 
        5.93767        0.301083       0.0462683 
        5.95336        0.303405       0.0459566 
        5.96905        0.305813       0.0456478 
        5.98476        0.307951       0.0453415 
        6.00048        0.310047       0.0450379 
        6.01617        0.314054       0.0447374 
        6.03185        0.315441       0.0444401 
        6.04756        0.317609       0.0441448 
        6.06331        0.319859       0.0438515 
        6.07903        0.323021       0.0435615 
        6.09473        0.326304       0.0432744 
        6.11044        0.327387       0.0429896 
        6.12616         0.33021       0.0427075 
        6.14186        0.332414       0.0424281 
        6.15755        0.336954       0.0421513 
        6.17326        0.337665       0.0418767 
        6.18898        0.339807       0.0416044 
        6.20467        0.343556       0.0413351 
        6.22036        0.344185       0.0410681 
         6.2361         0.34772       0.0408028 
         6.2518        0.351231       0.0405403 
        6.26748        0.352336       0.0402807 
        6.28319        0.356729       0.0400226 
        6.29893        0.357933       0.0397666 
        6.31463        0.361528       0.0395132 
        6.33033        0.363414       0.0392621 
        6.34604        0.365993       0.0390131 
        6.36177        0.367627       0.0387659 
        6.37747        0.370884       0.0385214 
