# k  (h/Mpc)    Pcb(k)  (Mpc/h)^3    Pcb_linear(k) (Mpc/h)^3   ShotnoiseSubtracted = true
      0.0200456         8834.11         8982.43 
      0.0350414         5681.03         5794.45 
      0.0492313         3978.23         3981.59 
      0.0637834         3392.48         3324.65 
      0.0800726         2618.23          2562.7 
       0.096163         1741.99         1753.02 
       0.111083         1380.41         1394.71 
       0.126058          1286.7         1264.68 
       0.142273         1089.11         1043.43 
       0.158546         868.858         792.688 
        0.17375         702.411         674.772 
       0.188953         677.557         621.291 
       0.204907         624.928         539.419 
       0.220756         518.216         445.107 
        0.23588         454.645         389.787 
         0.2514         400.779         358.353 
       0.267535         380.386         320.678 
       0.283568         341.681         278.377 
       0.299022         315.421          248.57 
       0.314451         290.768         228.857 
       0.330372         268.302         208.781 
       0.346141         239.471         187.673 
       0.361624         229.394          170.47 
       0.377134         213.616         157.428 
       0.392932         196.607         145.357 
       0.408854         188.041         133.239 
       0.424564         179.422         122.603 
       0.440253         170.092          113.81 
       0.455999         159.136         105.942 
       0.471626         147.643         98.4996 
        0.48727         142.241          91.669 
       0.502856         136.561         85.7086 
       0.518488         133.002          80.331 
       0.534347         126.537          75.258 
       0.550082          117.02         70.5931 
       0.565732         112.838         66.3993 
       0.581496          108.07         62.5514 
       0.597222         104.387         59.0029 
       0.612804         99.6789         55.7312 
       0.628434         97.0485         52.7087 
       0.644267         93.6052         49.8904 
       0.660051         91.6196         47.2864 
       0.675724         88.3268         44.8827 
       0.691403         85.4849         42.6441 
       0.707174         82.1359         40.5457 
       0.722871         80.6737         38.5968 
        0.73838         78.9077          36.797 
       0.754018         75.0466         35.0986 
       0.769845         73.4821         33.4891 
        0.78569          71.616         31.9794 
       0.801365         69.2851          30.578 
       0.817031         66.8535         29.2621 
       0.832809         66.1192         28.0157 
       0.848511         63.3579         26.8479 
       0.864097         61.9395          25.755 
       0.879701          60.775         24.7223 
       0.895507         59.6987         23.7343 
       0.911279         58.3564         22.8027 
        0.92691         57.1279         21.9291 
       0.942635         55.0533         21.0966 
       0.958396         54.8578         20.3058 
       0.974128         53.3471         19.5571 
       0.989692         52.2961         18.8538 
        1.00528         51.0968         18.1842 
        1.02113         50.0662         17.5368 
        1.03692         48.5153         16.9234 
        1.05264         48.4614         16.3423 
        1.06832         46.8392         15.7896 
        1.08405         46.3158          15.261 
        1.09979         45.8928         14.7565 
        1.11537         44.0628         14.2799 
        1.13105         44.4491         13.8216 
        1.14679         43.3131         13.3817 
        1.16256         42.5328         12.9602 
        1.17828         41.5525         12.5583 
        1.19395         40.9629         12.1749 
         1.2097         40.2122         11.8057 
        1.22537         40.1764         11.4536 
          1.241         39.0053          11.117 
        1.25666         38.2334         10.7931 
        1.27241         37.7694         10.4807 
        1.28819         36.9219         10.1801 
        1.30392         36.4399         9.89231 
        1.31957         36.1092         9.61694 
        1.33529         35.5527         9.35108 
        1.35108         35.1835         9.09426 
        1.36674         34.6389         8.84897 
         1.3824         33.7264         8.61297 
        1.39811         33.5961         8.38484 
        1.41389         33.1184         8.16413 
        1.42964         32.5051         7.95176 
        1.44531         32.1121         7.74801 
        1.46101         31.4245           7.551 
        1.47667         31.3384         7.36145 
        1.49229         30.9575         7.17893 
        1.50793         30.4723         7.00242 
        1.52367         30.0209         6.83073 
        1.53953         29.9085         6.66366 
        1.55526         29.3147         6.50354 
        1.57092         28.9631         6.34935 
        1.58662         28.5789         6.19981 
        1.60235          28.247         6.05482 
        1.61809         27.8245         5.91441 
        1.63369         27.5089          5.7797 
        1.64941         27.1363         5.64825 
        1.66519         26.7724         5.52042 
        1.68085         26.5638         5.39747 
        1.69652         26.1944         5.27824 
        1.71228         26.0488         5.16195 
        1.72806         25.5929         5.04908 
        1.74368         25.1827         4.94072 
        1.75933         24.9094         4.83534 
        1.77505         24.8582         4.73255 
        1.79081         24.4167         4.63257 
         1.8065         24.1645         4.53592 
        1.82218         23.9671         4.44212 
        1.83797         23.5824         4.35033 
        1.85367          23.318         4.26166 
        1.86928         23.1139         4.17599 
        1.88497         22.8295         4.09222 
        1.90073         22.6754         4.01044 
        1.91647         22.3589         3.93098 
        1.93218         22.2206         3.85384 
        1.94787         21.8857          3.7789 
        1.96363         21.7946         3.70565 
        1.97935         21.4849          3.6345 
        1.99499         21.2475         3.56563 
        2.01064         21.1517         3.49844 
         2.0264         20.7302         3.43257 
        2.04216         20.5845         3.36843 
        2.05781         20.2844         3.30634 
        2.07353         20.1473          3.2456 
        2.08928          20.101         3.18625 
        2.10499          19.879         3.12855 
        2.12065         19.5267         3.07246 
        2.13633         19.4212         3.01769 
        2.15211         19.1234         2.96391 
        2.16785         18.9679          2.9116 
        2.18349         18.7866         2.86088 
        2.19916         18.6474         2.81126 
        2.21489         18.4376         2.76265 
        2.23063         18.2599         2.71517 
         2.2463         18.1231         2.66902 
        2.26194         17.9961         2.62405 
        2.27765         17.7336          2.5799 
        2.29341         17.5309         2.53665 
        2.30914         17.4537         2.49448 
        2.32486         17.2667         2.45329 
        2.34061          17.112         2.41297 
        2.35635         16.8964         2.37359 
        2.37203         16.7713         2.33523 
        2.38768         16.6045          2.2978 
        2.40339         16.4591         2.26105 
        2.41914         16.3225         2.22503 
        2.43483         16.1879         2.18991 
         2.4505         15.9836         2.15562 
        2.46622         15.8252         2.12194 
        2.48195         15.7033         2.08899 
        2.49759         15.4856         2.05691 
        2.51328         15.3681         2.02542 
        2.52906         15.2996         1.99439 
        2.54479         15.1463         1.96413 
        2.56049          14.987         1.93455 
        2.57618         14.8429         1.90561 
        2.59189         14.7617         1.87723 
        2.60758         14.6413         1.84946 
        2.62325          14.519         1.82229 
        2.63898         14.3795         1.79558 
        2.65468         14.2549         1.76945 
        2.67044         14.1128         1.74374 
        2.68618         13.9951         1.71859 
        2.70184         13.9006         1.69404 
        2.71755         13.7437         1.66992 
        2.73329         13.6457         1.64622 
        2.74897         13.4647         1.62306 
        2.76462         13.4635         1.60041 
        2.78034          13.269         1.57809 
        2.79607         13.1742         1.55617 
        2.81179         13.0309         1.53469 
        2.82749         12.9204         1.51365 
        2.84321         12.8466         1.49298 
        2.85893         12.7168          1.4727 
        2.87462         12.5917         1.45283 
        2.89033         12.4724         1.43331 
        2.90605         12.4279         1.41413 
        2.92176         12.2366         1.39531 
        2.93747         12.2057         1.37685 
        2.95318         12.0634         1.35872 
        2.96891         11.9754          1.3409 
        2.98456           11.88         1.32349 
        3.00023         11.7382         1.30635 
        3.01596         11.7143         1.28947 
        3.03164         11.5996         1.27294 
        3.04738         11.4433         1.25665 
         3.0631         11.3797         1.24065 
        3.07883         11.2716         1.22492 
        3.09456         11.1845         1.20948 
        3.11026         11.1036         1.19432 
        3.12596         10.9963         1.17942 
        3.14163          10.908         1.16482 
        3.15734         10.8012         1.15042 
        3.17308         10.7331         1.13624 
        3.18879         10.6624         1.12233 
        3.20447          10.565         1.10868 
         3.2202         10.4696         1.09521 
         3.2359         10.4153         1.08199 
        3.25157         10.3237         1.06902 
        3.26729         10.2175         1.05623 
        3.28304         10.1443         1.04362 
        3.29877         10.0601         1.03123 
        3.31446         9.97228         1.01907 
        3.33014         9.90017         1.00711 
        3.34585         9.83956        0.995332 
        3.36158          9.7757        0.983723 
        3.37727         9.64032        0.972336 
        3.39294           9.583         0.96114 
        3.40867         9.50344         0.95008 
        3.42439         9.43967          0.9392 
        3.44008         9.37144        0.928512 
        3.45578         9.29994        0.917982 
        3.47153         9.25115        0.907593 
        3.48724         9.15313        0.897383 
        3.50292         9.08493        0.887354 
        3.51859          9.0297        0.877483 
        3.53431         8.95153        0.867732 
        3.55007         8.88361        0.858106 
        3.56577         8.82188        0.848663 
        3.58146         8.76877        0.839367 
        3.59719         8.67993        0.830189 
        3.61292         8.58889        0.821151 
        3.62859          8.5213        0.812282 
        3.64429         8.50686        0.803527 
        3.66003         8.40448        0.794874 
        3.67578         8.33607        0.786353 
        3.69146         8.28194        0.777988 
        3.70712          8.2184         0.76976 
        3.72284         8.16545        0.761621 
        3.73853         8.07596        0.753614 
        3.75422         8.07054        0.745719 
        3.76993         7.97491        0.737931 
        3.78564         7.91606        0.730257 
        3.80137         7.85408         0.72268 
        3.81707         7.79804        0.715226 
        3.83279         7.72678        0.707872 
        3.84853         7.66376        0.700609 
        3.86424         7.61131        0.693462 
        3.87992         7.55155        0.686426 
        3.89561         7.49769        0.679487 
        3.91134         7.43501         0.67263 
        3.92704         7.36855        0.665875 
        3.94273         7.34491        0.659221 
        3.95845         7.28541        0.652644 
        3.97418         7.20562        0.646157 
        3.98988         7.16446        0.639766 
        4.00554         7.11893        0.633479 
        4.02125         7.06436        0.627259 
        4.03698         7.00951        0.621113 
        4.05268         6.96504        0.615063 
        4.06839         6.89454         0.60909 
         4.0841         6.86601        0.603197 
        4.09983          6.7987        0.597375 
        4.11555         6.75881        0.591631 
        4.13124         6.71836        0.585979 
        4.14693         6.65647        0.580396 
        4.16266          6.6109        0.574873 
        4.17839         6.55463        0.569425 
        4.19408         6.51052        0.564061 
        4.20977         6.45815        0.558763 
        4.22551         6.41352         0.55352 
        4.24123         6.36125         0.54835 
        4.25691         6.30657        0.543261 
        4.27259         6.25789        0.538234 
        4.28831         6.20769        0.533261 
        4.30404         6.19019        0.528346 
        4.31974         6.13025        0.523504 
        4.33543         6.08269        0.518725 
        4.35116         6.03465        0.513995 
        4.36688         5.98536        0.509325 
        4.38255         5.96273        0.504731 
        4.39825         5.89034        0.500184 
        4.41398         5.87362        0.495683 
         4.4297         5.82635        0.491243 
        4.44541         5.77956        0.486858 
        4.46111         5.74884         0.48253 
        4.47683         5.69828        0.478251 
        4.49251         5.66088        0.474033 
        4.50819         5.60467        0.469868 
         4.5239         5.57875        0.465746 
        4.53962         5.55048        0.461668 
        4.55535         5.49839        0.457638 
        4.57106         5.46096        0.453661 
        4.58678         5.42685        0.449731 
         4.6025         5.37463        0.445847 
        4.61821         5.33745        0.442009 
        4.63391         5.31275        0.438221 
         4.6496         5.27741        0.434479 
        4.66532         5.23961        0.430775 
        4.68103         5.18418        0.427116 
        4.69673         5.16787        0.423503 
        4.71241         5.13287        0.419936 
        4.72811         5.08356        0.416403 
        4.74384         5.05825        0.412907 
        4.75955         5.00513        0.409457 
        4.77525         4.98123        0.406047 
        4.79096         4.94935        0.402673 
        4.80669            4.92        0.399335 
         4.8224         4.88761        0.396039 
        4.83809         4.84654        0.392783 
        4.85379         4.81723        0.389562 
         4.8695         4.79084        0.386375 
        4.88521         4.75716        0.383225 
        4.90093         4.71305        0.380109 
        4.91663         4.69289        0.377031 
        4.93234         4.66328        0.373983 
        4.94807         4.62191        0.370968 
        4.96377         4.59308        0.367991 
        4.97943         4.54553        0.365053 
        4.99514          4.5205         0.36214 
        5.01086         4.49749        0.359257 
        5.02654         4.47424        0.356412 
        5.04227         4.43724        0.353589 
          5.058         4.40589        0.350796 
        5.07371         4.38594        0.348039 
        5.08942         4.35082         0.34531 
        5.10513         4.32681        0.342611 
        5.12084         4.29512         0.33994 
        5.13656         4.27254        0.337297 
        5.15225         4.24819        0.334687 
        5.16796         4.21494          0.3321 
        5.18369         4.18937        0.329539 
         5.1994         4.15834        0.327009 
        5.21509         4.13082        0.324508 
        5.23079         4.11142         0.32203 
        5.24649         4.07809         0.31958 
        5.26217          4.0556        0.317157 
        5.27788         4.02542        0.314756 
        5.29359         3.99522        0.312379 
        5.30933         3.96965        0.310024 
        5.32504         3.95403        0.307696 
        5.34073          3.9227        0.305396 
        5.35646         3.89539        0.303114 
        5.37218         3.87312        0.300855 
        5.38789         3.84508        0.298622 
        5.40357         3.82635        0.296415 
        5.41929         3.79914        0.294226 
        5.43502         3.77669        0.292058 
         5.4507         3.75459        0.289917 
        5.46639         3.73136        0.287798 
        5.48212         3.70115        0.285694 
        5.49786         3.68212        0.283609 
        5.51353         3.65505        0.281556 
        5.52921         3.63543         0.27952 
        5.54495         3.61976        0.277499 
        5.56066         3.59344          0.2755 
        5.57637         3.56997        0.273521 
        5.59207         3.54289        0.271563 
        5.60778         3.52734        0.269624 
        5.62346         3.50616        0.267706 
        5.63916         3.47871        0.265805 
        5.65487         3.46097        0.263922 
         5.6706         3.44059        0.262055 
        5.68633         3.41987        0.260205 
        5.70203         3.39669        0.258376 
        5.71773         3.37561        0.256566 
        5.73344         3.35867        0.254772 
        5.74916         3.33562        0.252994 
        5.76486          3.3241        0.251234 
        5.78054         3.29741        0.249495 
        5.79626         3.27571        0.247767 
          5.812         3.26378        0.246053 
         5.8277         3.24141        0.244361 
        5.84339         3.21678        0.242685 
        5.85911          3.2059        0.241021 
        5.87484         3.18986        0.239374 
        5.89053         3.16252        0.237744 
        5.90623         3.14666         0.23613 
        5.92195         3.12938        0.234527 
        5.93767         3.11027        0.232941 
        5.95336         3.09214        0.231371 
        5.96905         3.07435        0.229817 
        5.98476         3.06113        0.228274 
        6.00048         3.04006        0.226746 
        6.01617         3.01927        0.225233 
        6.03185         3.00127        0.223736 
        6.04756         2.98395        0.222249 
        6.06331         2.96443        0.220773 
        6.07903         2.94821        0.219313 
        6.09473          2.9379        0.217867 
        6.11044         2.91718        0.216434 
        6.12616         2.90493        0.215013 
        6.14186         2.88957        0.213607 
        6.15755         2.87346        0.212213 
        6.17326         2.85295        0.210831 
        6.18898         2.83607         0.20946 
        6.20467         2.82343        0.208104 
        6.22036         2.80331         0.20676 
         6.2361         2.79106        0.205424 
         6.2518         2.77053        0.204103 
        6.26748         2.76305        0.202795 
        6.28319         2.73993        0.201496 
        6.29893         2.72854        0.200207 
        6.31463         2.71092        0.198932 
        6.33033         2.70009        0.197667 
        6.34604         2.68141        0.196414 
        6.36177         2.66831        0.195169 
        6.37747         2.65118        0.193938 
