# k  (h/Mpc)    Pcb(k)  (Mpc/h)^3    Pcb_linear(k) (Mpc/h)^3   ShotnoiseSubtracted = true
      0.0200456         16945.3         17211.5 
      0.0350414         11520.5         11102.9 
      0.0492313         7566.08         7629.24 
      0.0637834         6127.65         6370.45 
      0.0800726         4696.25         4910.45 
       0.096163            3560         3359.02 
       0.111083          2873.7         2672.45 
       0.126058         2419.94         2423.29 
       0.142273         2060.95         1999.35 
       0.158546          1650.1         1518.89 
        0.17375         1454.68         1292.95 
       0.188953         1368.56         1190.47 
       0.204907         1157.88          1033.6 
       0.220756          1031.6         852.882 
        0.23588          917.71         746.883 
         0.2514         821.543          686.65 
       0.267535         794.446         614.461 
       0.283568         693.428         533.405 
       0.299022          660.17         476.293 
       0.314451         675.758          438.52 
       0.330372         579.068         400.051 
       0.346141         533.764         359.606 
       0.361624         509.585         326.643 
       0.377134         480.913         301.653 
       0.392932         461.391         278.522 
       0.408854         440.379         255.303 
       0.424564         426.438         234.924 
       0.440253         387.134         218.074 
       0.455999         369.622         202.999 
       0.471626         373.992         188.738 
        0.48727         351.865          175.65 
       0.502856         327.139         164.229 
       0.518488         325.193         153.925 
       0.534347         304.869         144.204 
       0.550082         292.474         135.265 
       0.565732         290.954          127.23 
       0.581496         278.859         119.857 
       0.597222           270.6         113.057 
       0.612804         262.557         106.788 
       0.628434         253.497         100.997 
       0.644267         242.707         95.5964 
       0.660051         239.663         90.6069 
       0.675724         234.684         86.0011 
       0.691403          229.76         81.7116 
       0.707174         220.836         77.6907 
       0.722871         217.153         73.9565 
        0.73838         214.512         70.5079 
       0.754018         205.384         67.2534 
       0.769845         205.367         64.1695 
        0.78569         198.972         61.2767 
       0.801365         192.894         58.5914 
       0.817031         190.834         56.0699 
       0.832809         186.575         53.6816 
       0.848511         182.075          51.444 
       0.864097         177.199         49.3499 
       0.879701         176.666         47.3711 
       0.895507         172.649         45.4781 
       0.911279         168.001         43.6929 
        0.92691         165.028         42.0189 
       0.942635         163.482         40.4238 
       0.958396         159.783         38.9085 
       0.974128         157.484          37.474 
       0.989692         151.999         36.1263 
        1.00528         151.676         34.8432 
        1.02113         148.672         33.6027 
        1.03692         145.785         32.4274 
        1.05264         143.336          31.314 
        1.06832         142.595         30.2548 
        1.08405          138.84         29.2421 
        1.09979         137.653         28.2754 
        1.11537         135.615         27.3621 
        1.13105         133.152         26.4839 
        1.14679         131.716         25.6411 
        1.16256         128.941         24.8334 
        1.17828         127.832         24.0634 
        1.19395         124.978         23.3288 
         1.2097         123.879         22.6212 
        1.22537         122.781         21.9465 
          1.241         119.702         21.3015 
        1.25666         118.404          20.681 
        1.27241          115.75         20.0823 
        1.28819         114.928         19.5064 
        1.30392         113.462         18.9549 
        1.31957         111.165         18.4273 
        1.33529         109.602         17.9179 
        1.35108         108.576         17.4258 
        1.36674         106.769         16.9558 
         1.3824         106.003         16.5036 
        1.39811         104.191         16.0664 
        1.41389         102.624         15.6435 
        1.42964         100.874         15.2366 
        1.44531         100.171         14.8462 
        1.46101         98.1934         14.4687 
        1.47667         97.9934         14.1055 
        1.49229         96.7874         13.7558 
        1.50793         94.9677         13.4175 
        1.52367         93.7805         13.0886 
        1.53953         92.8593         12.7684 
        1.55526         91.7145         12.4616 
        1.57092         90.9814         12.1662 
        1.58662         89.5322         11.8796 
        1.60235         88.4021         11.6018 
        1.61809         87.5346         11.3328 
        1.63369         86.0079         11.0747 
        1.64941         85.9833         10.8228 
        1.66519         84.5023         10.5778 
        1.68085         82.9519         10.3423 
        1.69652         82.0664         10.1138 
        1.71228         81.0183         9.89096 
        1.72806         80.6861         9.67468 
        1.74368         79.1098         9.46706 
        1.75933         78.5716         9.26513 
        1.77505         77.7255         9.06817 
        1.79081         76.4513          8.8766 
         1.8065         75.5631          8.6914 
        1.82218         74.8697         8.51167 
        1.83797         74.3688          8.3358 
        1.85367         72.9276         8.16588 
        1.86928         72.4477         8.00174 
        1.88497         71.4864         7.84122 
        1.90073         70.8635         7.68453 
        1.91647         69.9175         7.53226 
        1.93218          69.027         7.38446 
        1.94787         68.0923         7.24085 
        1.96363         67.3604         7.10051 
        1.97935         66.8991         6.96418 
        1.99499         66.1793          6.8322 
        2.01064         65.0852         6.70347 
         2.0264         64.4854         6.57725 
        2.04216         63.5557         6.45435 
        2.05781         62.9797         6.33538 
        2.07353         62.3309         6.21899 
        2.08928         61.6318         6.10527 
        2.10499          60.824         5.99471 
        2.12065         60.5115         5.88723 
        2.13633         59.6708         5.78229 
        2.15211         58.8634         5.67924 
        2.16785         57.9462           5.579 
        2.18349          57.609          5.4818 
        2.19916         56.9706         5.38673 
        2.21489         56.2217          5.2936 
        2.23063         55.5187         5.20261 
         2.2463         55.1947         5.11418 
        2.26194         54.7325         5.02802 
        2.27765         53.9402         4.94342 
        2.29341         53.4347         4.86054 
        2.30914         52.6543         4.77974 
        2.32486         52.1951         4.70082 
        2.34061         51.5736         4.62356 
        2.35635         51.1328         4.54811 
        2.37203         50.3341          4.4746 
        2.38768         50.0436         4.40288 
        2.40339         49.5485         4.33247 
        2.41914         48.6558         4.26344 
        2.43483         48.5196         4.19616 
         2.4505         48.0811         4.13045 
        2.46622          47.425         4.06592 
        2.48195         46.8505         4.00277 
        2.49759          46.425         3.94129 
        2.51328         46.0061         3.88096 
        2.52906         45.4853          3.8215 
        2.54479         45.0096         3.76352 
        2.56049         44.1985         3.70685 
        2.57618         43.9353          3.6514 
        2.59189          43.633         3.59701 
        2.60758         43.0175          3.5438 
        2.62325         42.6605         3.49175 
        2.63898         42.3334         3.44055 
        2.65468         41.8759          3.3905 
        2.67044         41.4818         3.34122 
        2.68618         41.0912         3.29304 
        2.70184         40.4219         3.24601 
        2.71755         40.0482         3.19977 
        2.73329         39.7407         3.15437 
        2.74897         39.4572            3.11 
        2.76462         39.0489         3.06658 
        2.78034         38.5794         3.02382 
        2.79607         38.0259         2.98182 
        2.81179         37.6884         2.94067 
        2.82749         37.3911         2.90035 
        2.84321         37.1042         2.86073 
        2.85893         36.5776         2.82187 
        2.87462         36.1203          2.7838 
        2.89033         35.8197          2.7464 
        2.90605         35.5126         2.70965 
        2.92176         35.2203          2.6736 
        2.93747         34.8956         2.63822 
        2.95318         34.5311         2.60348 
        2.96891         34.1412         2.56934 
        2.98456         33.9381         2.53597 
        3.00023         33.5581         2.50314 
        3.01596         33.1863          2.4708 
        3.03164         32.8915         2.43912 
        3.04738         32.4879          2.4079 
         3.0631         32.3638         2.37724 
        3.07883          31.933         2.34711 
        3.09456         31.5697         2.31751 
        3.11026         31.1283         2.28847 
        3.12596         30.9621         2.25993 
        3.14163         30.6964         2.23194 
        3.15734         30.4366         2.20436 
        3.17308         30.1846         2.17718 
        3.18879         29.8095         2.15053 
        3.20447         29.4206         2.12437 
         3.2202         29.2517         2.09857 
         3.2359         29.0279         2.07324 
        3.25157         28.7113         2.04839 
        3.26729         28.3588         2.02387 
        3.28304         28.1419          1.9997 
        3.29877         27.8186         1.97596 
        3.31446         27.5468         1.95266 
        3.33014         27.3104         1.92976 
        3.34585         27.0664         1.90718 
        3.36158         26.8301         1.88494 
        3.37727         26.5964         1.86312 
        3.39294         26.3177         1.84167 
        3.40867         26.0876         1.82048 
        3.42439         25.8937         1.79963 
        3.44008         25.6373         1.77915 
        3.45578         25.3955         1.75897 
        3.47153         25.1811         1.73907 
        3.48724          24.927          1.7195 
        3.50292         24.7133         1.70028 
        3.51859         24.4884         1.68137 
        3.53431         24.2085         1.66269 
        3.55007         23.9899         1.64424 
        3.56577         23.7583         1.62615 
        3.58146         23.5062         1.60833 
        3.59719         23.3914         1.59075 
        3.61292          23.201         1.57343 
        3.62859         22.9101         1.55644 
        3.64429         22.7041         1.53966 
        3.66003         22.5147         1.52308 
        3.67578          22.335         1.50675 
        3.69146         22.1456         1.49073 
        3.70712         21.9375         1.47496 
        3.72284         21.8129         1.45936 
        3.73853         21.6277         1.44402 
        3.75422         21.3755         1.42889 
        3.76993          21.206         1.41397 
        3.78564         20.9463         1.39927 
        3.80137         20.7898         1.38475 
        3.81707         20.5804         1.37047 
        3.83279         20.3957         1.35637 
        3.84853         20.2732         1.34246 
        3.86424         20.0794         1.32876 
        3.87992          19.864         1.31528 
        3.89561          19.774         1.30198 
        3.91134         19.5499         1.28885 
        3.92704         19.4007          1.2759 
        3.94273          19.174         1.26315 
        3.95845         19.0396         1.25055 
        3.97418         18.8872         1.23812 
        3.98988         18.7044         1.22587 
        4.00554         18.5666         1.21383 
        4.02125         18.3835         1.20191 
        4.03698         18.1934         1.19013 
        4.05268         18.0638         1.17854 
        4.06839         17.8983         1.16709 
         4.0841         17.7872          1.1558 
        4.09983         17.5868         1.14465 
        4.11555         17.4454         1.13364 
        4.13124         17.3105         1.12281 
        4.14693         17.1623         1.11211 
        4.16266         17.0545         1.10153 
        4.17839         16.8713         1.09109 
        4.19408         16.7741         1.08081 
        4.20977         16.6416         1.07066 
        4.22551         16.4608         1.06062 
        4.24123         16.3179         1.05071 
        4.25691         16.1706         1.04096 
        4.27259         16.0591         1.03133 
        4.28831         15.9315          1.0218 
        4.30404         15.8243         1.01238 
        4.31974         15.6638          1.0031 
        4.33543         15.5489        0.993945 
        4.35116          15.418         0.98488 
        4.36688         15.2847        0.975933 
        4.38255         15.1853         0.96713 
        4.39825         15.0273        0.958416 
        4.41398         14.9445        0.949793 
         4.4297         14.7929        0.941285 
        4.44541         14.6557        0.932883 
        4.46111         14.5409        0.924589 
        4.47683         14.4296        0.916391 
        4.49251          14.341        0.908309 
        4.50819         14.1958        0.900327 
         4.5239          14.085        0.892429 
        4.53962         13.9754        0.884616 
        4.55535         13.8789        0.876893 
        4.57106         13.7569        0.869273 
        4.58678         13.6465        0.861743 
         4.6025         13.5292        0.854299 
        4.61821          13.427        0.846945 
        4.63391         13.3045        0.839688 
         4.6496          13.206        0.832518 
        4.66532         13.1067        0.825421 
        4.68103         13.0131         0.81841 
        4.69673         12.9006        0.811487 
        4.71241         12.8056        0.804651 
        4.72811         12.6957        0.797882 
        4.74384         12.6314        0.791183 
        4.75955         12.4776        0.784571 
        4.77525         12.4008        0.778039 
        4.79096         12.3103        0.771572 
        4.80669         12.2175        0.765177 
         4.8224         12.1538        0.758861 
        4.83809         12.0292        0.752623 
        4.85379         11.9743        0.746451 
         4.8695         11.8423        0.740344 
        4.88521         11.7807        0.734308 
        4.90093         11.6919        0.728338 
        4.91663         11.5982         0.72244 
        4.93234         11.5208          0.7166 
        4.94807         11.4414        0.710822 
        4.96377         11.3331        0.705118 
        4.97943         11.2335        0.699489 
        4.99514         11.1468        0.693907 
        5.01086         11.0563        0.688382 
        5.02654         11.0103        0.682931 
        5.04227         10.8984        0.677522 
          5.058         10.8122         0.67217 
        5.07371         10.7472        0.666887 
        5.08942         10.6905        0.661659 
        5.10513         10.5957        0.656487 
        5.12084         10.5038        0.651368 
        5.13656         10.4279        0.646304 
        5.15225         10.3633        0.641303 
        5.16796         10.2938        0.636347 
        5.18369         10.2133        0.631438 
         5.1994         10.1193        0.626591 
        5.21509         10.0319        0.621798 
        5.23079         9.97728        0.617051 
        5.24649         9.89282        0.612356 
        5.26217         9.83358        0.607714 
        5.27788         9.74419        0.603113 
        5.29359         9.69904        0.598559 
        5.30933         9.60768        0.594045 
        5.32504         9.55223        0.589586 
        5.34073          9.4747        0.585177 
        5.35646         9.40593        0.580805 
        5.37218         9.32831        0.576476 
        5.38789         9.26603        0.572199 
        5.40357         9.22087         0.56797 
        5.41929         9.14426        0.563774 
        5.43502          9.0943        0.559621 
         5.4507         9.01138        0.555519 
        5.46639         8.94229        0.551457 
        5.48212         8.88184        0.547427 
        5.49786          8.8322        0.543432 
        5.51353         8.75922        0.539497 
        5.52921         8.72427        0.535597 
        5.54495         8.62858        0.531724 
        5.56066         8.57874        0.527894 
        5.57637         8.51357        0.524102 
        5.59207         8.45313         0.52035 
        5.60778         8.39203        0.516634 
        5.62346          8.3527         0.51296 
        5.63916         8.29374        0.509317 
        5.65487         8.22967        0.505708 
         5.6706         8.17108         0.50213 
        5.68633         8.11327        0.498586 
        5.70203         8.06301        0.495082 
        5.71773         8.00618        0.491613 
        5.73344         7.95666        0.488176 
        5.74916         7.88334        0.484768 
        5.76486         7.84327        0.481397 
        5.78054          7.7959        0.478064 
        5.79626         7.71958        0.474753 
          5.812         7.68592         0.47147 
         5.8277         7.65722        0.468228 
        5.84339         7.57249        0.465016 
        5.85911         7.53128        0.461828 
        5.87484         7.47159        0.458671 
        5.89053         7.41895        0.455549 
        5.90623         7.38069        0.452455 
        5.92195         7.33146        0.449384 
        5.93767         7.27753        0.446344 
        5.95336         7.24431        0.443337 
        5.96905         7.18716        0.440358 
        5.98476         7.13727        0.437403 
        6.00048          7.0811        0.434474 
        6.01617         7.03385        0.431576 
        6.03185         6.99716        0.428708 
        6.04756         6.95113        0.425858 
        6.06331         6.90408        0.423029 
        6.07903         6.84869        0.420232 
        6.09473         6.81842        0.417462 
        6.11044          6.7774        0.414715 
        6.12616         6.72358        0.411993 
        6.14186         6.68469        0.409298 
        6.15755         6.64422        0.406627 
        6.17326         6.60865        0.403979 
        6.18898         6.54318        0.401352 
        6.20467         6.51742        0.398754 
        6.22036         6.46189        0.396179 
         6.2361         6.42617        0.393619 
         6.2518         6.38348        0.391087 
        6.26748         6.34066        0.388582 
        6.28319         6.29653        0.386092 
        6.29893         6.26611        0.383622 
        6.31463         6.23007        0.381178 
        6.33033         6.18314        0.378756 
        6.34604           6.138        0.376354 
        6.36177         6.10544        0.373969 
        6.37747         6.05616         0.37161 
