# k  (h/Mpc)    Pcb(k)  (Mpc/h)^3    Pcb_linear(k) (Mpc/h)^3   ShotnoiseSubtracted = true
      0.0200456         23911.1         24345.1 
      0.0350414         18268.1         17698.1 
      0.0492313         12551.4         12859.1 
      0.0637834         10114.7         10689.6 
      0.0800726         7932.33         8484.09 
       0.096163         6402.37         6155.95 
       0.111083         5214.61         4910.14 
       0.126058         4307.52         4351.39 
       0.142273         3783.02         3686.58 
       0.158546         3103.13         2911.63 
        0.17375         2785.84         2453.04 
       0.188953         2651.99         2221.17 
       0.204907         2282.62         1965.29 
       0.220756         2068.08         1662.75 
        0.23588          1846.9         1446.45 
         0.2514         1677.37         1314.08 
       0.267535         1615.08         1189.02 
       0.283568         1444.97         1048.56 
       0.299022         1376.38          934.21 
       0.314451         1435.84         853.805 
       0.330372         1278.81          783.27 
       0.346141         1174.13         710.937 
       0.361624         1126.17         646.144 
       0.377134         1082.73         594.555 
       0.392932         1028.89          550.13 
       0.408854         989.187         507.113 
       0.424564          968.71         467.414 
       0.440253         902.225         433.346 
       0.455999         862.504         403.724 
       0.471626         875.513         376.501 
        0.48727         827.385         351.036 
       0.502856          799.77         328.159 
       0.518488         771.808         307.746 
       0.534347         744.973          288.77 
       0.550082         710.679         271.273 
       0.565732         698.658         255.266 
       0.581496         683.627         240.605 
       0.597222         671.445          227.16 
       0.612804         654.303         214.797 
       0.628434         627.695         203.273 
       0.644267         611.141         192.499 
       0.660051         604.631         182.569 
       0.675724         592.886         173.401 
       0.691403         573.196         164.854 
       0.707174         557.707         156.835 
       0.722871         553.348         149.381 
        0.73838         539.023         142.491 
       0.754018         527.716         135.984 
       0.769845         520.211         129.813 
        0.78569         508.701         124.019 
       0.801365         492.425         118.637 
       0.817031         487.599         113.579 
       0.832809         479.585         108.785 
       0.848511         471.832         104.291 
       0.864097         462.084         100.083 
       0.879701         462.253         96.1038 
       0.895507         443.831         92.2953 
       0.911279         438.525          88.702 
        0.92691         432.381         85.3307 
       0.942635         426.689         82.1167 
       0.958396         414.283         79.0622 
       0.974128         407.964         76.1694 
       0.989692         397.488         73.4504 
        1.00528         392.732         70.8608 
        1.02113         386.027         68.3559 
        1.03692         380.385         65.9818 
        1.05264          375.27         63.7319 
        1.06832         366.428         61.5909 
        1.08405         365.284         59.5429 
        1.09979          356.76         57.5871 
        1.11537         347.976          55.739 
        1.13105         343.966         53.9612 
        1.14679         337.803         52.2544 
        1.16256           335.9         50.6184 
        1.17828         330.496         49.0581 
        1.19395         322.193         47.5691 
         1.2097         319.158         46.1345 
        1.22537          314.42         44.7662 
          1.241         307.711         43.4577 
        1.25666         304.672         42.1985 
        1.27241         300.947         40.9834 
        1.28819         293.185         39.8143 
        1.30392         292.974         38.6943 
        1.31957         285.395         37.6225 
        1.33529         281.323         36.5876 
        1.35108         280.092         35.5875 
        1.36674         272.662         34.6322 
         1.3824         269.048         33.7128 
        1.39811          265.68         32.8239 
        1.41389          260.34         31.9638 
        1.42964         256.675          31.136 
        1.44531         253.425         30.3416 
        1.46101         248.744         29.5734 
        1.47667         246.349         28.8341 
        1.49229         242.961         28.1221 
        1.50793         238.884         27.4334 
        1.52367         235.068         26.7634 
        1.53953         231.661         26.1114 
        1.55526         228.509         25.4863 
        1.57092         226.585         24.8843 
        1.58662         221.594         24.3004 
        1.60235         218.755         23.7342 
        1.61809         216.837         23.1857 
        1.63369         212.676         22.6595 
        1.64941         209.677         22.1459 
        1.66519         206.762         21.6463 
        1.68085         203.062         21.1658 
        1.69652         200.867         20.6998 
        1.71228         197.838         20.2451 
        1.72806         195.581         19.8038 
        1.74368         193.071         19.3801 
        1.75933         191.559          18.968 
        1.77505          188.52          18.566 
        1.79081         185.401         18.1749 
         1.8065         184.388         17.7968 
        1.82218         179.514         17.4298 
        1.83797         178.146         17.0706 
        1.85367         175.598         16.7236 
        1.86928         172.791         16.3883 
        1.88497         171.024         16.0604 
        1.90073          169.49         15.7402 
        1.91647         166.428         15.4291 
        1.93218         163.636         15.1271 
        1.94787         161.609         14.8336 
        1.96363         160.706         14.5468 
        1.97935         158.706         14.2681 
        1.99499         156.222         13.9984 
        2.01064          153.05         13.7352 
         2.0264         152.495         13.4771 
        2.04216         149.597         13.2258 
        2.05781         147.405         12.9825 
        2.07353         146.573         12.7445 
        2.08928         144.661         12.5119 
        2.10499         142.732         12.2858 
        2.12065          141.19         12.0659 
        2.13633         139.105         11.8513 
        2.15211         137.069         11.6404 
        2.16785         135.749         11.4353 
        2.18349         134.206         11.2365 
        2.19916         132.258         11.0419 
        2.21489         130.396         10.8513 
        2.23063         128.917         10.6651 
         2.2463         127.118         10.4841 
        2.26194         126.071         10.3078 
        2.27765         123.983         10.1346 
        2.29341         122.997         9.96494 
        2.30914         121.387         9.79952 
        2.32486         119.715         9.63796 
        2.34061         117.898         9.47977 
        2.35635         117.065         9.32527 
        2.37203          115.31         9.17476 
        2.38768         114.372         9.02788 
        2.40339         112.262         8.88369 
        2.41914         111.032         8.74231 
        2.43483         110.009         8.60451 
         2.4505         108.996         8.46992 
        2.46622         106.981         8.33774 
        2.48195         106.036         8.20838 
        2.49759         104.323         8.08245 
        2.51328         103.335         7.95885 
        2.52906         102.403         7.83704 
        2.54479         100.976         7.71824 
        2.56049         99.6109         7.60213 
        2.57618          98.514         7.48852 
        2.59189         97.9211         7.37706 
        2.60758         96.2591         7.26804 
        2.62325         95.4734         7.16135 
        2.63898         94.2104         7.05644 
        2.65468         93.3724         6.95385 
        2.67044         92.4686         6.85287 
        2.68618          90.955         6.75412 
        2.70184         90.0595         6.65771 
        2.71755         89.2635         6.56295 
        2.73329          87.784         6.46989 
        2.74897         86.9694         6.37893 
        2.76462         86.6349         6.28992 
        2.78034         85.2748         6.20225 
        2.79607         84.0239         6.11616 
        2.81179         83.2902         6.03179 
        2.82749         82.6433         5.94912 
        2.84321         81.3463          5.8679 
        2.85893         80.1366         5.78823 
        2.87462         79.6983         5.71016 
        2.89033         78.6913         5.63347 
        2.90605         77.8077         5.55812 
        2.92176         77.2596         5.48419 
        2.93747         76.2793         5.41164 
        2.95318         75.1401         5.34039 
        2.96891         74.7468         5.27039 
        2.98456         73.5265         5.20195 
        3.00023         72.9034         5.13463 
        3.01596         72.3004         5.06829 
        3.03164         71.3634         5.00331 
        3.04738         70.9902         4.93928 
         3.0631         69.8285          4.8764 
        3.07883          69.244          4.8146 
        3.09456         68.3002         4.75389 
        3.11026         67.9619         4.69432 
        3.12596         66.9934         4.63577 
        3.14163         66.4019         4.57836 
        3.15734         65.4342         4.52179 
        3.17308          65.046         4.46603 
        3.18879         64.3226         4.41137 
        3.20447         63.7184          4.3577 
         3.2202         62.7223         4.30476 
         3.2359         62.2126          4.2528 
        3.25157         61.7171         4.20181 
        3.26729         60.8888         4.15151 
        3.28304         60.2162         4.10193 
        3.29877         59.8012         4.05322 
        3.31446         58.9043         4.00542 
        3.33014         58.4784         3.95842 
        3.34585         57.8252         3.91211 
        3.36158         57.4043         3.86647 
        3.37727         56.8873          3.8217 
        3.39294         56.1428         3.77768 
        3.40867         55.7344         3.73419 
        3.42439         55.0469         3.69142 
        3.44008         54.5173         3.64939 
        3.45578         53.9638         3.60799 
        3.47153         53.4479         3.56714 
        3.48724         53.0116           3.527 
        3.50292         52.5201         3.48756 
        3.51859         51.9715         3.44875 
        3.53431         51.3888         3.41041 
        3.55007          50.753         3.37255 
        3.56577         50.2692         3.33542 
        3.58146         49.8163         3.29887 
        3.59719         49.4481         3.26277 
        3.61292         48.8034         3.22723 
        3.62859         48.4567         3.19236 
        3.64429         47.9875         3.15793 
        3.66003         47.5807          3.1239 
        3.67578         46.9956         3.09039 
        3.69146         46.6542          3.0575 
        3.70712         46.2294         3.02514 
        3.72284         45.7491         2.99313 
        3.73853         45.3475         2.96164 
        3.75422         44.9215          2.9306 
        3.76993         44.5277         2.89997 
        3.78564          44.104         2.86979 
        3.80137         43.6876         2.83999 
        3.81707         43.1925         2.81067 
        3.83279         42.8367         2.78175 
        3.84853         42.4724         2.75318 
        3.86424         42.0415         2.72508 
        3.87992          41.591          2.6974 
        3.89561         41.3451         2.67011 
        3.91134          40.865         2.64314 
        3.92704         40.5382         2.61658 
        3.94273         40.1895          2.5904 
        3.95845         39.7093         2.56454 
        3.97418         39.4171         2.53902 
        3.98988         39.0983         2.51389 
        4.00554         38.6216         2.48916 
        4.02125          38.361          2.4647 
        4.03698         37.9782         2.44052 
        4.05268         37.6815         2.41673 
        4.06839         37.3633         2.39323 
         4.0841           37.04         2.37006 
        4.09983         36.6815         2.34715 
        4.11555         36.4193         2.32456 
        4.13124         35.9004         2.30233 
        4.14693         35.7115         2.28037 
        4.16266         35.4054         2.25865 
        4.17839         34.9943         2.23722 
        4.19408         34.7483         2.21612 
        4.20977         34.4394         2.19528 
        4.22551         34.1574         2.17466 
        4.24123         33.8626         2.15433 
        4.25691         33.5127         2.13431 
        4.27259         33.2548         2.11454 
        4.28831         33.0495         2.09498 
        4.30404         32.7597         2.07564 
        4.31974         32.4278          2.0566 
        4.33543         32.0905          2.0378 
        4.35116         31.8772         2.01919 
        4.36688         31.5459         2.00083 
        4.38255         31.3691         1.98276 
        4.39825         31.1346         1.96487 
        4.41398         30.8512         1.94717 
         4.4297         30.5191          1.9297 
        4.44541         30.3516         1.91245 
        4.46111         29.9714         1.89543 
        4.47683         29.8761          1.8786 
        4.49251          29.599         1.86201 
        4.50819         29.2993         1.84562 
         4.5239         28.9939         1.82941 
        4.53962          28.775         1.81337 
        4.55535         28.5884         1.79752 
        4.57106         28.2422         1.78188 
        4.58678         28.1076         1.76642 
         4.6025          27.869         1.75114 
        4.61821         27.6059         1.73604 
        4.63391         27.4342         1.72115 
         4.6496         27.1615         1.70643 
        4.66532         26.9491         1.69186 
        4.68103         26.6781         1.67747 
        4.69673         26.5555         1.66326 
        4.71241         26.2806         1.64922 
        4.72811          26.104         1.63533 
        4.74384         25.9677         1.62158 
        4.75955         25.7692         1.60801 
        4.77525         25.4883          1.5946 
        4.79096         25.2712         1.58132 
        4.80669         25.0655         1.56819 
         4.8224         24.9109         1.55523 
        4.83809         24.6452         1.54242 
        4.85379         24.5053         1.52975 
         4.8695          24.286         1.51722 
        4.88521         24.0955         1.50483 
        4.90093         23.9106         1.49257 
        4.91663         23.7553         1.48047 
        4.93234         23.5142         1.46848 
        4.94807         23.2926         1.45662 
        4.96377         23.1447         1.44491 
        4.97943         23.0189         1.43336 
        4.99514         22.8449          1.4219 
        5.01086         22.6521         1.41056 
        5.02654          22.457         1.39937 
        5.04227         22.2427         1.38827 
          5.058          22.028         1.37728 
        5.07371         21.9394         1.36644 
        5.08942          21.737         1.35571 
        5.10513         21.6028         1.34509 
        5.12084         21.4078         1.33458 
        5.13656         21.2734         1.32419 
        5.15225         21.1502         1.31392 
        5.16796         20.9562         1.30375 
        5.18369         20.7789         1.29368 
         5.1994         20.5974         1.28373 
        5.21509         20.4742         1.27389 
        5.23079         20.3332         1.26414 
        5.24649          20.195         1.25451 
        5.26217         19.9957         1.24498 
        5.27788         19.8898         1.23554 
        5.29359         19.7076         1.22619 
        5.30933         19.5323         1.21693 
        5.32504         19.4179         1.20777 
        5.34073           19.27         1.19873 
        5.35646         19.0791         1.18975 
        5.37218         18.9976         1.18087 
        5.38789         18.8603         1.17209 
        5.40357         18.6953         1.16341 
        5.41929         18.5804          1.1548 
        5.43502         18.4415         1.14627 
         5.4507         18.3019         1.13786 
        5.46639         18.1671         1.12952 
        5.48212         18.0398         1.12125 
        5.49786         17.8823         1.11305 
        5.51353         17.7616         1.10497 
        5.52921         17.6213         1.09697 
        5.54495         17.5151         1.08902 
        5.56066         17.3561         1.08116 
        5.57637         17.2282         1.07338 
        5.59207         17.1022         1.06568 
        5.60778         17.0611         1.05805 
        5.62346          16.851         1.05051 
        5.63916         16.7462         1.04304 
        5.65487         16.6028         1.03563 
         5.6706         16.5296         1.02829 
        5.68633         16.4176         1.02102 
        5.70203         16.2984         1.01383 
        5.71773         16.1808         1.00671 
        5.73344         16.0717        0.999654 
        5.74916         15.9418        0.992661 
        5.76486         15.8299        0.985744 
        5.78054         15.6938        0.978904 
        5.79626         15.6571        0.972109 
          5.812         15.5093        0.965372 
         5.8277         15.3628        0.958719 
        5.84339         15.2715        0.952128 
        5.85911         15.1704        0.945587 
        5.87484         15.0576        0.939108 
        5.89053         14.9504        0.932703 
        5.90623         14.8563        0.926354 
        5.92195         14.7193        0.920053 
        5.93767         14.6398        0.913815 
        5.95336         14.5417        0.907644 
        5.96905         14.4437        0.901533 
        5.98476         14.3505        0.895469 
        6.00048         14.2335         0.88946 
        6.01617         14.1558        0.883513 
        6.03185         14.0534        0.877628 
        6.04756         13.9627        0.871782 
        6.06331         13.8676        0.865977 
        6.07903         13.7256        0.860237 
        6.09473         13.6457        0.854554 
        6.11044         13.5837        0.848918 
        6.12616         13.4933        0.843333 
        6.14186         13.4007        0.837804 
        6.15755         13.2934        0.832325 
        6.17326         13.2097        0.826891 
        6.18898         13.1044        0.821502 
        6.20467         13.0074        0.816171 
        6.22036         12.9313        0.810888 
         6.2361         12.8276        0.805638 
         6.2518         12.7498        0.800442 
        6.26748         12.6908        0.795303 
        6.28319         12.5893        0.790196 
        6.29893         12.5116        0.785129 
        6.31463         12.4335        0.780114 
        6.33033         12.3389        0.775146 
        6.34604         12.2513        0.770217 
        6.36177         12.1879        0.765326 
        6.37747         12.0999        0.760486 
