# k  (h/Mpc)    Pcb(k)  (Mpc/h)^3    Pcb_linear(k) (Mpc/h)^3   ShotnoiseSubtracted = true
      0.0200456         25910.3         26571.1 
      0.0350414         18321.8         19316.3 
      0.0492313         13670.8         14034.8 
      0.0637834         11887.4           11667 
      0.0800726         9369.09         9259.84 
       0.096163         6484.22         6718.82 
       0.111083         5242.21         5359.11 
       0.126058         4815.66         4749.26 
       0.142273          4173.6         4023.67 
       0.158546         3708.92         3177.85 
        0.17375         2977.71         2677.34 
       0.188953         2918.36         2424.27 
       0.204907         2740.41         2144.98 
       0.220756          2386.5         1814.79 
        0.23588          2148.1         1578.71 
         0.2514         1878.09         1434.24 
       0.267535         1883.66         1297.74 
       0.283568         1708.59         1144.43 
       0.299022         1623.98         1019.63 
       0.314451         1546.33         931.873 
       0.330372         1414.02         854.889 
       0.346141         1380.95         775.942 
       0.361624         1327.02         705.225 
       0.377134         1240.86         648.918 
       0.392932         1185.62         600.431 
       0.408854         1170.32         553.482 
       0.424564         1076.79         510.152 
       0.440253         1055.66          472.97 
       0.455999         1033.69         440.639 
       0.471626         996.233         410.927 
        0.48727         956.486         383.133 
       0.502856         923.965         358.164 
       0.518488         922.091         335.886 
       0.534347         865.448         315.174 
       0.550082         851.465         296.078 
       0.565732         840.627         278.607 
       0.581496         800.196         262.605 
       0.597222         780.641         247.931 
       0.612804         770.791         234.437 
       0.628434         750.194         221.859 
       0.644267         731.168           210.1 
       0.660051         715.444         199.263 
       0.675724         705.595         189.256 
       0.691403         685.152         179.927 
       0.707174         662.239         171.175 
       0.722871         650.422          163.04 
        0.73838         639.218          155.52 
       0.754018         628.282         148.418 
       0.769845         618.096         141.682 
        0.78569         607.827         135.359 
       0.801365         590.941         129.485 
       0.817031         580.072         123.964 
       0.832809         572.485         118.732 
       0.848511         560.612         113.827 
       0.864097         542.311         109.234 
       0.879701         534.702         104.891 
       0.895507         533.518         100.734 
       0.911279         521.347         96.8125 
        0.92691         513.301         93.1329 
       0.942635         498.989         89.6251 
       0.958396         488.296         86.2914 
       0.974128         483.067          83.134 
       0.989692         479.851         80.1664 
        1.00528          464.13           77.34 
        1.02113         461.499         74.6061 
        1.03692         451.707         72.0149 
        1.05264         445.348         69.5593 
        1.06832         434.832         67.2225 
        1.08405         429.115         64.9872 
        1.09979         422.873         62.8527 
        1.11537         416.174         60.8355 
        1.13105         409.713         58.8952 
        1.14679         398.337         57.0324 
        1.16256         390.778         55.2468 
        1.17828         389.757         53.5438 
        1.19395         381.802         51.9186 
         1.2097         371.585         50.3528 
        1.22537         366.156         48.8594 
          1.241         360.083         47.4313 
        1.25666         357.213         46.0569 
        1.27241         350.334         44.7307 
        1.28819         343.179         43.4547 
        1.30392         337.772         42.2323 
        1.31957         332.978         41.0626 
        1.33529         330.323          39.933 
        1.35108         322.657         38.8415 
        1.36674         317.297         37.7988 
         1.3824         313.712         36.7954 
        1.39811          308.14         35.8252 
        1.41389         304.759         34.8864 
        1.42964         300.054         33.9829 
        1.44531         297.257         33.1159 
        1.46101         289.611         32.2774 
        1.47667         285.719         31.4705 
        1.49229         282.661         30.6935 
        1.50793         275.655         29.9418 
        1.52367         274.294         29.2106 
        1.53953         268.408         28.4989 
        1.55526         265.726         27.8167 
        1.57092         262.464         27.1597 
        1.58662          259.06         26.5223 
        1.60235         254.686         25.9043 
        1.61809         250.606         25.3057 
        1.63369         248.157         24.7314 
        1.64941         243.303         24.1708 
        1.66519         241.383         23.6256 
        1.68085         238.556         23.1011 
        1.69652         234.991         22.5925 
        1.71228         228.935         22.0963 
        1.72806         226.102         21.6146 
        1.74368         222.745         21.1522 
        1.75933         220.851         20.7024 
        1.77505         218.069         20.2636 
        1.79081         215.174         19.8367 
         1.8065         210.186          19.424 
        1.82218         207.724         19.0235 
        1.83797         207.014         18.6315 
        1.85367         203.231         18.2527 
        1.86928         199.309         17.8868 
        1.88497         197.517         17.5289 
        1.90073         194.251         17.1795 
        1.91647         192.916         16.8399 
        1.93218         189.307         16.5103 
        1.94787         186.092           16.19 
        1.96363         183.824         15.8769 
        1.97935         181.126         15.5728 
        1.99499         179.313         15.2783 
        2.01064         176.728         14.9911 
         2.0264           175.3         14.7094 
        2.04216         172.855         14.4351 
        2.05781         170.395         14.1696 
        2.07353         168.429         13.9098 
        2.08928         164.857          13.656 
        2.10499         163.993         13.4092 
        2.12065         161.758         13.1692 
        2.13633         158.992         12.9349 
        2.15211         156.992         12.7048 
        2.16785         155.833         12.4809 
        2.18349         153.854         12.2639 
        2.19916         151.569         12.0515 
        2.21489         149.986         11.8435 
        2.23063         147.892         11.6403 
         2.2463         145.651         11.4428 
        2.26194         143.374         11.2503 
        2.27765         142.137         11.0613 
        2.29341         140.147         10.8761 
        2.30914         138.906         10.6956 
        2.32486          137.09         10.5192 
        2.34061         135.245         10.3466 
        2.35635         133.655         10.1779 
        2.37203         132.096         10.0137 
        2.38768         130.198         9.85335 
        2.40339         128.778         9.69598 
        2.41914          127.26         9.54167 
        2.43483         125.517         9.39127 
         2.4505         124.374         9.24437 
        2.46622         122.742         9.10011 
        2.48195         120.764         8.95892 
        2.49759         119.726         8.82148 
        2.51328         118.822         8.68657 
        2.52906         117.156         8.55363 
        2.54479         115.274         8.42396 
        2.56049         113.473         8.29724 
        2.57618         112.694         8.17324 
        2.59189         111.656         8.05158 
        2.60758          110.21          7.9326 
        2.62325          108.66         7.81616 
        2.63898         107.528         7.70166 
        2.65468         106.154         7.58969 
        2.67044         104.865         7.47947 
        2.68618         104.015         7.37169 
        2.70184         102.975         7.26647 
        2.71755           101.5         7.16304 
        2.73329         100.483         7.06146 
        2.74897         99.2909         6.96219 
        2.76462         98.2168         6.86505 
        2.78034         96.8825         6.76936 
        2.79607         95.7603         6.67539 
        2.81179         95.2543         6.58332 
        2.82749         94.0761         6.49308 
        2.84321          92.602         6.40444 
        2.85893         91.7944         6.31748 
        2.87462          90.824         6.23228 
        2.89033         89.6764         6.14857 
        2.90605         88.8512         6.06633 
        2.92176         87.7249         5.98564 
        2.93747          86.912         5.90646 
        2.95318         86.2538         5.82869 
        2.96891         85.3777         5.75229 
        2.98456         84.3275         5.67759 
        3.00023         83.4284         5.60412 
        3.01596          82.284         5.53171 
        3.03164         81.5175         5.46079 
        3.04738         80.5549         5.39091 
         3.0631         79.7608         5.32227 
        3.07883         78.7531         5.25483 
        3.09456         78.0441         5.18857 
        3.11026         77.3556         5.12355 
        3.12596         76.5513         5.05965 
        3.14163         75.7355         4.99699 
        3.15734         74.9913         4.93524 
        3.17308         74.1468         4.87439 
        3.18879         73.4159         4.81473 
        3.20447         72.4799         4.75615 
         3.2202         71.8362         4.69837 
         3.2359         71.0519         4.64166 
        3.25157         70.6321         4.58601 
        3.26729         69.7015          4.5311 
        3.28304         69.1182         4.47699 
        3.29877         68.2164         4.42383 
        3.31446         67.6592         4.37166 
        3.33014         66.8394         4.32036 
        3.34585         66.0458         4.26982 
        3.36158         65.5563            4.22 
        3.37727         64.9443         4.17114 
        3.39294         64.0229         4.12309 
        3.40867         63.6418         4.07563 
        3.42439         63.0171         4.02894 
        3.44008          62.192         3.98308 
        3.45578         61.6674         3.93789 
        3.47153         60.9995         3.89331 
        3.48724         60.5623         3.84949 
        3.50292         60.0218         3.80645 
        3.51859         59.3114         3.76409 
        3.53431         58.7333         3.72224 
        3.55007         58.2529         3.68092 
        3.56577         57.7062          3.6404 
        3.58146         57.1164          3.6005 
        3.59719         56.5835         3.56111 
        3.61292         56.0074         3.52232 
        3.62859          55.483         3.48425 
        3.64429         55.0867         3.44668 
        3.66003         54.5612         3.40954 
        3.67578         53.8096         3.37296 
        3.69146         53.5212         3.33706 
        3.70712         53.0663         3.30175 
        3.72284         52.5209         3.26681 
        3.73853         52.0607         3.23244 
        3.75422         51.4233         3.19856 
        3.76993         51.0551         3.16513 
        3.78564         50.4925         3.13219 
        3.80137         50.0785         3.09966 
        3.81707         49.5729         3.06767 
        3.83279         49.1431          3.0361 
        3.84853         48.6839         3.00492 
        3.86424         48.3296         2.97425 
        3.87992          47.885         2.94404 
        3.89561         47.4875         2.91426 
        3.91134         47.0651         2.88482 
        3.92704         46.5419         2.85583 
        3.94273         46.1605         2.82726 
        3.95845         45.7246         2.79903 
        3.97418         45.3321         2.77118 
        3.98988         44.8488         2.74375 
        4.00554         44.5295         2.71676 
        4.02125         44.0324         2.69006 
        4.03698         43.5991         2.66367 
        4.05268          43.288          2.6377 
        4.06839         42.8111         2.61206 
         4.0841         42.5238         2.58676 
        4.09983         42.2152         2.56177 
        4.11555         41.6883         2.53711 
        4.13124         41.3689         2.51285 
        4.14693         41.1088         2.48888 
        4.16266         40.7122         2.46517 
        4.17839         40.3967         2.44178 
        4.19408         39.9335         2.41875 
        4.20977          39.627         2.39601 
        4.22551         39.3761          2.3735 
        4.24123         38.9617         2.35131 
        4.25691          38.633         2.32946 
        4.27259         38.2031         2.30788 
        4.28831         38.0134         2.28653 
        4.30404         37.6836         2.26543 
        4.31974         37.3534         2.24464 
        4.33543         36.9953         2.22413 
        4.35116         36.7646         2.20382 
        4.36688         36.4769         2.18377 
        4.38255         36.0714         2.16405 
        4.39825         35.7596         2.14453 
        4.41398         35.4422         2.12521 
         4.4297         35.1582         2.10615 
        4.44541         34.8398         2.08732 
        4.46111         34.5803         2.06874 
        4.47683         34.2763         2.05037 
        4.49251         34.0303         2.03226 
        4.50819         33.6962         2.01438 
         4.5239         33.5203         1.99668 
        4.53962         33.1541         1.97918 
        4.55535         32.9208         1.96188 
        4.57106          32.611         1.94481 
        4.58678          32.246         1.92793 
         4.6025         32.1114         1.91126 
        4.61821          31.794         1.89478 
        4.63391          31.488         1.87852 
         4.6496          31.247         1.86246 
        4.66532         31.0137         1.84656 
        4.68103         30.7664         1.83085 
        4.69673         30.5039         1.81534 
        4.71241         30.2867         1.80002 
        4.72811          30.093         1.78486 
        4.74384         29.7717         1.76985 
        4.75955         29.5229         1.75503 
        4.77525         29.3349          1.7404 
        4.79096         29.0399         1.72591 
        4.80669         28.8625         1.71158 
         4.8224         28.6645         1.69743 
        4.83809         28.3752         1.68346 
        4.85379         28.1685         1.66963 
         4.8695         27.9459         1.65595 
        4.88521         27.7243         1.64242 
        4.90093         27.5201         1.62905 
        4.91663         27.2373         1.61583 
        4.93234         27.0232         1.60275 
        4.94807         26.8595         1.58981 
        4.96377         26.6353         1.57703 
        4.97943          26.454         1.56442 
        4.99514         26.1679         1.55191 
        5.01086         26.0617         1.53953 
        5.02654         25.8059         1.52732 
        5.04227         25.5987          1.5152 
          5.058         25.4595         1.50321 
        5.07371         25.2223         1.49138 
        5.08942         25.0178         1.47967 
        5.10513         24.8171         1.46808 
        5.12084         24.6727         1.45661 
        5.13656         24.4406         1.44527 
        5.15225         24.2596         1.43406 
        5.16796         24.0909         1.42296 
        5.18369         23.9306         1.41196 
         5.1994         23.7139          1.4011 
        5.21509          23.547         1.39037 
        5.23079         23.3159         1.37973 
        5.24649         23.1283         1.36922 
        5.26217         22.9964         1.35882 
        5.27788          22.836         1.34851 
        5.29359         22.6748         1.33831 
        5.30933         22.4756          1.3282 
        5.32504         22.2847         1.31821 
        5.34073         22.1497         1.30833 
        5.35646         22.0163         1.29854 
        5.37218         21.8375         1.28884 
        5.38789         21.6292         1.27926 
        5.40357         21.4845         1.26979 
        5.41929         21.3294         1.26039 
        5.43502         21.2117         1.25108 
         5.4507         21.0576          1.2419 
        5.46639          20.886          1.2328 
        5.48212         20.7536         1.22377 
        5.49786           20.55         1.21482 
        5.51353         20.4127         1.20601 
        5.52921         20.2412         1.19727 
        5.54495         20.0681          1.1886 
        5.56066         19.9959         1.18002 
        5.57637         19.8085         1.17152 
        5.59207          19.652         1.16312 
        5.60778         19.5519          1.1548 
        5.62346         19.3863         1.14657 
        5.63916         19.2518         1.13841 
        5.65487         19.1191         1.13033 
         5.6706         18.9426         1.12231 
        5.68633          18.851         1.11437 
        5.70203         18.6707         1.10653 
        5.71773         18.5348         1.09876 
        5.73344         18.4339         1.09106 
        5.74916         18.2817         1.08343 
        5.76486         18.1781         1.07588 
        5.78054         18.0858         1.06841 
        5.79626         17.9369         1.06099 
          5.812         17.7835         1.05364 
         5.8277         17.6894         1.04638 
        5.84339         17.5916         1.03919 
        5.85911         17.4519         1.03205 
        5.87484          17.297         1.02498 
        5.89053         17.1765         1.01798 
        5.90623         17.1005         1.01106 
        5.92195         16.9764         1.00418 
        5.93767         16.8689         0.99737 
        5.95336         16.7126        0.990635 
        5.96905         16.5868        0.983965 
        5.98476         16.4831        0.977347 
        6.00048         16.3562        0.970788 
        6.01617         16.2306        0.964298 
        6.03185         16.1694        0.957874 
        6.04756         16.0129        0.951494 
        6.06331          15.912        0.945158 
        6.07903         15.7763        0.938894 
        6.09473         15.6949        0.932691 
        6.11044         15.5851         0.92654 
        6.12616         15.4692        0.920444 
        6.14186         15.3782         0.91441 
        6.15755         15.2735         0.90843 
        6.17326         15.1737        0.902498 
        6.18898          15.053        0.896617 
        6.20467         14.9539        0.890799 
        6.22036          14.851        0.885033 
         6.2361         14.7545        0.879302 
         6.2518         14.6741        0.873631 
        6.26748         14.5728        0.868023 
        6.28319         14.4688        0.862448 
        6.29893         14.3598        0.856918 
        6.31463         14.2703        0.851445 
        6.33033         14.1718        0.846022 
        6.34604         14.0747        0.840642 
        6.36177         13.9895        0.835304 
        6.37747         13.8803        0.830022 
