# k  (h/Mpc)    Pcb(k)  (Mpc/h)^3    Pcb_linear(k) (Mpc/h)^3   ShotnoiseSubtracted = true
      0.0200456         19555.6         19888.9 
      0.0350414           14900         14458.5 
      0.0492313         10305.6         10505.3 
      0.0637834         8312.02         8732.96 
      0.0800726         6528.05         6931.13 
       0.096163         5221.35         5029.14 
       0.111083         4251.67         4011.37 
       0.126058          3517.4         3554.89 
       0.142273         3072.02         3011.78 
       0.158546          2522.3         2378.67 
        0.17375         2243.31         2004.03 
       0.188953         2116.43          1814.6 
       0.204907         1818.19         1605.55 
       0.220756         1640.42          1358.4 
        0.23588         1463.54         1181.69 
         0.2514         1320.61         1073.55 
       0.267535         1277.53         971.378 
       0.283568         1132.53         856.625 
       0.299022         1080.76         763.209 
       0.314451          1121.1         697.521 
       0.330372         981.213         639.897 
       0.346141         902.264         580.804 
       0.361624         865.653         527.872 
       0.377134         826.746         485.725 
       0.392932         791.573         449.432 
       0.408854         756.639         414.289 
       0.424564         738.703         381.856 
       0.440253         680.738         354.025 
       0.455999         651.098         329.825 
       0.471626         663.138         307.585 
        0.48727         625.539         286.781 
       0.502856         593.142         268.091 
       0.518488         581.198         251.415 
       0.534347         552.598         235.913 
       0.550082         527.818         221.619 
       0.565732         521.927         208.541 
       0.581496         510.013         196.564 
       0.597222         497.002          185.58 
       0.612804         485.589         175.479 
       0.628434         465.461         166.065 
       0.644267         450.635         157.263 
       0.660051         444.955         149.151 
       0.675724         435.987         141.661 
       0.691403         425.441         134.678 
       0.707174         410.445         128.127 
       0.722871         404.237         122.038 
        0.73838         397.534         116.409 
       0.754018         384.987         111.093 
       0.769845         381.698         106.052 
        0.78569         373.528         101.318 
       0.801365         360.903         96.9213 
       0.817031         358.166         92.7891 
       0.832809         352.092         88.8728 
       0.848511         344.871         85.2012 
       0.864097         336.164         81.7633 
       0.879701         334.081         78.5126 
       0.895507         322.677         75.4012 
       0.911279         316.627         72.4657 
        0.92691         313.838         69.7114 
       0.942635         310.656         67.0858 
       0.958396          300.39         64.5904 
       0.974128         297.468         62.2271 
       0.989692           286.7         60.0058 
        1.00528         286.028         57.8902 
        1.02113         281.524         55.8438 
        1.03692         275.889         53.9043 
        1.05264         271.291         52.0662 
        1.06832         268.576          50.317 
        1.08405         263.554         48.6439 
        1.09979         259.748         47.0462 
        1.11537          253.55         45.5363 
        1.13105         249.876          44.084 
        1.14679         246.979         42.6896 
        1.16256         244.693         41.3531 
        1.17828          240.83         40.0783 
        1.19395         234.455         38.8619 
         1.2097         234.392         37.6899 
        1.22537         230.608          36.572 
          1.241         224.606         35.5031 
        1.25666         223.025         34.4743 
        1.27241         219.191         33.4816 
        1.28819         215.725         32.5265 
        1.30392         213.912         31.6116 
        1.31957         207.986          30.736 
        1.33529         205.185         29.8904 
        1.35108         204.191         29.0735 
        1.36674         198.751          28.293 
         1.3824         197.556         27.5419 
        1.39811         195.665         26.8157 
        1.41389         190.162          26.113 
        1.42964         188.143         25.4367 
        1.44531         186.494         24.7878 
        1.46101         183.039         24.1602 
        1.47667         181.072         23.5562 
        1.49229         178.365         22.9745 
        1.50793         175.456         22.4119 
        1.52367         173.531         21.8646 
        1.53953         169.551         21.3319 
        1.55526         168.767         20.8212 
        1.57092         167.353         20.3294 
        1.58662         162.984         19.8524 
        1.60235         161.551         19.3898 
        1.61809          158.99         18.9417 
        1.63369         156.255         18.5118 
        1.64941         154.723         18.0922 
        1.66519         152.768         17.6841 
        1.68085         150.123         17.2916 
        1.69652         148.355         16.9108 
        1.71228         146.133         16.5394 
        1.72806         144.833         16.1789 
        1.74368         142.879         15.8327 
        1.75933          141.66          15.496 
        1.77505         139.386         15.1676 
        1.79081         136.451         14.8481 
         1.8065         134.925         14.5392 
        1.82218         132.704         14.2394 
        1.83797         131.931         13.9459 
        1.85367         130.133         13.6624 
        1.86928         128.426         13.3885 
        1.88497         126.934         13.1206 
        1.90073         125.673         12.8591 
        1.91647         123.377         12.6049 
        1.93218         122.034         12.3582 
        1.94787         120.011         12.1184 
        1.96363         119.374         11.8841 
        1.97935          117.78         11.6564 
        1.99499         116.533          11.436 
        2.01064         113.934          11.221 
         2.0264         113.159         11.0102 
        2.04216         111.421         10.8049 
        2.05781         110.157         10.6062 
        2.07353         108.683         10.4117 
        2.08928         107.348         10.2217 
        2.10499         106.252          10.037 
        2.12065         105.128         9.85734 
        2.13633         104.209         9.68197 
        2.15211         102.415         9.50973 
        2.16785         101.047         9.34217 
        2.18349         99.6336         9.17971 
        2.19916           98.73         9.02077 
        2.21489         97.8407         8.86507 
        2.23063         96.0214         8.71294 
         2.2463         95.1719         8.56508 
        2.26194         94.1783         8.42101 
        2.27765         92.8166         8.27952 
        2.29341         91.9521         8.14092 
        2.30914         90.6939         8.00578 
        2.32486         89.0673         7.87379 
        2.34061         88.6135         7.74456 
        2.35635         87.3786         7.61834 
        2.37203         85.9569         7.49538 
        2.38768         85.1654         7.37538 
        2.40339         84.5969         7.25759 
        2.41914         83.0112         7.14209 
        2.43483         82.3727         7.02951 
         2.4505         81.3491         6.91955 
        2.46622         80.4293         6.81157 
        2.48195         79.5232         6.70589 
        2.49759          78.491         6.60301 
        2.51328         77.6993         6.50203 
        2.52906         76.2303         6.40252 
        2.54479         75.6483         6.30547 
        2.56049         74.5365         6.21061 
        2.57618         73.6698         6.11779 
        2.59189         73.2949         6.02673 
        2.60758         71.7591         5.93767 
        2.62325         71.4596         5.85051 
        2.63898         70.6287         5.76481 
        2.65468         69.8041           5.681 
        2.67044         68.8341         5.59849 
        2.68618         68.2831         5.51782 
        2.70184         67.2524         5.43906 
        2.71755         66.5564         5.36164 
        2.73329         65.5945         5.28561 
        2.74897         65.2398         5.21131 
        2.76462         64.3929         5.13859 
        2.78034         63.4908         5.06697 
        2.79607         62.8974         4.99663 
        2.81179         62.3666         4.92771 
        2.82749         61.7876         4.86017 
        2.84321         61.0736         4.79382 
        2.85893         60.3689         4.72873 
        2.87462         59.6675         4.66496 
        2.89033         59.0848          4.6023 
        2.90605         58.5185         4.54074 
        2.92176         57.7559         4.48034 
        2.93747         57.2014         4.42107 
        2.95318         56.4863         4.36286 
        2.96891         55.9036         4.30568 
        2.98456         55.2983         4.24977 
        3.00023         54.6981         4.19477 
        3.01596         54.2184         4.14057 
        3.03164         53.5982         4.08749 
        3.04738         53.1383         4.03518 
         3.0631         52.2234          3.9838 
        3.07883         51.7553         3.93332 
        3.09456          51.216         3.88372 
        3.11026         50.6708         3.83505 
        3.12596         50.2682         3.78722 
        3.14163         49.5673         3.74032 
        3.15734         49.0776          3.6941 
        3.17308         48.5888         3.64855 
        3.18879         48.0772          3.6039 
        3.20447         47.7321         3.56005 
         3.2202         47.0156          3.5168 
         3.2359         46.5635         3.47435 
        3.25157         46.2346          3.4327 
        3.26729         45.6189          3.3916 
        3.28304         45.2678          3.3511 
        3.29877         44.7025         3.31131 
        3.31446         44.3463         3.27225 
        3.33014          43.888         3.23386 
        3.34585         43.3025         3.19602 
        3.36158         42.9245         3.15874 
        3.37727         42.5309         3.12216 
        3.39294         42.1744          3.0862 
        3.40867         41.7664         3.05067 
        3.42439         41.3081         3.01573 
        3.44008         40.7858          2.9814 
        3.45578         40.4612         2.94757 
        3.47153         39.9865          2.9142 
        3.48724         39.5512          2.8814 
        3.50292         39.2093         2.84919 
        3.51859         38.8679         2.81748 
        3.53431         38.3814         2.78615 
        3.55007         38.0441         2.75523 
        3.56577         37.8225         2.72489 
        3.58146         37.3249         2.69503 
        3.59719         36.9763         2.66554 
        3.61292         36.6115         2.63651 
        3.62859         36.3458         2.60802 
        3.64429           36.04         2.57989 
        3.66003          35.673         2.55209 
        3.67578         35.3843         2.52472 
        3.69146         35.0666         2.49784 
        3.70712         34.6389         2.47141 
        3.72284         34.3369         2.44526 
        3.73853         34.1196         2.41953 
        3.75422         33.7627         2.39417 
        3.76993         33.4516         2.36915 
        3.78564         33.2118         2.34449 
        3.80137         32.8091         2.32015 
        3.81707         32.5384          2.2962 
        3.83279          32.182         2.27257 
        3.84853         31.8666         2.24923 
        3.86424         31.5678         2.22627 
        3.87992         31.4018         2.20366 
        3.89561         31.1182         2.18137 
        3.91134         30.8538         2.15933 
        3.92704         30.5055         2.13763 
        3.94273         30.2565         2.11625 
        3.95845          29.986         2.09512 
        3.97418         29.6395         2.07427 
        3.98988         29.3661         2.05374 
        4.00554         29.0961         2.03354 
        4.02125         28.9324         2.01355 
        4.03698         28.5487          1.9938 
        4.05268         28.3397         1.97436 
        4.06839         28.0502         1.95517 
         4.0841         27.8835         1.93623 
        4.09983         27.5499         1.91752 
        4.11555         27.2428         1.89907 
        4.13124         27.1346         1.88091 
        4.14693            26.9         1.86297 
        4.16266         26.5757         1.84522 
        4.17839         26.4333         1.82771 
        4.19408         26.1496         1.81047 
        4.20977         25.8996         1.79345 
        4.22551         25.7064          1.7766 
        4.24123         25.5009         1.75999 
        4.25691         25.2632         1.74364 
        4.27259         25.1106         1.72748 
        4.28831         24.8318          1.7115 
        4.30404         24.6362         1.69571 
        4.31974         24.3617         1.68015 
        4.33543          24.215         1.66479 
        4.35116         24.0047         1.64959 
        4.36688         23.8319         1.63459 
        4.38255         23.6356         1.61982 
        4.39825         23.3599         1.60521 
        4.41398         23.2097         1.59075 
         4.4297         22.9973         1.57648 
        4.44541         22.8457         1.56239 
        4.46111         22.6477         1.54848 
        4.47683         22.4113         1.53473 
        4.49251         22.2425         1.52118 
        4.50819         22.0721         1.50779 
         4.5239         21.8968         1.49455 
        4.53962         21.7157         1.48145 
        4.55535         21.4921         1.46849 
        4.57106         21.3195         1.45572 
        4.58678         21.1767         1.44309 
         4.6025         20.9358          1.4306 
        4.61821         20.8164         1.41827 
        4.63391         20.6047          1.4061 
         4.6496         20.4779         1.39408 
        4.66532          20.311         1.38217 
        4.68103         20.0749         1.37042 
        4.69673         20.0201         1.35881 
        4.71241         19.8616         1.34734 
        4.72811         19.6709         1.33599 
        4.74384         19.4849         1.32476 
        4.75955         19.3718         1.31367 
        4.77525         19.2011         1.30271 
        4.79096         19.0531         1.29187 
        4.80669         18.8919         1.28115 
         4.8224         18.7443         1.27055 
        4.83809         18.6008         1.26009 
        4.85379         18.4602         1.24974 
         4.8695         18.2902          1.2395 
        4.88521         18.1377         1.22938 
        4.90093         18.0157         1.21937 
        4.91663         17.8704         1.20948 
        4.93234          17.692         1.19968 
        4.94807         17.5741         1.18999 
        4.96377         17.4669         1.18043 
        4.97943         17.2719         1.17099 
        4.99514         17.1572         1.16163 
        5.01086         17.0117         1.15236 
        5.02654          16.919         1.14322 
        5.04227         16.7432         1.13415 
          5.058          16.623         1.12518 
        5.07371         16.5293         1.11632 
        5.08942         16.3794         1.10755 
        5.10513         16.2626         1.09888 
        5.12084         16.1538          1.0903 
        5.13656         15.9893          1.0818 
        5.15225         15.8805         1.07342 
        5.16796         15.7615         1.06511 
        5.18369         15.6554         1.05688 
         5.1994         15.5582         1.04875 
        5.21509         15.4393         1.04071 
        5.23079         15.3148         1.03275 
        5.24649         15.2184         1.02488 
        5.26217          15.072          1.0171 
        5.27788         14.9502         1.00938 
        5.29359         14.8564         1.00174 
        5.30933         14.7397        0.994177 
        5.32504          14.611        0.986699 
        5.34073         14.5518        0.979307 
        5.35646         14.4181        0.971976 
        5.37218           14.29        0.964718 
        5.38789         14.2213        0.957546 
        5.40357         14.1026        0.950455 
        5.41929         13.9914         0.94342 
        5.43502         13.8856        0.936456 
         5.4507         13.8149        0.929578 
        5.46639         13.7028        0.922769 
        5.48212         13.5825        0.916011 
        5.49786         13.4767        0.909314 
        5.51353         13.3783        0.902716 
        5.52921          13.292        0.896177 
        5.54495         13.1831        0.889684 
        5.56066         13.1145        0.883262 
        5.57637         13.0111        0.876904 
        5.59207         12.9046        0.870615 
        5.60778         12.8093        0.864384 
        5.62346         12.7647        0.858223 
        5.63916         12.6432        0.852117 
        5.65487         12.5373        0.846067 
         5.6706         12.4693        0.840068 
        5.68633         12.3847        0.834125 
        5.70203         12.2756        0.828252 
        5.71773         12.1982        0.822436 
        5.73344         12.1286        0.816673 
        5.74916          12.032         0.81096 
        5.76486         11.9446         0.80531 
        5.78054         11.8663        0.799722 
        5.79626         11.7681        0.794171 
          5.812         11.7077        0.788667 
         5.8277         11.6213        0.783232 
        5.84339         11.5213        0.777847 
        5.85911         11.4467        0.772503 
        5.87484         11.3804         0.76721 
        5.89053         11.2763        0.761977 
        5.90623         11.1997        0.756791 
        5.92195         11.1219        0.751643 
        5.93767         11.0412        0.746547 
        5.95336         10.9969        0.741506 
        5.96905         10.9065        0.736513 
        5.98476         10.8402        0.731559 
        6.00048         10.7508         0.72665 
        6.01617         10.6705        0.721791 
        6.03185         10.6165        0.716984 
        6.04756         10.5384        0.712208 
        6.06331         10.4592        0.707466 
        6.07903         10.3922        0.702776 
        6.09473         10.3365        0.698134 
        6.11044         10.2527        0.693529 
        6.12616         10.1792        0.688967 
        6.14186         10.1171         0.68445 
        6.15755         10.0568        0.679973 
        6.17326         9.97198        0.675534 
        6.18898         9.91389        0.671132 
        6.20467         9.85358        0.666777 
        6.22036         9.77963         0.66246 
         6.2361         9.72567        0.658171 
         6.2518         9.67385        0.653926 
        6.26748          9.5868        0.649728 
        6.28319         9.54087        0.645556 
        6.29893         9.47161        0.641416 
        6.31463         9.40735         0.63732 
        6.33033         9.33613         0.63326 
        6.34604         9.28633        0.629233 
        6.36177         9.22274        0.625238 
        6.37747         9.15873        0.621284 
