# k  (h/Mpc)    Pcb(k)  (Mpc/h)^3    Pcb_linear(k) (Mpc/h)^3   ShotnoiseSubtracted = true
      0.0200456         12748.5         12942.9 
      0.0350414         9664.25         9409.05 
      0.0492313         6762.36         6836.44 
      0.0637834         5468.68         5683.07 
      0.0800726         4306.13         4510.51 
       0.096163         3387.29         3272.77 
       0.111083          2753.5         2610.45 
       0.126058          2292.1         2313.39 
       0.142273         1980.31         1959.95 
       0.158546         1626.28         1547.95 
        0.17375         1425.78         1304.14 
       0.188953         1324.25         1180.87 
       0.204907         1131.97         1044.83 
       0.220756         1015.45         883.991 
        0.23588         902.946         768.995 
         0.2514         808.871         698.625 
       0.267535         784.564         632.135 
       0.283568         686.619         557.458 
       0.299022          654.91         496.667 
       0.314451         664.274          453.92 
       0.330372         571.247          416.42 
       0.346141          528.88         377.965 
       0.361624         505.565         343.518 
       0.377134         474.391         316.091 
       0.392932         459.363         292.473 
       0.408854         437.026         269.603 
       0.424564         422.792         248.497 
       0.440253         383.145         230.386 
       0.455999         366.866         214.637 
       0.471626         369.094         200.164 
        0.48727         349.728         186.626 
       0.502856         321.852         174.463 
       0.518488         322.749         163.611 
       0.534347         300.194         153.523 
       0.550082         290.877         144.221 
       0.565732         289.267         135.711 
       0.581496         275.457         127.916 
       0.597222         267.845         120.768 
       0.612804         260.709         114.195 
       0.628434         250.942         108.069 
       0.644267         240.099         102.341 
       0.660051         236.202         97.0618 
       0.675724         233.356         92.1873 
       0.691403         227.076         87.6433 
       0.707174         219.044         83.3801 
       0.722871         215.677         79.4174 
        0.73838         213.686         75.7546 
       0.754018         202.743         72.2952 
       0.769845         202.537         69.0142 
        0.78569         197.328         65.9341 
       0.801365         191.853         63.0726 
       0.817031         187.646         60.3836 
       0.832809         184.543          57.835 
       0.848511         179.965         55.4457 
       0.864097         175.963         53.2084 
       0.879701         174.776          51.093 
       0.895507         170.521         49.0682 
       0.911279         165.542         47.1578 
        0.92691          163.19         45.3655 
       0.942635         161.118         43.6568 
       0.958396         157.972         42.0329 
       0.974128         154.848          40.495 
       0.989692         150.471         39.0494 
        1.00528         149.454         37.6727 
        1.02113         145.987          36.341 
        1.03692         144.121         35.0788 
        1.05264         142.136         33.8827 
        1.06832         139.845         32.7444 
        1.08405           137.1         31.6556 
        1.09979         136.267         30.6158 
        1.11537         133.098         29.6333 
        1.13105         131.622         28.6881 
        1.14679          129.47         27.7807 
        1.16256          127.24          26.911 
        1.17828         125.828         26.0814 
        1.19395         122.807         25.2898 
         1.2097         121.975         24.5271 
        1.22537         119.854         23.7997 
          1.241         118.415          23.104 
        1.25666         115.575         22.4345 
        1.27241         113.378         21.7886 
        1.28819         112.832          21.167 
        1.30392         110.783         20.5716 
        1.31957          108.98         20.0018 
        1.33529         107.794         19.4515 
        1.35108          106.77         18.9199 
        1.36674         104.703          18.412 
         1.3824         104.367         17.9232 
        1.39811          101.67         17.4506 
        1.41389         100.809         16.9933 
        1.42964         98.7268         16.5532 
        1.44531         97.9582         16.1309 
        1.46101         96.4494         15.7225 
        1.47667          95.899         15.3294 
        1.49229         94.8253         14.9509 
        1.50793         92.9753         14.5848 
        1.52367         92.1027         14.2286 
        1.53953         90.9449         13.8819 
        1.55526         89.5463         13.5496 
        1.57092          89.056         13.2296 
        1.58662         87.7518         12.9192 
        1.60235         86.3013         12.6181 
        1.61809         85.5451         12.3265 
        1.63369         84.0576         12.0468 
        1.64941         84.0757         11.7737 
        1.66519         82.2324         11.5081 
        1.68085         81.2117         11.2527 
        1.69652         79.8594         11.0049 
        1.71228         79.0287         10.7632 
        1.72806         78.5199         10.5286 
        1.74368         77.1599         10.3033 
        1.75933         76.4885         10.0842 
        1.77505         75.7948         9.87048 
        1.79081         74.4235         9.66256 
         1.8065         74.0793         9.46154 
        1.82218         72.5676         9.26642 
        1.83797         72.2211         9.07548 
        1.85367         70.9503         8.89098 
        1.86928         70.2972         8.71272 
        1.88497         69.6198          8.5384 
        1.90073         68.7245          8.3682 
        1.91647          67.733          8.2028 
        1.93218         67.0611         8.04224 
        1.94787         66.1947         7.88621 
        1.96363         65.3767         7.73371 
        1.97935         64.7368         7.58556 
        1.99499         64.0209         7.44214 
        2.01064         63.2974         7.30222 
         2.0264         62.4335         7.16502 
        2.04216         61.7353         7.03143 
        2.05781         61.0165         6.90208 
        2.07353         60.3275         6.77554 
        2.08928         59.6006         6.65189 
        2.10499         58.9594         6.53166 
        2.12065         58.4301         6.41477 
        2.13633         57.9019         6.30065 
        2.15211         57.0183         6.18856 
        2.16785         56.1456         6.07952 
        2.18349         55.6565          5.9738 
        2.19916         54.9663         5.87037 
        2.21489         54.5246         5.76904 
        2.23063         53.7343         5.67005 
         2.2463         53.2707         5.57382 
        2.26194         52.9434         5.48007 
        2.27765         52.0663         5.38799 
        2.29341         51.4154          5.2978 
        2.30914         50.8019         5.20985 
        2.32486         50.2122         5.12396 
        2.34061         49.8963         5.03986 
        2.35635          49.061         4.95772 
        2.37203         48.6657          4.8777 
        2.38768         48.2403         4.79961 
        2.40339         47.7004         4.72296 
        2.41914         47.1702         4.64779 
        2.43483         46.4631         4.57453 
         2.4505          46.197         4.50298 
        2.46622         45.6835         4.43271 
        2.48195          45.079         4.36393 
        2.49759         44.5584         4.29698 
        2.51328         44.2493         4.23127 
        2.52906         43.6563         4.16651 
        2.54479         43.3202         4.10335 
        2.56049         42.5306         4.04163 
        2.57618         42.2843         3.98122 
        2.59189          41.853         3.92196 
        2.60758         41.2186           3.864 
        2.62325         41.0446         3.80729 
        2.63898         40.5383         3.75151 
        2.65468         40.1664         3.69697 
        2.67044         39.8176         3.64328 
        2.68618         39.4275         3.59078 
        2.70184         38.7607         3.53953 
        2.71755         38.5589         3.48915 
        2.73329         37.9333         3.43967 
        2.74897         37.7448         3.39132 
        2.76462         37.1901           3.344 
        2.78034         36.9146         3.29739 
        2.79607         36.4323         3.25161 
        2.81179         36.1119         3.20676 
        2.82749         35.7104         3.16281 
        2.84321         35.2845         3.11963 
        2.85893         34.9267         3.07727 
        2.87462         34.5717         3.03577 
        2.89033         34.3306           2.995 
        2.90605         33.9095         2.95494 
        2.92176         33.7087         2.91563 
        2.93747         33.3782         2.87706 
        2.95318         32.9597         2.83918 
        2.96891         32.6008         2.80197 
        2.98456         32.3518         2.76558 
        3.00023          31.958         2.72979 
        3.01596         31.6761         2.69452 
        3.03164          31.315         2.65998 
        3.04738         31.0883         2.62594 
         3.0631         30.8357          2.5925 
        3.07883         30.3928         2.55965 
        3.09456         30.0066         2.52737 
        3.11026         29.7551          2.4957 
        3.12596         29.4839         2.46458 
        3.14163         29.1944         2.43406 
        3.15734         28.8999         2.40398 
        3.17308         28.5867         2.37434 
        3.18879         28.3195         2.34528 
        3.20447         28.0816         2.31675 
         3.2202         27.7511          2.2886 
         3.2359         27.4675         2.26097 
        3.25157         27.2991         2.23387 
        3.26729         27.0022         2.20712 
        3.28304         26.6249         2.18076 
        3.29877         26.3503         2.15487 
        3.31446         26.1284         2.12945 
        3.33014         25.9456         2.10447 
        3.34585         25.6591         2.07985 
        3.36158         25.4631         2.05558 
        3.37727         25.1518         2.03178 
        3.39294         24.9218         2.00838 
        3.40867         24.6858         1.98526 
        3.42439         24.4943         1.96252 
        3.44008         24.2247         1.94018 
        3.45578         24.1146         1.91817 
        3.47153         23.7594         1.89645 
        3.48724         23.5445          1.8751 
        3.50292         23.3341         1.85414 
        3.51859         23.1083          1.8335 
        3.53431         22.9018         1.81312 
        3.55007         22.6689           1.793 
        3.56577         22.4888         1.77326 
        3.58146         22.2944         1.75382 
        3.59719          22.048         1.73463 
        3.61292         21.8535         1.71574 
        3.62859         21.6441          1.6972 
        3.64429         21.3948         1.67889 
        3.66003         21.3046          1.6608 
        3.67578         21.0903         1.64299 
        3.69146         20.8462          1.6255 
        3.70712         20.7159          1.6083 
        3.72284         20.4988         1.59128 
        3.73853         20.3349         1.57454 
        3.75422         20.0656         1.55803 
        3.76993         19.9377         1.54175 
        3.78564         19.7564          1.5257 
        3.80137         19.5898         1.50986 
        3.81707         19.4317         1.49428 
        3.83279         19.2303          1.4789 
        3.84853         19.0418         1.46371 
        3.86424          18.871         1.44877 
        3.87992         18.6908         1.43406 
        3.89561         18.5802         1.41955 
        3.91134          18.322         1.40521 
        3.92704         18.2191         1.39109 
        3.94273         18.0298         1.37717 
        3.95845         17.8929         1.36342 
        3.97418          17.698         1.34985 
        3.98988         17.5574         1.33649 
        4.00554         17.4796         1.32335 
        4.02125         17.2251         1.31034 
        4.03698         17.0589         1.29749 
        4.05268         16.9648         1.28484 
        4.06839         16.8374         1.27235 
         4.0841         16.6468         1.26002 
        4.09983         16.4956         1.24785 
        4.11555         16.3423         1.23584 
        4.13124         16.2553         1.22402 
        4.14693         16.1213         1.21235 
        4.16266         15.9995          1.2008 
        4.17839         15.8289          1.1894 
        4.19408         15.6741         1.17819 
        4.20977         15.5639         1.16711 
        4.22551         15.4215         1.15614 
        4.24123         15.2843         1.14533 
        4.25691         15.1001         1.13469 
        4.27259         15.0441         1.12418 
        4.28831         14.9563         1.11378 
        4.30404         14.7695          1.1035 
        4.31974         14.6847         1.09338 
        4.33543         14.5419         1.08338 
        4.35116         14.3908         1.07349 
        4.36688         14.2967         1.06373 
        4.38255         14.1796         1.05412 
        4.39825         14.0094         1.04461 
        4.41398          13.953          1.0352 
         4.4297         13.8022         1.02591 
        4.44541         13.6863         1.01674 
        4.46111         13.5999         1.00769 
        4.47683         13.4677        0.998746 
        4.49251          13.358        0.989925 
        4.50819          13.254        0.981214 
         4.5239         13.1424        0.972595 
        4.53962           13.06        0.964068 
        4.55535         12.9313        0.955639 
        4.57106         12.8292        0.947324 
        4.58678          12.733        0.939105 
         4.6025         12.6377        0.930982 
        4.61821         12.5223        0.922956 
        4.63391         12.4256        0.915036 
         4.6496         12.3128        0.907211 
        4.66532         12.2165        0.899466 
        4.68103         12.1117        0.891814 
        4.69673         12.0015        0.884259 
        4.71241         11.9397        0.876799 
        4.72811         11.8578        0.869412 
        4.74384         11.7403        0.862101 
        4.75955         11.6573        0.854885 
        4.77525         11.5552        0.847756 
        4.79096         11.4863        0.840699 
        4.80669         11.4073         0.83372 
         4.8224         11.3159        0.826827 
        4.83809         11.2251        0.820019 
        4.85379         11.1189        0.813284 
         4.8695         11.0209        0.806619 
        4.88521          10.967        0.800032 
        4.90093         10.8995        0.793517 
        4.91663         10.7949         0.78708 
        4.93234         10.6936        0.780708 
        4.94807         10.6222        0.774402 
        4.96377         10.5388        0.768178 
        4.97943         10.4704        0.762035 
        4.99514         10.3374        0.755943 
        5.01086         10.3001        0.749914 
        5.02654         10.2264        0.743965 
        5.04227          10.112        0.738063 
          5.058         10.0691        0.732223 
        5.07371         9.98519        0.726457 
        5.08942         9.93776        0.720753 
        5.10513         9.83305        0.715109 
        5.12084         9.78004        0.709522 
        5.13656         9.69538        0.703997 
        5.15225         9.60822        0.698539 
        5.16796         9.54685        0.693131 
        5.18369         9.48557        0.687775 
         5.1994         9.39725        0.682485 
        5.21509         9.31868        0.677255 
        5.23079          9.2482        0.672074 
        5.24649         9.18941        0.666952 
        5.26217         9.10937        0.661886 
        5.27788         9.07275        0.656866 
        5.29359         8.97463        0.651897 
        5.30933         8.93974        0.646972 
        5.32504         8.86925        0.642106 
        5.34073         8.80996        0.637295 
        5.35646         8.72069        0.632524 
        5.37218         8.67384        0.627801 
        5.38789         8.60386        0.623134 
        5.40357         8.52538        0.618519 
        5.41929         8.49794        0.613941 
        5.43502         8.42769        0.609409 
         5.4507         8.35214        0.604933 
        5.46639         8.30198        0.600502 
        5.48212         8.24242        0.596105 
        5.49786         8.18222        0.591746 
        5.51353         8.13383        0.587453 
        5.52921         8.08011        0.583197 
        5.54495         8.02122        0.578972 
        5.56066         7.94473        0.574793 
        5.57637         7.90637        0.570655 
        5.59207         7.84537        0.566562 
        5.60778         7.79085        0.562508 
        5.62346         7.72983        0.558499 
        5.63916         7.68642        0.554525 
        5.65487         7.63395        0.550587 
         5.6706         7.57895        0.546684 
        5.68633         7.51918        0.542816 
        5.70203         7.45631        0.538994 
        5.71773         7.41902         0.53521 
        5.73344         7.37017        0.531459 
        5.74916         7.32198        0.527742 
        5.76486         7.27126        0.524064 
        5.78054         7.21887        0.520428 
        5.79626         7.15659        0.516815 
          5.812         7.13616        0.513234 
         5.8277         7.06789        0.509697 
        5.84339          7.0194        0.506193 
        5.85911         6.95895        0.502715 
        5.87484         6.92562        0.499271 
        5.89053          6.8821        0.495865 
        5.90623         6.83171         0.49249 
        5.92195         6.79086         0.48914 
        5.93767         6.73667        0.485824 
        5.95336         6.69389        0.482543 
        5.96905         6.65238        0.479294 
        5.98476         6.59951        0.476071 
        6.00048         6.56018        0.472875 
        6.01617         6.51343        0.469714 
        6.03185         6.47365        0.466585 
        6.04756         6.43112        0.463477 
        6.06331         6.39037        0.460391 
        6.07903         6.34401         0.45734 
        6.09473         6.30691        0.454318 
        6.11044         6.27717        0.451322 
        6.12616          6.2149        0.448353 
        6.14186         6.18298        0.445413 
        6.15755         6.14098          0.4425 
        6.17326         6.10603        0.439611 
        6.18898          6.0603        0.436746 
        6.20467         6.01723        0.433912 
        6.22036         5.98383        0.431104 
         6.2361         5.94038        0.428312 
         6.2518         5.89716         0.42555 
        6.26748         5.87165        0.422818 
        6.28319         5.82802        0.420102 
        6.29893          5.7983        0.417409 
        6.31463         5.75318        0.414743 
        6.33033         5.72501        0.412101 
        6.34604         5.67777        0.409481 
        6.36177         5.64636         0.40688 
        6.37747          5.6118        0.404308 
