# k  (h/Mpc)    Pcb(k)  (Mpc/h)^3    Pcb_linear(k) (Mpc/h)^3   ShotnoiseSubtracted = true
      0.0200456         16984.6         17354.3 
      0.0350414         12119.8           12616 
      0.0492313         9020.88         9166.53 
      0.0637834         7771.02         7620.05 
      0.0800726          6138.8         6047.85 
       0.096163         4266.61         4388.24 
       0.111083         3412.24         3500.17 
       0.126058         3146.29         3101.87 
       0.142273         2722.33         2627.96 
       0.158546         2339.23         2075.54 
        0.17375         1869.81         1748.64 
       0.188953         1821.07         1583.35 
       0.204907         1711.76         1400.95 
       0.220756         1473.25         1185.29 
        0.23588         1307.75          1031.1 
         0.2514         1137.22         936.739 
       0.267535         1128.16         847.588 
       0.283568         1022.65         747.459 
       0.299022         962.534         665.947 
       0.314451         915.278         608.631 
       0.330372         842.056          558.35 
       0.346141         785.583         506.788 
       0.361624         755.181         460.601 
       0.377134         701.114         423.826 
       0.392932          674.23         392.157 
       0.408854         653.829         361.494 
       0.424564         610.803         333.194 
       0.440253         599.715         308.909 
       0.455999         568.739         287.793 
       0.471626         542.137         268.387 
        0.48727         521.792         250.234 
       0.502856          507.37         233.926 
       0.518488         501.724         219.376 
       0.534347         468.619         205.849 
       0.550082         450.517         193.376 
       0.565732         449.893         181.965 
       0.581496         422.812         171.515 
       0.597222         416.433          161.93 
       0.612804          405.24         153.117 
       0.628434         390.901         144.902 
       0.644267          380.29         137.222 
       0.660051         369.601         130.144 
       0.675724          365.39         123.608 
       0.691403         353.742         117.515 
       0.707174         341.454         111.799 
       0.722871           337.2         106.486 
        0.73838         332.387         101.574 
       0.754018         322.818         96.9358 
       0.769845         313.601         92.5366 
        0.78569         312.216         88.4066 
       0.801365         301.934         84.5699 
       0.817031         292.336         80.9643 
       0.832809         290.541         77.5471 
       0.848511         282.541         74.3434 
       0.864097         277.601         71.3436 
       0.879701         273.705         68.5072 
       0.895507         268.147         65.7923 
       0.911279         259.268         63.2308 
        0.92691         258.269         60.8276 
       0.942635         251.928         58.5365 
       0.958396         247.982         56.3592 
       0.974128         243.404          54.297 
       0.989692         239.095         52.3588 
        1.00528         235.489         50.5128 
        1.02113         233.103         48.7272 
        1.03692         227.416         47.0349 
        1.05264          223.69          45.431 
        1.06832         219.272         43.9048 
        1.08405         215.327         42.4449 
        1.09979         212.181         41.0507 
        1.11537          208.55         39.7333 
        1.13105         203.717          38.466 
        1.14679         203.642         37.2494 
        1.16256         199.652         36.0831 
        1.17828         195.995         34.9709 
        1.19395         192.656         33.9094 
         1.2097         192.377         32.8868 
        1.22537          187.68         31.9114 
          1.241         186.249         30.9787 
        1.25666          182.26          30.081 
        1.27241         179.532         29.2148 
        1.28819         177.405         28.3814 
        1.30392         173.648         27.5831 
        1.31957         173.682         26.8191 
        1.33529         169.066         26.0813 
        1.35108         166.603         25.3684 
        1.36674         165.611         24.6874 
         1.3824         163.033         24.0321 
        1.39811         162.196         23.3984 
        1.41389         158.569         22.7852 
        1.42964         156.042         22.1951 
        1.44531          153.78         21.6289 
        1.46101         152.212         21.0812 
        1.47667         149.262         20.5542 
        1.49229         147.373         20.0467 
        1.50793         145.776         19.5558 
        1.52367          144.47         19.0782 
        1.53953         141.393         18.6134 
        1.55526         139.509         18.1678 
        1.57092         138.068         17.7387 
        1.58662         135.946         17.3224 
        1.60235         134.343         16.9188 
        1.61809         132.783         16.5278 
        1.63369         130.647         16.1527 
        1.64941         128.767         15.7866 
        1.66519         127.087         15.4305 
        1.68085         126.039          15.088 
        1.69652         123.609         14.7557 
        1.71228         122.312         14.4317 
        1.72806         120.824         14.1171 
        1.74368         119.818         13.8151 
        1.75933         117.821         13.5213 
        1.77505         116.291         13.2347 
        1.79081         115.342         12.9559 
         1.8065         113.738         12.6864 
        1.82218         111.572         12.4247 
        1.83797         110.042         12.1687 
        1.85367          109.15         11.9213 
        1.86928         107.576         11.6823 
        1.88497          105.52         11.4486 
        1.90073         104.804         11.2204 
        1.91647         103.471         10.9986 
        1.93218         102.249         10.7833 
        1.94787         100.956         10.5741 
        1.96363         99.7375         10.3696 
        1.97935         97.9467          10.171 
        1.99499         97.1969         9.97867 
        2.01064         96.0284         9.79106 
         2.0264         94.5717         9.60711 
        2.04216         93.8525         9.42797 
        2.05781         92.5449         9.25455 
        2.07353         91.3266         9.08487 
        2.08928         90.0085         8.91908 
        2.10499         88.5494         8.75788 
        2.12065         88.1821         8.60115 
        2.13633         87.2302         8.44812 
        2.15211         86.0486         8.29784 
        2.16785         84.4952         8.15163 
        2.18349         83.4833         8.00987 
        2.19916         82.7299         7.87118 
        2.21489         81.7029         7.73533 
        2.23063         80.4426         7.60259 
         2.2463         79.6694         7.47357 
        2.26194          79.473         7.34786 
        2.27765         77.8074          7.2244 
        2.29341         76.9817         7.10347 
        2.30914         75.9451         6.98555 
        2.32486         75.2728         6.87038 
        2.34061           74.38         6.75761 
        2.35635         73.0272         6.64748 
        2.37203         72.1584         6.54019 
        2.38768         71.4847         6.43548 
        2.40339         70.7055          6.3327 
        2.41914         69.7247         6.23192 
        2.43483         69.3758         6.13369 
         2.4505         68.2937         6.03774 
        2.46622         67.5681         5.94352 
        2.48195         66.7476         5.85131 
        2.49759         65.9921         5.76154 
        2.51328         65.2688         5.67343 
        2.52906         64.6145          5.5866 
        2.54479         63.9288         5.50191 
        2.56049         62.9103         5.41915 
        2.57618         62.3489         5.33816 
        2.59189         61.3639          5.2587 
        2.60758         60.7574         5.18099 
        2.62325         60.1599         5.10494 
        2.63898         59.4723         5.03016 
        2.65468         58.9168         4.95703 
        2.67044         58.0512         4.88504 
        2.68618           57.67         4.81465 
        2.70184         57.2271         4.74592 
        2.71755          56.541         4.67837 
        2.73329         55.6483         4.61203 
        2.74897         55.2175         4.54719 
        2.76462         54.4662         4.48374 
        2.78034           53.77         4.42125 
        2.79607         53.2674         4.35987 
        2.81179         52.6713         4.29974 
        2.82749         52.1388          4.2408 
        2.84321          51.629         4.18291 
        2.85893         50.9687         4.12611 
        2.87462         50.4099         4.07047 
        2.89033          49.847          4.0158 
        2.90605         49.2176         3.96208 
        2.92176         48.8057         3.90938 
        2.93747         48.3486         3.85766 
        2.95318         47.6419         3.80687 
        2.96891         46.9912         3.75697 
        2.98456         46.7229         3.70819 
        3.00023         45.9948          3.6602 
        3.01596         45.6751         3.61291 
        3.03164         45.1361         3.56659 
        3.04738         44.7444         3.52095 
         3.0631         44.2927         3.47612 
        3.07883         43.8211         3.43207 
        3.09456         43.4156         3.38879 
        3.11026         42.8759         3.34632 
        3.12596          42.504         3.30459 
        3.14163         41.9148         3.26366 
        3.15734          41.513         3.22334 
        3.17308         41.2467         3.18359 
        3.18879         40.8115         3.14463 
        3.20447         40.1477         3.10637 
         3.2202         39.9473         3.06863 
         3.2359         39.4715         3.03159 
        3.25157         39.2083         2.99524 
        3.26729         38.6639         2.95938 
        3.28304         38.1809         2.92404 
        3.29877         37.8525         2.88932 
        3.31446         37.5107         2.85524 
        3.33014         37.1172         2.82174 
        3.34585         36.8994         2.78873 
        3.36158         36.4945          2.7562 
        3.37727         35.9906         2.72428 
        3.39294          35.674          2.6929 
        3.40867         35.2794          2.6619 
        3.42439         34.9791         2.63141 
        3.44008         34.6459         2.60145 
        3.45578         34.2439         2.57194 
        3.47153         33.9415         2.54282 
        3.48724         33.6171          2.5142 
        3.50292         33.3386         2.48609 
        3.51859         32.8523         2.45843 
        3.53431         32.6075         2.43109 
        3.55007         32.3126         2.40411 
        3.56577         32.0699         2.37764 
        3.58146          31.695         2.35158 
        3.59719         31.3997         2.32585 
        3.61292         31.1403         2.30052 
        3.62859         30.7978         2.27566 
        3.64429         30.5056         2.25112 
        3.66003         30.2222         2.22686 
        3.67578         29.8926         2.20297 
        3.69146         29.6942         2.17952 
        3.70712         29.3532         2.15646 
        3.72284         29.1781         2.13364 
        3.73853         28.8855          2.1112 
        3.75422         28.6088         2.08906 
        3.76993         28.3356         2.06723 
        3.78564         28.0909         2.04571 
        3.80137         27.7632         2.02447 
        3.81707         27.5166         2.00358 
        3.83279         27.2938         1.98296 
        3.84853          27.114         1.96259 
        3.86424          26.806         1.94256 
        3.87992         26.6117         1.92283 
        3.89561         26.3398         1.90338 
        3.91134         26.0629         1.88415 
        3.92704         25.8566         1.86522 
        3.94273         25.6699         1.84656 
        3.95845         25.2373         1.82812 
        3.97418         25.1661         1.80993 
        3.98988         24.9457         1.79201 
        4.00554         24.6709         1.77439 
        4.02125          24.537         1.75695 
        4.03698         24.1594         1.73972 
        4.05268         24.0956         1.72275 
        4.06839         23.8345           1.706 
         4.0841         23.6326         1.68948 
        4.09983          23.429         1.67316 
        4.11555         23.2288         1.65706 
        4.13124         22.9762         1.64121 
        4.14693         22.8229         1.62555 
        4.16266         22.5323         1.61007 
        4.17839          22.337         1.59479 
        4.19408         22.2057         1.57975 
        4.20977         21.9945          1.5649 
        4.22551         21.8305          1.5502 
        4.24123         21.5669          1.5357 
        4.25691         21.4523         1.52143 
        4.27259         21.2365         1.50734 
        4.28831          21.053         1.49339 
        4.30404         20.8258         1.47961 
        4.31974         20.7379         1.46604 
        4.33543         20.4798         1.45264 
        4.35116         20.3399         1.43937 
        4.36688         20.1581         1.42628 
        4.38255         20.0329          1.4134 
        4.39825         19.8351         1.40065 
        4.41398         19.6919         1.38803 
         4.4297         19.5414         1.37558 
        4.44541         19.3709         1.36328 
        4.46111         19.2274         1.35115 
        4.47683         18.9982         1.33915 
        4.49251         18.9092         1.32733 
        4.50819         18.7348         1.31564 
         4.5239         18.5592         1.30409 
        4.53962         18.4462         1.29265 
        4.55535         18.2746         1.28135 
        4.57106         18.1534          1.2702 
        4.58678         17.9693         1.25918 
         4.6025         17.8265         1.24829 
        4.61821         17.6787         1.23753 
        4.63391         17.5357         1.22691 
         4.6496         17.3668         1.21642 
        4.66532         17.2345         1.20603 
        4.68103         17.0898         1.19577 
        4.69673         16.9605         1.18564 
        4.71241         16.8454         1.17564 
        4.72811         16.7013         1.16574 
        4.74384         16.5549         1.15593 
        4.75955         16.4389         1.14626 
        4.77525         16.3143          1.1367 
        4.79096         16.1862         1.12724 
        4.80669         16.0664         1.11788 
         4.8224          15.921         1.10864 
        4.83809         15.7775         1.09951 
        4.85379         15.6799         1.09048 
         4.8695          15.562         1.08154 
        4.88521         15.4481         1.07271 
        4.90093         15.3107         1.06397 
        4.91663          15.183         1.05534 
        4.93234         15.0707          1.0468 
        4.94807         14.9278         1.03835 
        4.96377         14.8732            1.03 
        4.97943         14.7347         1.02176 
        4.99514         14.6358         1.01359 
        5.01086         14.4959         1.00551 
        5.02654         14.3817        0.997534 
        5.04227         14.2675         0.98962 
          5.058         14.1734        0.981789 
        5.07371         14.0675        0.974058 
        5.08942         13.9724        0.966409 
        5.10513         13.8348        0.958842 
        5.12084          13.739        0.951351 
        5.13656         13.6485        0.943943 
        5.15225         13.5359        0.936625 
        5.16796         13.3811        0.929373 
        5.18369         13.3158        0.922191 
         5.1994         13.2035        0.915099 
        5.21509         13.1078        0.908087 
        5.23079         13.0328         0.90114 
        5.24649         12.9063        0.894272 
        5.26217         12.8385        0.887479 
        5.27788          12.724        0.880748 
        5.29359         12.6359        0.874085 
        5.30933         12.5304        0.867481 
        5.32504          12.466        0.860957 
        5.34073         12.3566        0.854507 
        5.35646         12.3001         0.84811 
        5.37218         12.1619        0.841777 
        5.38789         12.0967        0.835519 
        5.40357         12.0051        0.829332 
        5.41929         11.9104        0.823194 
        5.43502         11.8175        0.817117 
         5.4507         11.7306        0.811115 
        5.46639         11.6535        0.805174 
        5.48212         11.5792        0.799277 
        5.49786         11.4901        0.793433 
        5.51353         11.3973        0.787676 
        5.52921         11.3334        0.781971 
        5.54495         11.2413        0.776305 
        5.56066         11.1657        0.770701 
        5.57637         11.0761        0.765154 
        5.59207          10.989        0.759666 
        5.60778         10.9114        0.754229 
        5.62346         10.8515        0.748854 
        5.63916         10.7899        0.743525 
        5.65487         10.6874        0.738246 
         5.6706         10.6305        0.733012 
        5.68633         10.5464        0.727826 
        5.70203         10.4632        0.722702 
        5.71773         10.3788        0.717627 
        5.73344         10.3248        0.712599 
        5.74916         10.2768        0.707614 
        5.76486         10.1833        0.702683 
        5.78054         10.1073        0.697807 
        5.79626         10.0332        0.692964 
          5.812         9.95921        0.688161 
         5.8277         9.90243        0.683419 
        5.84339          9.8145        0.678721 
        5.85911         9.75247        0.674057 
        5.87484         9.69658        0.669439 
        5.89053         9.61544        0.664873 
        5.90623         9.56752        0.660347 
        5.92195         9.49915        0.655856 
        5.93767         9.40564        0.651409 
        5.95336         9.34483         0.64701 
        5.96905         9.30775        0.642654 
        5.98476         9.23151        0.638331 
        6.00048          9.1601        0.634047 
        6.01617         9.10295        0.629808 
        6.03185         9.02075        0.625613 
        6.04756         8.97286        0.621446 
        6.06331         8.90505        0.617308 
        6.07903         8.84749        0.613216 
        6.09473         8.79403        0.609165 
        6.11044         8.74103        0.605148 
        6.12616         8.68798        0.601167 
        6.14186         8.62234        0.597225 
        6.15755         8.58924        0.593319 
        6.17326         8.50362        0.589446 
        6.18898         8.44763        0.585604 
        6.20467         8.39352        0.581804 
        6.22036         8.33266        0.578038 
         6.2361         8.27916        0.574295 
         6.2518         8.20868        0.570592 
        6.26748         8.17848        0.566929 
        6.28319         8.10122        0.563288 
        6.29893         8.05454        0.559676 
        6.31463         8.01217        0.556101 
        6.33033          7.9632        0.552559 
        6.34604         7.89094        0.549046 
        6.36177         7.85684        0.545559 
        6.37747         7.80709        0.542109 
