# k  (h/Mpc)    Pcb(k)  (Mpc/h)^3    Pcb_linear(k) (Mpc/h)^3   ShotnoiseSubtracted = true
      0.0200456         6472.09         6560.72 
      0.0350414         4874.27         4769.42 
      0.0492313         3454.66         3465.37 
      0.0637834         2807.01         2880.73 
      0.0800726         2216.34         2286.37 
       0.096163          1707.2         1658.96 
       0.111083         1381.99         1323.23 
       0.126058         1164.27         1172.65 
       0.142273         994.106         993.492 
       0.158546         811.869          784.65 
        0.17375         702.569         661.067 
       0.188953         641.232         598.581 
       0.204907         545.752         529.623 
       0.220756         486.134         448.093 
        0.23588         428.786         389.802 
         0.2514         384.896         354.131 
       0.267535         367.232         320.428 
       0.283568         320.179         282.574 
       0.299022         300.783         251.759 
       0.314451         293.085         230.091 
       0.330372         254.656         211.082 
       0.346141           235.3         191.589 
       0.361624          221.57         174.129 
       0.377134         203.154         160.226 
       0.392932         197.803         148.254 
       0.408854         186.147         136.661 
       0.424564         177.723         125.963 
       0.440253         160.847         116.782 
       0.455999         150.677         108.799 
       0.471626         146.398         101.463 
        0.48727         141.178         94.6001 
       0.502856         129.135          88.435 
       0.518488          126.68         82.9342 
       0.534347         118.799         77.8203 
       0.550082         115.729         73.1051 
       0.565732         112.985         68.7913 
       0.581496         104.154         64.8404 
       0.597222         101.532         61.2171 
       0.612804         98.1114         57.8853 
       0.628434         95.5945         54.7797 
       0.644267         90.5409         51.8763 
       0.660051         87.5546         49.2004 
       0.675724         85.6205         46.7295 
       0.691403         83.8291         44.4262 
       0.707174         80.8901         42.2652 
       0.722871         79.0577         40.2565 
        0.73838         76.3985         38.3998 
       0.754018         72.1252         36.6462 
       0.769845         71.5343         34.9831 
        0.78569         69.2127         33.4218 
       0.801365         67.2416         31.9713 
       0.817031         64.8835         30.6083 
       0.832809         63.7522         29.3164 
       0.848511         62.1719         28.1053 
       0.864097         60.9916         26.9712 
       0.879701         59.7252         25.8989 
       0.895507         57.5269         24.8725 
       0.911279         56.5834         23.9042 
        0.92691         55.0077         22.9956 
       0.942635         53.8867         22.1295 
       0.958396          53.606         21.3064 
       0.974128         52.2256         20.5268 
       0.989692         50.7662         19.7941 
        1.00528         49.9154         19.0962 
        1.02113         48.8018         18.4211 
        1.03692         48.4491         17.7814 
        1.05264         47.3011          17.175 
        1.06832         46.2093          16.598 
        1.08405         45.2913         16.0461 
        1.09979         45.0817         15.5191 
        1.11537         43.7679          15.021 
        1.13105         42.7329         14.5419 
        1.14679         42.2087          14.082 
        1.16256         41.6263         13.6411 
        1.17828         41.0855         13.2206 
        1.19395         40.0485         12.8193 
         1.2097         39.9021         12.4327 
        1.22537         38.9928          12.064 
          1.241         38.3608         11.7114 
        1.25666         37.6707          11.372 
        1.27241         37.4446         11.0446 
        1.28819         36.3179         10.7295 
        1.30392         36.2052         10.4277 
        1.31957         35.7473         10.1388 
        1.33529         35.0607         9.85993 
        1.35108         34.4767         9.59044 
        1.36674         34.1301         9.33298 
         1.3824         33.5579         9.08523 
        1.39811         32.8921         8.84568 
        1.41389         32.5341         8.61388 
        1.42964         32.3038          8.3908 
        1.44531         31.5927         8.17673 
        1.46101         31.4012         7.96969 
        1.47667          31.007         7.77046 
        1.49229         30.4134         7.57859 
        1.50793         30.1652           7.393 
        1.52367         29.6478         7.21244 
        1.53953         29.5043         7.03672 
        1.55526         28.9996         6.86827 
        1.57092         28.6977         6.70605 
        1.58662         28.2636         6.54869 
        1.60235         27.9052         6.39609 
        1.61809          27.629         6.24828 
        1.63369         27.3721         6.10647 
        1.64941         26.9952         5.96806 
        1.66519         26.5635         5.83344 
        1.68085         26.1709         5.70395 
        1.69652          26.003         5.57836 
        1.71228         25.7917         5.45584 
        1.72806         25.3546         5.33691 
        1.74368         25.0676         5.22273 
        1.75933         24.8688         5.11167 
        1.77505         24.6421         5.00332 
        1.79081         24.3444         4.89793 
         1.8065          24.027         4.79603 
        1.82218         23.7725         4.69712 
        1.83797         23.6322         4.60034 
        1.85367         23.3585         4.50681 
        1.86928         23.2584         4.41646 
        1.88497          22.836         4.32809 
        1.90073         22.6173         4.24182 
        1.91647         22.3345         4.15798 
        1.93218         22.3897         4.07659 
        1.94787         22.0156          3.9975 
        1.96363         21.7943          3.9202 
        1.97935         21.4768          3.8451 
        1.99499         21.3239          3.7724 
        2.01064          21.055         3.70148 
         2.0264         20.8846         3.63193 
        2.04216         20.7756         3.56421 
        2.05781         20.5032         3.49865 
        2.07353         20.3327          3.4345 
        2.08928         19.9874         3.37183 
        2.10499         19.8487         3.31088 
        2.12065         19.6759         3.25163 
        2.13633         19.5544         3.19378 
        2.15211          19.242         3.13697 
        2.16785         19.2246         3.08169 
        2.18349         18.9487          3.0281 
        2.19916         18.7751         2.97567 
        2.21489         18.5491         2.92431 
        2.23063         18.4871         2.87413 
         2.2463         18.2336         2.82535 
        2.26194         18.0948         2.77783 
        2.27765         17.8004         2.73116 
        2.29341         17.7153         2.68544 
        2.30914         17.5149         2.64086 
        2.32486         17.4565         2.59732 
        2.34061         17.2753         2.55469 
        2.35635         17.0404         2.51306 
        2.37203         16.9322         2.47249 
        2.38768         16.7603         2.43291 
        2.40339         16.7002         2.39405 
        2.41914         16.4914         2.35595 
        2.43483         16.3021         2.31882 
         2.4505          16.127         2.28255 
        2.46622         16.0833         2.24693 
        2.48195         15.8887         2.21207 
        2.49759         15.6589         2.17813 
        2.51328          15.661         2.14482 
        2.52906         15.4914         2.11199 
        2.54479         15.3185         2.07998 
        2.56049         15.1634         2.04869 
        2.57618         15.1413         2.01807 
        2.59189         14.9602         1.98803 
        2.60758         14.7576         1.95865 
        2.62325         14.6709          1.9299 
        2.63898         14.6105         1.90163 
        2.65468         14.3648         1.87399 
        2.67044         14.3063         1.84677 
        2.68618         14.2182         1.82016 
        2.70184         14.0565         1.79418 
        2.71755          13.936         1.76864 
        2.73329         13.8191         1.74356 
        2.74897         13.7071         1.71905 
        2.76462         13.6089         1.69506 
        2.78034         13.4611         1.67144 
        2.79607         13.3757         1.64823 
        2.81179         13.2612          1.6255 
        2.82749         13.1544         1.60322 
        2.84321          13.039         1.58133 
        2.85893         12.8888         1.55986 
        2.87462         12.8553         1.53882 
        2.89033         12.6953         1.51816 
        2.90605         12.6253         1.49785 
        2.92176         12.5069         1.47793 
        2.93747         12.3949         1.45838 
        2.95318         12.2932         1.43917 
        2.96891         12.2115         1.42031 
        2.98456         12.0873         1.40187 
        3.00023         12.0065         1.38372 
        3.01596         11.9231         1.36585 
        3.03164          11.837         1.34834 
        3.04738         11.7307         1.33108 
         3.0631          11.574         1.31413 
        3.07883         11.5156         1.29748 
        3.09456         11.4365         1.28112 
        3.11026         11.3708         1.26507 
        3.12596         11.2689         1.24929 
        3.14163          11.181         1.23382 
        3.15734         11.0729         1.21857 
        3.17308         11.0138         1.20355 
        3.18879          10.911         1.18881 
        3.20447         10.8337         1.17435 
         3.2202         10.7331         1.16009 
         3.2359         10.6188         1.14608 
        3.25157         10.5915         1.13234 
        3.26729         10.4735         1.11878 
        3.28304          10.364         1.10542 
        3.29877          10.333          1.0923 
        3.31446         10.2363         1.07941 
        3.33014         10.1573         1.06675 
        3.34585         10.0651         1.05427 
        3.36158         10.0071         1.04197 
        3.37727         9.95684          1.0299 
        3.39294         9.86049         1.01804 
        3.40867         9.78544         1.00632 
        3.42439         9.68679        0.994795 
        3.44008         9.63235         0.98347 
        3.45578         9.54474        0.972313 
        3.47153         9.48498        0.961305 
        3.48724          9.3984        0.950486 
        3.50292         9.31524        0.939859 
        3.51859         9.25989        0.929399 
        3.53431         9.15967        0.919066 
        3.55007         9.08691        0.908865 
        3.56577         9.02498        0.898859 
        3.58146         8.95775        0.889007 
        3.59719         8.87698        0.879281 
        3.61292         8.85244        0.869703 
        3.62859           8.794        0.860304 
        3.64429         8.69392        0.851026 
        3.66003         8.65812        0.841857 
        3.67578         8.55886        0.832826 
        3.69146         8.53894        0.823961 
        3.70712         8.45138        0.815241 
        3.72284         8.37691        0.806616 
        3.73853         8.33308         0.79813 
        3.75422         8.26967        0.789762 
        3.76993         8.18624        0.781508 
        3.78564         8.13176        0.773375 
        3.80137         8.09122        0.765344 
        3.81707         8.00749        0.757444 
        3.83279         7.93142         0.74965 
        3.84853         7.88548        0.741952 
        3.86424         7.85115        0.734377 
        3.87992         7.79675         0.72692 
        3.89561         7.71569        0.719565 
        3.91134         7.64248        0.712297 
        3.92704         7.60077        0.705138 
        3.94273         7.53869        0.698084 
        3.95845         7.50414        0.691114 
        3.97418         7.43542        0.684238 
        3.98988         7.39334        0.677464 
        4.00554         7.33119        0.670801 
        4.02125         7.29726        0.664208 
        4.03698         7.21455        0.657693 
        4.05268         7.15899        0.651281 
        4.06839         7.08792        0.644949 
         4.0841         7.06105        0.638703 
        4.09983         7.00184        0.632531 
        4.11555         6.93755        0.626444 
        4.13124         6.89778        0.620453 
        4.14693         6.83779        0.614535 
        4.16266         6.79781        0.608681 
        4.17839         6.75694        0.602906 
        4.19408         6.70211        0.597219 
        4.20977         6.64566        0.591604 
        4.22551         6.61313        0.586047 
        4.24123          6.5584        0.580567 
        4.25691         6.51078        0.575172 
        4.27259         6.44134        0.569844 
        4.28831         6.41317        0.564572 
        4.30404         6.35363        0.559362 
        4.31974          6.3142         0.55423 
        4.33543         6.26244        0.549164 
        4.35116         6.22159         0.54415 
        4.36688         6.17795          0.5392 
        4.38255         6.13346         0.53433 
        4.39825         6.09045         0.52951 
        4.41398         6.03499        0.524739 
         4.4297         6.01111        0.520033 
        4.44541         5.95755        0.515385 
        4.46111         5.92505        0.510797 
        4.47683         5.89011        0.506262 
        4.49251         5.84605        0.501791 
        4.50819         5.81035        0.497375 
         4.5239         5.75015        0.493006 
        4.53962         5.71754        0.488683 
        4.55535         5.67635        0.484411 
        4.57106         5.63158        0.480196 
        4.58678         5.59899         0.47603 
         4.6025         5.55924        0.471912 
        4.61821         5.52716        0.467844 
        4.63391         5.47482        0.463829 
         4.6496         5.44029        0.459863 
        4.66532         5.39874        0.455937 
        4.68103         5.36737        0.452058 
        4.69673         5.33678        0.448229 
        4.71241         5.30031        0.444447 
        4.72811         5.24617        0.440703 
        4.74384         5.23595        0.436997 
        4.75955         5.18434        0.433339 
        4.77525         5.14531        0.429725 
        4.79096         5.12323        0.426148 
        4.80669         5.08163         0.42261 
         4.8224         5.04696        0.419116 
        4.83809         5.01318        0.415666 
        4.85379         4.96462        0.412252 
         4.8695         4.94971        0.408873 
        4.88521         4.91727        0.405534 
        4.90093         4.86968        0.402232 
        4.91663         4.84569        0.398969 
        4.93234         4.81692        0.395739 
        4.94807          4.7843        0.392543 
        4.96377         4.75298        0.389387 
        4.97943         4.71591        0.386274 
        4.99514         4.68378        0.383186 
        5.01086         4.66068        0.380129 
        5.02654         4.63092        0.377114 
        5.04227         4.59865        0.374122 
          5.058         4.55743        0.371162 
        5.07371          4.5337        0.368239 
        5.08942         4.50474        0.365348 
        5.10513         4.47298        0.362487 
        5.12084         4.44864        0.359655 
        5.13656         4.41421        0.356854 
        5.15225         4.38498        0.354088 
        5.16796         4.36459        0.351346 
        5.18369         4.32536        0.348631 
         5.1994         4.29727         0.34595 
        5.21509         4.27224        0.343299 
        5.23079         4.24274        0.340673 
        5.24649         4.21911        0.338076 
        5.26217         4.18472        0.335508 
        5.27788         4.17024        0.332964 
        5.29359         4.14421        0.330445 
        5.30933          4.1182        0.327948 
        5.32504         4.08832        0.325482 
        5.34073         4.06776        0.323043 
        5.35646         4.04033        0.320625 
        5.37218         4.00864        0.318231 
        5.38789         3.99061        0.315865 
        5.40357         3.96415        0.313526 
        5.41929         3.93419        0.311205 
        5.43502         3.90956        0.308908 
         5.4507         3.88998        0.306639 
        5.46639         3.85693        0.304393 
        5.48212         3.84163        0.302164 
        5.49786         3.81468        0.299955 
        5.51353          3.7866        0.297778 
        5.52921          3.7731        0.295621 
        5.54495         3.74517        0.293479 
        5.56066         3.72621        0.291361 
        5.57637         3.69748        0.289264 
        5.59207         3.67216        0.287189 
        5.60778          3.6601        0.285134 
        5.62346         3.63612        0.283101 
        5.63916         3.60972        0.281087 
        5.65487         3.58649        0.279091 
         5.6706          3.5622        0.277112 
        5.68633         3.54683        0.275152 
        5.70203         3.52496        0.273215 
        5.71773         3.50149        0.271296 
        5.73344         3.48214        0.269395 
        5.74916         3.45945        0.267511 
        5.76486         3.43932        0.265647 
        5.78054         3.41867        0.263803 
        5.79626         3.39608        0.261972 
          5.812         3.37132        0.260157 
         5.8277         3.35306        0.258364 
        5.84339         3.34364        0.256588 
        5.85911         3.31918        0.254825 
        5.87484         3.29561        0.253079 
        5.89053          3.2765        0.251353 
        5.90623         3.26379        0.249642 
        5.92195          3.2423        0.247944 
        5.93767         3.22078        0.246263 
        5.95336         3.20238          0.2446 
        5.96905         3.18273        0.242953 
        5.98476           3.165        0.241319 
        6.00048         3.14583        0.239699 
        6.01617         3.12811        0.238097 
        6.03185         3.11443        0.236511 
        6.04756         3.08786        0.234935 
        6.06331         3.07409        0.233371 
        6.07903          3.0552        0.231824 
        6.09473         3.03628        0.230293 
        6.11044         3.01578        0.228774 
        6.12616          3.0062        0.227269 
        6.14186         2.98857        0.225779 
        6.15755         2.97233        0.224302 
        6.17326         2.95434        0.222838 
        6.18898         2.93042        0.221386 
        6.20467         2.91792        0.219949 
        6.22036         2.90331        0.218525 
         6.2361         2.88569         0.21711 
         6.2518         2.87006         0.21571 
        6.26748         2.85338        0.214325 
        6.28319           2.838        0.212949 
        6.29893          2.8239        0.211583 
        6.31463         2.81065        0.210232 
        6.33033         2.79714        0.208893 
        6.34604         2.77499        0.207565 
        6.36177         2.76535        0.206247 
        6.37747         2.74385        0.204942 
