# k  (h/Mpc)    Pcb(k)  (Mpc/h)^3    Pcb_linear(k) (Mpc/h)^3   ShotnoiseSubtracted = true
      0.0200456         9578.92         9755.77 
      0.0350414            6901         7092.12 
      0.0492313         5117.88            5153 
      0.0637834         4365.02         4283.64 
      0.0800726         3455.57         3399.82 
       0.096163          2420.4         2466.86 
       0.111083         1923.45         1967.63 
       0.126058          1769.5         1743.72 
       0.142273         1527.21         1477.32 
       0.158546         1267.38         1166.77 
        0.17375          1019.5         983.005 
       0.188953         979.198         890.088 
       0.204907         918.369         787.547 
       0.220756         777.327         666.312 
        0.23588           682.8         579.634 
         0.2514         597.984         526.591 
       0.267535         578.067         476.475 
       0.283568         523.805         420.187 
       0.299022         486.529         374.365 
       0.314451         453.734         342.144 
       0.330372         418.983         313.879 
       0.346141         378.629         284.893 
       0.361624         363.371         258.928 
       0.377134         338.919         238.255 
       0.392932         317.987         220.453 
       0.408854         304.834         203.215 
       0.424564         290.906         187.306 
       0.440253         278.657         173.654 
       0.455999         262.142         161.784 
       0.471626         243.419         150.875 
        0.48727         236.444          140.67 
       0.502856         227.968         131.503 
       0.518488          224.42         123.323 
       0.534347         212.097         115.719 
       0.550082          198.24         108.707 
       0.565732         193.935         102.292 
       0.581496         184.603         96.4175 
       0.597222         179.527         91.0295 
       0.612804           172.4         86.0751 
       0.628434         167.358         81.4572 
       0.644267         161.695         77.1399 
       0.660051         159.553         73.1608 
       0.675724         155.453         69.4866 
       0.691403         150.782         66.0615 
       0.707174         144.392         62.8481 
       0.722871          143.04         59.8612 
        0.73838         139.951         57.1004 
       0.754018         134.834         54.4928 
       0.769845         131.644         52.0198 
        0.78569         129.039         49.6981 
       0.801365         125.443         47.5413 
       0.817031          121.07         45.5144 
       0.832809         119.434         43.5934 
       0.848511          116.12         41.7924 
       0.864097          113.47          40.106 
       0.879701         111.537         38.5116 
       0.895507         108.856         36.9854 
       0.911279          107.15         35.5454 
        0.92691         105.296         34.1944 
       0.942635          102.59         32.9065 
       0.958396         102.224         31.6825 
       0.974128         99.3933         30.5233 
       0.989692         96.9446         29.4337 
        1.00528         94.9856         28.3959 
        1.02113         94.0908         27.3922 
        1.03692         90.6987         26.4408 
        1.05264         90.6023         25.5392 
        1.06832         88.1788         24.6812 
        1.08405         87.0301         23.8605 
        1.09979         86.5053         23.0768 
        1.11537         83.4867         22.3362 
        1.13105         83.6201         21.6238 
        1.14679         82.2629         20.9399 
        1.16256         81.0584         20.2843 
        1.17828         78.8893          19.659 
        1.19395          78.177         19.0623 
         1.2097         76.1491         18.4874 
        1.22537         76.3899         17.9391 
          1.241         74.4714         17.4148 
        1.25666         73.0023         16.9101 
        1.27241         72.2014         16.4232 
        1.28819         70.9733         15.9547 
        1.30392         70.0602         15.5059 
        1.31957         69.2021         15.0764 
        1.33529         67.9741         14.6617 
        1.35108         67.6015         14.2609 
        1.36674         66.6854         13.8781 
         1.3824         65.3194         13.5097 
        1.39811         64.7637         13.1535 
        1.41389         63.7497         12.8088 
        1.42964         63.0592         12.4771 
        1.44531         61.8468         12.1588 
        1.46101         60.9537         11.8509 
        1.47667         60.8466         11.5546 
        1.49229         59.7933         11.2693 
        1.50793         59.2115         10.9934 
        1.52367         58.2015         10.7249 
        1.53953         57.5734         10.4636 
        1.55526          56.916         10.2131 
        1.57092         56.6255         9.97187 
        1.58662         55.6221         9.73787 
        1.60235         55.0971         9.51096 
        1.61809         54.3153         9.29117 
        1.63369          53.415          9.0803 
        1.64941         52.8837         8.87448 
        1.66519         52.0389         8.67431 
        1.68085         51.6424         8.48175 
        1.69652         50.8552         8.29499 
        1.71228         50.5146         8.11281 
        1.72806         50.0588         7.93597 
        1.74368         49.2819         7.76618 
        1.75933         48.8062         7.60103 
        1.77505         48.2647         7.43992 
        1.79081         47.6767          7.2832 
         1.8065         47.2375         7.13168 
        1.82218         46.5938          6.9846 
        1.83797         45.9971         6.84068 
        1.85367         45.4039         6.70161 
        1.86928         44.9818         6.56725 
        1.88497         44.6403         6.43585 
        1.90073         44.1157         6.30757 
        1.91647         43.6235          6.1829 
        1.93218         43.1286         6.06187 
        1.94787         42.7245         5.94426 
        1.96363         42.2081         5.82932 
        1.97935         41.6963         5.71765 
        1.99499         41.2353         5.60954 
        2.01064         40.9604         5.50408 
         2.0264         40.2083         5.40067 
        2.04216         39.8692         5.29997 
        2.05781          39.351         5.20248 
        2.07353         38.9885         5.10709 
        2.08928         38.7398         5.01389 
        2.10499         38.2198         4.92327 
        2.12065         37.7995         4.83516 
        2.13633         37.6543         4.74914 
        2.15211         37.0768         4.66466 
        2.16785         36.4335         4.58247 
        2.18349         36.2762         4.50278 
        2.19916          35.977         4.42481 
        2.21489         35.4467         4.34844 
        2.23063         35.1064         4.27382 
         2.2463         34.6559         4.20129 
        2.26194          34.324         4.13062 
        2.27765         33.9822         4.06122 
        2.29341         33.6593         3.99324 
        2.30914         33.3327         3.92695 
        2.32486         32.8791         3.86221 
        2.34061         32.6611         3.79881 
        2.35635         32.3669          3.7369 
        2.37203          32.076         3.67659 
        2.38768         31.6443         3.61773 
        2.40339         31.5063         3.55995 
        2.41914         31.1913         3.50329 
        2.43483         30.6596         3.44808 
         2.4505         30.4545         3.39414 
        2.46622         30.2123         3.34117 
        2.48195         29.9283         3.28933 
        2.49759         29.5742         3.23887 
        2.51328         29.2025         3.18934 
        2.52906         29.0997         3.14053 
        2.54479         28.6549         3.09292 
        2.56049          28.385         3.04639 
        2.57618          28.069         3.00086 
        2.59189         27.9525          2.9562 
        2.60758         27.6904         2.91251 
        2.62325         27.2556         2.86976 
        2.63898         27.1752         2.82772 
        2.65468         26.7549         2.78661 
        2.67044         26.5859         2.74614 
        2.68618         26.2634         2.70657 
        2.70184         26.0071         2.66794 
        2.71755         25.8751         2.62996 
        2.73329         25.5581         2.59267 
        2.74897         25.2594         2.55622 
        2.76462         25.0607         2.52055 
        2.78034         24.9324         2.48542 
        2.79607         24.6312         2.45092 
        2.81179         24.4063         2.41711 
        2.82749         24.1921         2.38398 
        2.84321         23.8588         2.35144 
        2.85893         23.6361         2.31951 
        2.87462         23.4507         2.28823 
        2.89033         23.2773         2.25749 
        2.90605         23.0829          2.2273 
        2.92176         22.9009         2.19767 
        2.93747         22.6783          2.1686 
        2.95318         22.3504         2.14005 
        2.96891         22.2451         2.11199 
        2.98456         21.9536         2.08457 
        3.00023          21.765         2.05759 
        3.01596         21.5712         2.03101 
        3.03164         21.3494         2.00497 
        3.04738         21.1938         1.97931 
         3.0631         21.0117         1.95411 
        3.07883          20.831         1.92935 
        3.09456         20.5918         1.90502 
        3.11026         20.4205         1.88115 
        3.12596         20.2486         1.85769 
        3.14163         20.1157         1.83468 
        3.15734         19.8994         1.81201 
        3.17308         19.7367         1.78967 
        3.18879         19.5239         1.76776 
        3.20447         19.3505         1.74626 
         3.2202          19.191         1.72504 
         3.2359          18.946         1.70422 
        3.25157         18.9285         1.68379 
        3.26729         18.7566         1.66363 
        3.28304         18.5353         1.64376 
        3.29877         18.2265         1.62424 
        3.31446         18.1919         1.60509 
        3.33014         17.9922         1.58625 
        3.34585         17.7836         1.56769 
        3.36158         17.6968          1.5494 
        3.37727         17.5036         1.53146 
        3.39294          17.312         1.51382 
        3.40867         17.1898          1.4964 
        3.42439         17.0435         1.47926 
        3.44008         16.8657         1.46242 
        3.45578         16.7227         1.44583 
        3.47153         16.6037         1.42946 
        3.48724         16.4212         1.41337 
        3.50292         16.3154         1.39757 
        3.51859         16.1632         1.38201 
        3.53431         16.0175         1.36665 
        3.55007          15.891         1.35148 
        3.56577         15.7506          1.3366 
        3.58146         15.6201         1.32195 
        3.59719         15.4617         1.30749 
        3.61292         15.3306         1.29325 
        3.62859         15.1869         1.27927 
        3.64429         15.0562         1.26547 
        3.66003         14.9303         1.25184 
        3.67578         14.8311         1.23841 
        3.69146         14.7135         1.22523 
        3.70712         14.5309         1.21226 
        3.72284         14.4821         1.19943 
        3.73853         14.3354         1.18682 
        3.75422         14.1447         1.17437 
        3.76993         14.0701          1.1621 
        3.78564         13.9156         1.15001 
        3.80137         13.8125         1.13806 
        3.81707         13.7139         1.12632 
        3.83279         13.5451         1.11473 
        3.84853         13.4801         1.10328 
        3.86424         13.3276         1.09202 
        3.87992         13.2193         1.08093 
        3.89561           13.13         1.06999 
        3.91134          13.012         1.05918 
        3.92704         12.8879         1.04854 
        3.94273         12.7885         1.03805 
        3.95845         12.6815         1.02768 
        3.97418          12.628         1.01746 
        3.98988         12.4807         1.00739 
        4.00554         12.3825        0.997478 
        4.02125         12.2561        0.987674 
        4.03698         12.1873        0.977987 
        4.05268         12.0743        0.968452 
        4.06839         11.9643        0.959036 
         4.0841         11.8514        0.949749 
        4.09983         11.7561        0.940572 
        4.11555         11.6721        0.931519 
        4.13124         11.5702        0.922611 
        4.14693         11.4987        0.913811 
        4.16266         11.3862        0.905106 
        4.17839          11.299        0.896519 
        4.19408         11.2066        0.888063 
        4.20977         11.1044        0.879712 
        4.22551          11.024        0.871449 
        4.24123         10.9393          0.8633 
        4.25691          10.843        0.855278 
        4.27259         10.7591        0.847355 
        4.28831         10.6652        0.839517 
        4.30404         10.5726         0.83177 
        4.31974         10.5072        0.824137 
        4.33543         10.4085        0.816605 
        4.35116         10.3308        0.809149 
        4.36688         10.2292        0.801788 
        4.38255         10.1645        0.794547 
        4.39825         10.1171        0.787379 
        4.41398         9.98878        0.780285 
         4.4297         9.91577        0.773287 
        4.44541         9.82255        0.766375 
        4.46111         9.77401        0.759553 
        4.47683         9.71056        0.752809 
        4.49251         9.63764        0.746161 
        4.50819         9.53686        0.739594 
         4.5239         9.47122        0.733097 
        4.53962          9.4328         0.72667 
        4.55535         9.32482        0.720317 
        4.57106         9.25069        0.714049 
        4.58678         9.16278        0.707855 
         4.6025         9.09809        0.701732 
        4.61821         9.02052        0.695682 
        4.63391         8.94327        0.689712 
         4.6496         8.91118        0.683814 
        4.66532          8.8202        0.677976 
        4.68103         8.75792        0.672209 
        4.69673          8.6806        0.666514 
        4.71241         8.61561        0.660891 
        4.72811         8.53724        0.655323 
        4.74384         8.51145        0.649813 
        4.75955         8.43498        0.644374 
        4.77525         8.37311           0.639 
        4.79096         8.31939        0.633681 
        4.80669         8.23851         0.62842 
         4.8224         8.17945        0.623224 
        4.83809         8.13454        0.618093 
        4.85379         8.04549        0.613017 
         4.8695         7.99878        0.607993 
        4.88521         7.94473        0.603028 
        4.90093         7.87769        0.598117 
        4.91663         7.80267        0.593265 
        4.93234         7.77099        0.588462 
        4.94807         7.68337        0.583709 
        4.96377         7.64566        0.579018 
        4.97943         7.60833        0.574387 
        4.99514         7.53657        0.569796 
        5.01086         7.45902        0.565251 
        5.02654          7.4119        0.560767 
        5.04227         7.38046        0.556319 
          5.058         7.31678        0.551916 
        5.07371          7.2665         0.54757 
        5.08942         7.20013         0.54327 
        5.10513         7.15193        0.539016 
        5.12084         7.09925        0.534805 
        5.13656         7.04624        0.530641 
        5.15225         6.98823        0.526527 
        5.16796         6.95962         0.52245 
        5.18369         6.88624        0.518413 
         5.1994         6.82952        0.514426 
        5.21509         6.78684        0.510484 
        5.23079         6.74298        0.506579 
        5.24649         6.69805        0.502718 
        5.26217         6.65063          0.4989 
        5.27788          6.5874        0.495115 
        5.29359         6.56955         0.49137 
        5.30933         6.51261        0.487658 
        5.32504          6.4675         0.48399 
        5.34073         6.42068        0.480364 
        5.35646         6.36725        0.476768 
        5.37218         6.33942        0.473208 
        5.38789         6.29526         0.46969 
        5.40357          6.2403        0.466212 
        5.41929         6.19496        0.462761 
        5.43502         6.15524        0.459345 
         5.4507         6.11685        0.455971 
        5.46639         6.06899        0.452631 
        5.48212         6.03442        0.449317 
        5.49786         5.99705        0.446031 
        5.51353         5.94206        0.442795 
        5.52921         5.90942        0.439588 
        5.54495          5.8656        0.436402 
        5.56066          5.8267        0.433252 
        5.57637         5.77786        0.430134 
        5.59207         5.74965        0.427049 
        5.60778          5.7021        0.423993 
        5.62346         5.66746        0.420971 
        5.63916         5.63417        0.417975 
        5.65487         5.59293        0.415008 
         5.6706          5.5626        0.412065 
        5.68633         5.51748         0.40915 
        5.70203         5.48536        0.406269 
        5.71773         5.45637        0.403417 
        5.73344         5.40757         0.40059 
        5.74916         5.36678        0.397788 
        5.76486         5.34557        0.395016 
        5.78054         5.30671        0.392275 
        5.79626         5.26841        0.389552 
          5.812         5.23408        0.386852 
         5.8277         5.19459        0.384186 
        5.84339         5.17226        0.381545 
        5.85911         5.12575        0.378924 
        5.87484         5.11245        0.376327 
        5.89053         5.06574        0.373761 
        5.90623          5.0287        0.371217 
        5.92195         5.00294        0.368692 
        5.93767         4.95329        0.366192 
        5.95336         4.93323        0.363719 
        5.96905         4.91143         0.36127 
        5.98476         4.87905         0.35884 
        6.00048         4.84713        0.356432 
        6.01617           4.811        0.354049 
        6.03185         4.78002        0.351691 
        6.04756         4.75064        0.349348 
        6.06331         4.71926        0.347022 
        6.07903         4.68711        0.344722 
        6.09473         4.66057        0.342444 
        6.11044         4.62133        0.340186 
        6.12616         4.59556        0.337948 
        6.14186         4.56681        0.335732 
        6.15755         4.53967        0.333537 
        6.17326         4.51741        0.331359 
        6.18898         4.48401          0.3292 
        6.20467         4.45527        0.327063 
        6.22036         4.42824        0.324946 
         6.2361         4.39794        0.322842 
         6.2518         4.36767         0.32076 
        6.26748         4.34578        0.318701 
        6.28319         4.31888        0.316654 
        6.29893         4.29996        0.314624 
        6.31463         4.26739        0.312614 
        6.33033         4.23455        0.310623 
        6.34604         4.22164        0.308648 
        6.36177         4.18691        0.306688 
        6.37747          4.1652        0.304749 
