# k  (h/Mpc)    Pcb(k)  (Mpc/h)^3    Pcb_linear(k) (Mpc/h)^3   ShotnoiseSubtracted = true
      0.0200456         24857.9           25315 
      0.0350414           19002         18403.1 
      0.0492313         13037.6         13371.4 
      0.0637834         10505.3         11115.5 
      0.0800726         8236.33         8822.09 
       0.096163         6660.06         6401.19 
       0.111083         5424.42         5105.76 
       0.126058         4480.37         4524.74 
       0.142273         3938.93         3833.45 
       0.158546         3230.32         3027.62 
        0.17375         2905.88         2550.77 
       0.188953         2771.56         2309.66 
       0.204907          2386.1         2043.58 
       0.220756         2163.95         1728.99 
        0.23588         1932.93         1504.07 
         0.2514         1757.86         1366.44 
       0.267535         1690.93         1236.39 
       0.283568         1515.74         1090.33 
       0.299022         1443.15         971.428 
       0.314451         1506.25         887.819 
       0.330372         1346.74         814.474 
       0.346141         1236.81          739.26 
       0.361624         1185.86         671.886 
       0.377134         1141.62         618.241 
       0.392932            1083         572.046 
       0.408854         1042.81         527.316 
       0.424564         1021.47         486.035 
       0.440253         953.761         450.611 
       0.455999         911.684         419.808 
       0.471626         923.853           391.5 
        0.48727         874.019         365.021 
       0.502856          847.83         341.232 
       0.518488          816.16         320.007 
       0.534347          789.65         300.275 
       0.550082         753.954         282.081 
       0.565732         740.095         265.436 
       0.581496          723.93         250.191 
       0.597222         712.432          236.21 
       0.612804         693.625         223.354 
       0.628434         665.872         211.371 
       0.644267         648.699         200.168 
       0.660051         641.758         189.843 
       0.675724         630.037         180.309 
       0.691403         607.538         171.421 
       0.707174         592.321         163.083 
       0.722871         588.658         155.332 
        0.73838         572.021         148.168 
       0.754018         561.438         141.402 
       0.769845         552.744         134.985 
        0.78569         540.314          128.96 
       0.801365         523.817         123.363 
       0.817031         518.064         118.104 
       0.832809         509.167         113.119 
       0.848511         500.791         108.446 
       0.864097         491.433          104.07 
       0.879701         492.431         99.9325 
       0.895507         472.994         95.9722 
       0.911279         467.841         92.2358 
        0.92691         460.414         88.7301 
       0.942635         453.989         85.3882 
       0.958396         442.175          82.212 
       0.974128           434.8         79.2039 
       0.989692         424.568         76.3766 
        1.00528         418.681         73.6838 
        1.02113         411.523         71.0791 
        1.03692         405.631         68.6105 
        1.05264         400.559         66.2709 
        1.06832         390.934         64.0446 
        1.08405           389.7          61.915 
        1.09979          380.28         59.8813 
        1.11537          371.62         57.9596 
        1.13105         367.075          56.111 
        1.14679         360.497         54.3362 
        1.16256          358.34          52.635 
        1.17828         352.763         51.0126 
        1.19395         344.207         49.4642 
         1.2097         339.846         47.9724 
        1.22537         335.275         46.5496 
          1.241         328.331          45.189 
        1.25666         325.063         43.8796 
        1.27241         321.611         42.6161 
        1.28819          312.99         41.4004 
        1.30392         312.239         40.2358 
        1.31957         304.998         39.1214 
        1.33529         300.422         38.0452 
        1.35108         299.528         37.0053 
        1.36674         291.651         36.0119 
         1.3824         286.859         35.0559 
        1.39811         283.222         34.1316 
        1.41389         278.391         33.2372 
        1.42964          274.19         32.3764 
        1.44531         270.162         31.5504 
        1.46101         264.979         30.7515 
        1.47667         263.074         29.9828 
        1.49229         259.493         29.2425 
        1.50793         254.608         28.5263 
        1.52367         250.536         27.8297 
        1.53953         247.462         27.1516 
        1.55526         243.371         26.5017 
        1.57092          241.33         25.8757 
        1.58662         236.255         25.2685 
        1.60235         232.941         24.6797 
        1.61809         231.106         24.1094 
        1.63369         226.662         23.5622 
        1.64941         223.707         23.0281 
        1.66519          220.38         22.5087 
        1.68085         216.467          22.009 
        1.69652         213.885         21.5244 
        1.71228         210.622         21.0517 
        1.72806         208.146         20.5928 
        1.74368         205.364         20.1522 
        1.75933         203.575         19.7237 
        1.77505         200.359         19.3056 
        1.79081         197.521          18.899 
         1.8065         196.438         18.5058 
        1.82218         191.124         18.1241 
        1.83797         189.614         17.7507 
        1.85367         186.951         17.3898 
        1.86928         183.723         17.0412 
        1.88497         181.851         16.7002 
        1.90073         180.286         16.3673 
        1.91647         177.251         16.0438 
        1.93218         174.149         15.7298 
        1.94787         171.734         15.4246 
        1.96363         170.765         15.1263 
        1.97935         168.448         14.8366 
        1.99499         166.114          14.556 
        2.01064         162.649         14.2824 
         2.0264         161.941          14.014 
        2.04216         158.884         13.7527 
        2.05781         156.938         13.4997 
        2.07353           155.9         13.2522 
        2.08928         153.971         13.0104 
        2.10499         151.387         12.7753 
        2.12065         149.861         12.5466 
        2.13633         147.674         12.3234 
        2.15211         145.698         12.1042 
        2.16785         144.304         11.8909 
        2.18349         142.509         11.6841 
        2.19916         140.744         11.4818 
        2.21489         138.426         11.2836 
        2.23063         136.833           11.09 
         2.2463         135.081         10.9018 
        2.26194         133.904         10.7184 
        2.27765         131.774         10.5384 
        2.29341         130.618         10.3619 
        2.30914         128.704         10.1899 
        2.32486         127.371         10.0219 
        2.34061          125.15         9.85743 
        2.35635         124.122         9.69678 
        2.37203         122.634         9.54027 
        2.38768         121.468         9.38754 
        2.40339         119.519         9.23761 
        2.41914         117.807          9.0906 
        2.43483         116.638         8.94731 
         2.4505         115.868         8.80735 
        2.46622         113.601         8.66991 
        2.48195         112.561         8.53539 
        2.49759         110.714         8.40445 
        2.51328         109.689         8.27592 
        2.52906         108.706         8.14926 
        2.54479         107.152         8.02573 
        2.56049         105.843           7.905 
        2.57618         104.609         7.78685 
        2.59189         103.954         7.67095 
        2.60758         102.316         7.55759 
        2.62325         101.091         7.44666 
        2.63898         99.7325         7.33757 
        2.65468         98.8865         7.23089 
        2.67044         97.9964         7.12588 
        2.68618         96.4898          7.0232 
        2.70184         95.6084         6.92295 
        2.71755          94.428         6.82441 
        2.73329         93.0264         6.72764 
        2.74897         92.1876         6.63306 
        2.76462         91.7034         6.54051 
        2.78034         90.5575         6.44934 
        2.79607         89.1216         6.35982 
        2.81179         88.2995         6.27209 
        2.82749         87.6313         6.18613 
        2.84321         86.2155         6.10167 
        2.85893          85.115         6.01882 
        2.87462         84.4566         5.93765 
        2.89033         83.4575          5.8579 
        2.90605         82.4921         5.77955 
        2.92176         81.8668         5.70268 
        2.93747         80.8933         5.62724 
        2.95318         79.7415         5.55314 
        2.96891         79.3901         5.48035 
        2.98456         77.9359         5.40919 
        3.00023         77.3076         5.33919 
        3.01596         76.8438          5.2702 
        3.03164         75.6539         5.20264 
        3.04738         75.2925         5.13606 
         3.0631         74.2375         5.07067 
        3.07883         73.4763         5.00641 
        3.09456         72.5291         4.94328 
        3.11026         72.1506         4.88133 
        3.12596            71.1         4.82046 
        3.14163         70.5303         4.76076 
        3.15734         69.5442         4.70193 
        3.17308         69.0989         4.64395 
        3.18879         68.3365         4.58712 
        3.20447         67.7637         4.53131 
         3.2202         66.6766         4.47626 
         3.2359         66.2386         4.42222 
        3.25157          65.544         4.36921 
        3.26729         64.6839          4.3169 
        3.28304         64.0317         4.26535 
        3.29877         63.5353          4.2147 
        3.31446            62.7         4.16499 
        3.33014         62.2039         4.11612 
        3.34585         61.4526         4.06796 
        3.36158         60.9897         4.02051 
        3.37727         60.3787         3.97395 
        3.39294         59.6659         3.92818 
        3.40867         59.2891         3.88296 
        3.42439         58.4162         3.83848 
        3.44008         57.8815         3.79478 
        3.45578         57.4097         3.75173 
        3.47153         56.8605         3.70925 
        3.48724         56.2413         3.66751 
        3.50292         55.8217          3.6265 
        3.51859         55.2061         3.58614 
        3.53431         54.6167         3.54627 
        3.55007         53.9194         3.50691 
        3.56577         53.4205          3.4683 
        3.58146         52.9873         3.43029 
        3.59719         52.5602         3.39276 
        3.61292         51.9606          3.3558 
        3.62859         51.5788         3.31954 
        3.64429         51.0668         3.28374 
        3.66003         50.4965         3.24836 
        3.67578         49.9841         3.21351 
        3.69146         49.6054          3.1793 
        3.70712         49.0772         3.14566 
        3.72284         48.5643         3.11238 
        3.73853         48.2433         3.07963 
        3.75422          47.825         3.04735 
        3.76993         47.3488          3.0155 
        3.78564         46.8854         2.98412 
        3.80137         46.3542         2.95313 
        3.81707         45.9354         2.92265 
        3.83279         45.5264         2.89257 
        3.84853         45.1584         2.86287 
        3.86424         44.7148         2.83364 
        3.87992         44.2421         2.80486 
        3.89561         43.9974         2.77649 
        3.91134         43.4356         2.74844 
        3.92704         43.1772         2.72082 
        3.94273         42.7484          2.6936 
        3.95845         42.2378         2.66671 
        3.97418         41.8963         2.64017 
        3.98988         41.5712         2.61404 
        4.00554         41.1385         2.58833 
        4.02125         40.7298         2.56289 
        4.03698          40.444         2.53775 
        4.05268         40.0686         2.51301 
        4.06839         39.7148         2.48857 
         4.0841         39.3853         2.46448 
        4.09983         39.1042         2.44066 
        4.11555         38.7728         2.41717 
        4.13124         38.1999         2.39405 
        4.14693         37.9801         2.37122 
        4.16266         37.6771         2.34863 
        4.17839         37.2141         2.32635 
        4.19408         37.0106         2.30441 
        4.20977         36.6089         2.28274 
        4.22551          36.315          2.2613 
        4.24123         35.9882         2.24015 
        4.25691          35.641         2.21934 
        4.27259         35.3432         2.19878 
        4.28831         35.1202         2.17844 
        4.30404         34.8384         2.15833 
        4.31974           34.43         2.13853 
        4.33543         34.0811         2.11898 
        4.35116         33.8778         2.09964 
        4.36688         33.5252         2.08054 
        4.38255         33.3034         2.06175 
        4.39825         33.0934         2.04315 
        4.41398         32.8372         2.02474 
         4.4297         32.4402         2.00658 
        4.44541         32.2633         1.98864 
        4.46111         31.9566         1.97094 
        4.47683          31.744         1.95344 
        4.49251         31.4264         1.93619 
        4.50819         31.1546         1.91915 
         4.5239         30.8363         1.90229 
        4.53962         30.6016         1.88562 
        4.55535         30.3575         1.86913 
        4.57106         30.0539         1.85287 
        4.58678         29.8896         1.83679 
         4.6025         29.6121          1.8209 
        4.61821         29.3995         1.80521 
        4.63391         29.1242         1.78971 
         4.6496         28.9329         1.77441 
        4.66532         28.6675         1.75926 
        4.68103         28.3359          1.7443 
        4.69673          28.216         1.72952 
        4.71241         27.9179         1.71493 
        4.72811         27.7083         1.70048 
        4.74384         27.5359         1.68618 
        4.75955         27.3676         1.67207 
        4.77525         27.1022         1.65812 
        4.79096         26.8881         1.64432 
        4.80669         26.6576         1.63067 
         4.8224         26.4597         1.61719 
        4.83809         26.2111         1.60387 
        4.85379         26.0586          1.5907 
         4.8695         25.8034         1.57766 
        4.88521         25.6176         1.56478 
        4.90093          25.411         1.55204 
        4.91663         25.2456         1.53945 
        4.93234         25.0282         1.52698 
        4.94807         24.7905         1.51465 
        4.96377         24.6116         1.50248 
        4.97943         24.4537         1.49046 
        4.99514         24.2906         1.47855 
        5.01086          24.106         1.46675 
        5.02654         23.8828         1.45512 
        5.04227         23.6471         1.44357 
          5.058          23.464         1.43215 
        5.07371         23.3337         1.42087 
        5.08942         23.1576         1.40972 
        5.10513         22.9335         1.39868 
        5.12084         22.7463         1.38775 
        5.13656         22.5832         1.37694 
        5.15225         22.4604         1.36627 
        5.16796         22.2273         1.35569 
        5.18369         22.0739         1.34521 
         5.1994         21.8872         1.33487 
        5.21509         21.7217         1.32464 
        5.23079         21.5875         1.31451 
        5.24649         21.4221         1.30449 
        5.26217         21.2427         1.29458 
        5.27788         21.0985         1.28476 
        5.29359         20.9219         1.27504 
        5.30933         20.7197         1.26541 
        5.32504         20.6297         1.25589 
        5.34073         20.4631         1.24648 
        5.35646         20.2708         1.23715 
        5.37218           20.14         1.22791 
        5.38789         20.0215         1.21878 
        5.40357         19.8494         1.20976 
        5.41929         19.7108         1.20081 
        5.43502         19.5402         1.19194 
         5.4507         19.4451         1.18319 
        5.46639         19.2821         1.17452 
        5.48212         19.1705         1.16592 
        5.49786         19.0072         1.15739 
        5.51353         18.8436           1.149 
        5.52921         18.7094         1.14067 
        5.54495         18.6082         1.13241 
        5.56066         18.4053         1.12423 
        5.57637         18.2867         1.11614 
        5.59207         18.1749         1.10814 
        5.60778         18.0714         1.10021 
        5.62346         17.8781         1.09236 
        5.63916         17.7711         1.08459 
        5.65487         17.6417         1.07689 
         5.6706         17.5288         1.06926 
        5.68633         17.4073         1.06169 
        5.70203         17.2714         1.05422 
        5.71773         17.1768         1.04681 
        5.73344         17.0514         1.03948 
        5.74916         16.9092         1.03221 
        5.76486         16.8042         1.02501 
        5.78054         16.6482          1.0179 
        5.79626         16.6067         1.01084 
          5.812          16.427         1.00383 
         5.8277         16.2962        0.996913 
        5.84339         16.2208         0.99006 
        5.85911         16.0892        0.983258 
        5.87484         15.9674        0.976521 
        5.89053         15.8597         0.96986 
        5.90623         15.7668        0.963259 
        5.92195         15.6112        0.956707 
        5.93767         15.5359         0.95022 
        5.95336         15.4334        0.943804 
        5.96905         15.3297        0.937449 
        5.98476          15.231        0.931144 
        6.00048         15.1166        0.924895 
        6.01617         14.9939        0.918711 
        6.03185         14.9054        0.912592 
        6.04756         14.8124        0.906513 
        6.06331         14.7228        0.900477 
        6.07903         14.5778        0.894508 
        6.09473            14.5        0.888599 
        6.11044         14.4206        0.882738 
        6.12616         14.3173        0.876931 
        6.14186         14.2059        0.871182 
        6.15755         14.1075        0.865484 
        6.17326         14.0507        0.859833 
        6.18898           13.93         0.85423 
        6.20467         13.8163        0.848687 
        6.22036         13.7221        0.843193 
         6.2361          13.625        0.837733 
         6.2518          13.538        0.832331 
        6.26748         13.4665        0.826988 
        6.28319         13.3762        0.821676 
        6.29893         13.2746        0.816407 
        6.31463         13.1937        0.811193 
        6.33033         13.1088        0.806027 
        6.34604         13.0161        0.800901 
        6.36177         12.9475        0.795815 
        6.37747         12.8364        0.790783 
