# k  (h/Mpc)    Pcb(k)  (Mpc/h)^3    Pcb_linear(k) (Mpc/h)^3   ShotnoiseSubtracted = true
      0.0200456         14118.7         14408.3 
      0.0350414         10109.3         10474.3 
      0.0492313         7515.84         7610.45 
      0.0637834         6451.88          6326.5 
      0.0800726         5100.86         5021.18 
       0.096163         3553.65         3643.31 
       0.111083         2834.09         2905.99 
       0.126058         2613.28          2575.3 
       0.142273         2259.62         2181.85 
       0.158546         1916.96          1723.2 
        0.17375          1534.1          1451.8 
       0.188953         1488.22         1314.57 
       0.204907         1398.61         1163.13 
       0.220756         1196.91         984.074 
        0.23588         1058.14         856.059 
         0.2514         921.314         777.721 
       0.267535         906.889         703.704 
       0.283568         822.266         620.573 
       0.299022         770.608         552.898 
       0.314451         729.603         505.311 
       0.330372         672.075         463.566 
       0.346141         617.908         420.757 
       0.361624         594.176         382.411 
       0.377134          551.51         351.878 
       0.392932         528.348         325.586 
       0.408854         509.119         300.127 
       0.424564         479.631         276.632 
       0.440253         468.381          256.47 
       0.455999         441.695         238.938 
       0.471626         416.593         222.826 
        0.48727         402.846         207.755 
       0.502856         390.701         194.216 
       0.518488         386.867         182.135 
       0.534347         361.905         170.904 
       0.550082         344.255         160.549 
       0.565732         342.124         151.075 
       0.581496          322.55         142.399 
       0.597222         316.986         134.441 
       0.612804         307.167         127.124 
       0.628434         295.357         120.304 
       0.644267         286.769         113.928 
       0.660051         281.229         108.051 
       0.675724         276.588         102.624 
       0.691403          268.37         97.5661 
       0.707174         258.404         92.8202 
       0.722871         255.336         88.4089 
        0.73838          250.94         84.3314 
       0.754018         244.287         80.4803 
       0.769845          235.91         76.8278 
        0.78569         235.541          73.399 
       0.801365         227.297         70.2135 
       0.817031         220.439         67.2201 
       0.832809          218.27         64.3829 
       0.848511          212.41         61.7231 
       0.864097         209.654         59.2325 
       0.879701         205.695         56.8776 
       0.895507         200.506         54.6236 
       0.911279         194.487         52.4969 
        0.92691         194.501         50.5017 
       0.942635         189.514         48.5995 
       0.958396         188.233         46.7918 
       0.974128         183.839         45.0797 
       0.989692         179.504         43.4705 
        1.00528          177.19         41.9379 
        1.02113         175.862         40.4554 
        1.03692         170.678         39.0504 
        1.05264         167.376         37.7188 
        1.06832          164.48         36.4516 
        1.08405         161.913         35.2395 
        1.09979         160.811         34.0821 
        1.11537         156.204         32.9883 
        1.13105          154.32         31.9361 
        1.14679         154.006          30.926 
        1.16256          151.29         29.9578 
        1.17828         148.104         29.0343 
        1.19395         145.907          28.153 
         1.2097         144.766          27.304 
        1.22537         142.168         26.4942 
          1.241          140.08         25.7198 
        1.25666         137.787         24.9745 
        1.27241         135.405         24.2554 
        1.28819         133.914         23.5635 
        1.30392         131.924         22.9006 
        1.31957         130.868         22.2663 
        1.33529         127.403         21.6538 
        1.35108         126.586          21.062 
        1.36674         125.335         20.4965 
         1.3824         122.825         19.9524 
        1.39811         122.233         19.4264 
        1.41389         120.025         18.9173 
        1.42964         117.493         18.4274 
        1.44531         115.408         17.9572 
        1.46101         114.334         17.5026 
        1.47667         113.026          17.065 
        1.49229         111.419         16.6436 
        1.50793         110.468         16.2361 
        1.52367         109.047         15.8395 
        1.53953         106.922         15.4536 
        1.55526         105.974         15.0837 
        1.57092          104.74         14.7274 
        1.58662         102.803         14.3818 
        1.60235         102.345         14.0467 
        1.61809         100.288         13.7221 
        1.63369         99.5299         13.4107 
        1.64941         98.6518         13.1067 
        1.66519         96.4875         12.8111 
        1.68085          95.959         12.5267 
        1.69652         93.5367         12.2509 
        1.71228         93.7203         11.9818 
        1.72806         92.3165         11.7206 
        1.74368         91.1077         11.4698 
        1.75933         89.7618         11.2259 
        1.77505          88.822          10.988 
        1.79081         87.4406         10.7565 
         1.8065         86.4788         10.5328 
        1.82218         84.8687         10.3155 
        1.83797           83.94          10.103 
        1.85367           83.12         9.89759 
        1.86928          82.658         9.69916 
        1.88497           80.93         9.50509 
        1.90073         80.3804         9.31563 
        1.91647         79.3495         9.13151 
        1.93218         78.2077         8.95276 
        1.94787          77.537         8.77907 
        1.96363         76.1859          8.6093 
        1.97935         75.5462         8.44438 
        1.99499         74.5644         8.28472 
        2.01064         73.8367         8.12896 
         2.0264         72.4198         7.97623 
        2.04216         71.6776         7.82751 
        2.05781         70.8737         7.68352 
        2.07353         69.6326         7.54265 
        2.08928         68.7298           7.405 
        2.10499         68.2267         7.27116 
        2.12065         67.7685         7.14104 
        2.13633         66.8735         7.01399 
        2.15211         66.0719         6.88922 
        2.16785         65.3339         6.76783 
        2.18349         64.6112         6.65014 
        2.19916         63.7327         6.53499 
        2.21489         63.0853          6.4222 
        2.23063         62.6036           6.312 
         2.2463         61.6419         6.20487 
        2.26194         61.0456         6.10051 
        2.27765         60.4566         5.99801 
        2.29341          59.676          5.8976 
        2.30914         58.7552          5.7997 
        2.32486         57.9862         5.70408 
        2.34061         57.4631         5.61046 
        2.35635         56.9472         5.51902 
        2.37203          56.025         5.42994 
        2.38768          55.479         5.34302 
        2.40339         54.7801         5.25768 
        2.41914         54.4145         5.17401 
        2.43483         54.0755         5.09245 
         2.4505         53.4024         5.01279 
        2.46622         52.7612         4.93457 
        2.48195         52.1201         4.85801 
        2.49759         51.2745         4.78348 
        2.51328         50.8444         4.71032 
        2.52906          50.438         4.63823 
        2.54479          49.814         4.56792 
        2.56049          49.168         4.49921 
        2.57618         48.7777         4.43197 
        2.59189         48.2161           4.366 
        2.60758         47.8711         4.30148 
        2.62325         47.1997         4.23834 
        2.63898         46.7805         4.17625 
        2.65468         46.2368         4.11553 
        2.67044         45.4798         4.05577 
        2.68618         45.2494         3.99733 
        2.70184         44.5683         3.94027 
        2.71755         44.4393         3.88418 
        2.73329          43.631          3.8291 
        2.74897         43.2653         3.77527 
        2.76462         42.7811          3.7226 
        2.78034         42.5025         3.67071 
        2.79607          41.907         3.61975 
        2.81179         41.5202         3.56983 
        2.82749         40.8667          3.5209 
        2.84321         40.6055         3.47283 
        2.85893         40.1576         3.42567 
        2.87462         39.6391         3.37947 
        2.89033          39.289         3.33409 
        2.90605          38.921         3.28949 
        2.92176         38.5305         3.24574 
        2.93747         38.1378          3.2028 
        2.95318          37.722         3.16063 
        2.96891         37.1427          3.1192 
        2.98456         36.9865          3.0787 
        3.00023         36.5579         3.03885 
        3.01596         36.1805         2.99959 
        3.03164         35.7495         2.96113 
        3.04738         35.5556         2.92324 
         3.0631         35.0042         2.88602 
        3.07883         34.7175         2.84945 
        3.09456         34.3755         2.81352 
        3.11026         33.9833         2.77826 
        3.12596         33.7082         2.74361 
        3.14163         33.3157         2.70963 
        3.15734         32.8823         2.67615 
        3.17308         32.7116         2.64315 
        3.18879         32.4406          2.6108 
        3.20447         31.9807         2.57904 
         3.2202         31.6101         2.54771 
         3.2359         31.4043         2.51695 
        3.25157         31.0812         2.48678 
        3.26729         30.8252         2.45701 
        3.28304         30.4631         2.42767 
        3.29877         30.1456         2.39884 
        3.31446         29.9187         2.37055 
        3.33014         29.5857         2.34273 
        3.34585         29.3513         2.31532 
        3.36158         29.0227         2.28831 
        3.37727         28.7061         2.26181 
        3.39294         28.4364         2.23576 
        3.40867         28.1716         2.21003 
        3.42439         27.9223         2.18471 
        3.44008         27.7198         2.15984 
        3.45578         27.2649         2.13534 
        3.47153         27.0686         2.11116 
        3.48724         26.8107          2.0874 
        3.50292         26.5347         2.06406 
        3.51859         26.3125         2.04109 
        3.53431         26.1489          2.0184 
        3.55007         25.8384         1.99599 
        3.56577         25.5843         1.97402 
        3.58146         25.4014         1.95238 
        3.59719         25.0867         1.93102 
        3.61292         24.8765         1.90999 
        3.62859         24.6576         1.88935 
        3.64429         24.3764         1.86897 
        3.66003         24.1543         1.84884 
        3.67578         24.0218           1.829 
        3.69146         23.7495         1.80953 
        3.70712         23.5021         1.79038 
        3.72284         23.3665         1.77144 
        3.73853         23.1422          1.7528 
        3.75422         22.8789         1.73443 
        3.76993         22.7145          1.7163 
        3.78564         22.4065         1.69844 
        3.80137         22.2777          1.6808 
        3.81707         22.0937         1.66345 
        3.83279         21.7867         1.64634 
        3.84853         21.5619         1.62943 
        3.86424         21.4119          1.6128 
        3.87992         21.2415         1.59642 
        3.89561         21.0614         1.58027 
        3.91134         20.8938          1.5643 
        3.92704         20.6899         1.54858 
        3.94273         20.4671         1.53309 
        3.95845         20.3068         1.51778 
        3.97418         20.1599         1.50268 
        3.98988         19.9515         1.48781 
        4.00554         19.8124         1.47317 
        4.02125         19.6305         1.45869 
        4.03698         19.3604         1.44439 
        4.05268         19.2354          1.4303 
        4.06839         19.0466          1.4164 
         4.0841         18.9651         1.40268 
        4.09983          18.759         1.38913 
        4.11555          18.598         1.37576 
        4.13124         18.3688          1.3626 
        4.14693         18.1926          1.3496 
        4.16266         18.0643         1.33675 
        4.17839         17.8965         1.32407 
        4.19408         17.7181         1.31158 
        4.20977         17.6412         1.29924 
        4.22551         17.4753         1.28704 
        4.24123         17.2967         1.27501 
        4.25691         17.1974         1.26316 
        4.27259         17.0093         1.25146 
        4.28831         16.8627         1.23988 
        4.30404         16.7155         1.22844 
        4.31974         16.5444         1.21717 
        4.33543         16.4444         1.20604 
        4.35116          16.311         1.19503 
        4.36688         16.1345         1.18416 
        4.38255         16.0253         1.17346 
        4.39825         15.9222         1.16288 
        4.41398         15.7482          1.1524 
         4.4297         15.6267         1.14206 
        4.44541         15.5217         1.13186 
        4.46111         15.3738         1.12178 
        4.47683           15.23         1.11182 
        4.49251         15.1563           1.102 
        4.50819         14.9795          1.0923 
         4.5239         14.8914         1.08271 
        4.53962         14.7349         1.07322 
        4.55535         14.6386         1.06383 
        4.57106         14.5022         1.05458 
        4.58678         14.4314         1.04543 
         4.6025         14.2638         1.03639 
        4.61821         14.1514         1.02745 
        4.63391         14.0604         1.01863 
         4.6496         13.9091         1.00992 
        4.66532         13.7789          1.0013 
        4.68103         13.6867        0.992783 
        4.69673          13.631        0.984373 
        4.71241         13.4952        0.976068 
        4.72811         13.3722        0.967845 
        4.74384         13.2691        0.959706 
        4.75955         13.1615        0.951674 
        4.77525         13.0764        0.943737 
        4.79096         12.9741        0.935881 
        4.80669         12.8649        0.928111 
         4.8224         12.7448        0.920438 
        4.83809          12.662         0.91286 
        4.85379         12.5433        0.905363 
         4.8695         12.4892        0.897943 
        4.88521         12.3508         0.89061 
        4.90093         12.2539        0.883357 
        4.91663         12.1991        0.876192 
        4.93234          12.051        0.869098 
        4.94807         11.9902        0.862079 
        4.96377          11.882        0.855149 
        4.97943         11.8042        0.848311 
        4.99514         11.6898         0.84153 
        5.01086          11.626        0.834817 
        5.02654          11.516        0.828195 
        5.04227         11.4479        0.821625 
          5.058         11.3692        0.815124 
        5.07371         11.2779        0.808705 
        5.08942         11.1725        0.802354 
        5.10513         11.0891        0.796072 
        5.12084         11.0178        0.789853 
        5.13656         10.9289        0.783702 
        5.15225         10.8427        0.777626 
        5.16796         10.7837        0.771605 
        5.18369         10.6738        0.765643 
         5.1994         10.6188        0.759754 
        5.21509         10.5243        0.753933 
        5.23079         10.4657        0.748165 
        5.24649         10.3979        0.742463 
        5.26217         10.2792        0.736823 
        5.27788         10.2107        0.731235 
        5.29359         10.1551        0.725703 
        5.30933         10.0825         0.72022 
        5.32504         10.0093        0.714803 
        5.34073          9.9168        0.709448 
        5.35646         9.85642        0.704137 
        5.37218         9.78223        0.698879 
        5.38789         9.70607        0.693684 
        5.40357         9.63799        0.688547 
        5.41929         9.55147         0.68345 
        5.43502         9.52439        0.678405 
         5.4507         9.42633        0.673423 
        5.46639         9.36065         0.66849 
        5.48212          9.2989        0.663594 
        5.49786         9.22638        0.658742 
        5.51353         9.15372        0.653963 
        5.52921         9.09074        0.649226 
        5.54495         9.01688        0.644522 
        5.56066         8.94986        0.639869 
        5.57637         8.88817        0.635264 
        5.59207          8.8363        0.630707 
        5.60778         8.76046        0.626194 
        5.62346         8.70088         0.62173 
        5.63916         8.64495        0.617307 
        5.65487         8.58122        0.612924 
         5.6706         8.53145        0.608578 
        5.68633         8.45848        0.604273 
        5.70203         8.41709        0.600018 
        5.71773         8.34608        0.595805 
        5.73344         8.28977         0.59163 
        5.74916         8.21241        0.587491 
        5.76486         8.19905        0.583398 
        5.78054         8.11139        0.579349 
        5.79626         8.04524        0.575328 
          5.812          8.0108        0.571341 
         5.8277          7.9491        0.567403 
        5.84339         7.89905        0.563503 
        5.85911         7.83715        0.559631 
        5.87484         7.78771        0.555797 
        5.89053         7.73298        0.552006 
        5.90623         7.67353        0.548249 
        5.92195         7.63668         0.54452 
        5.93767         7.58589        0.540828 
        5.95336         7.52603        0.537176 
        5.96905         7.45807        0.533559 
        5.98476         7.43433         0.52997 
        6.00048         7.38248        0.526413 
        6.01617         7.33228        0.522894 
        6.03185         7.27374        0.519411 
        6.04756         7.22187        0.515951 
        6.06331         7.18737        0.512516 
        6.07903         7.14661        0.509118 
        6.09473         7.07367        0.505755 
        6.11044          7.0415        0.502419 
        6.12616         6.99453        0.499114 
        6.14186         6.94666        0.495842 
        6.15755         6.89161        0.492599 
        6.17326         6.85393        0.489383 
        6.18898         6.81425        0.486194 
        6.20467         6.76409        0.483039 
        6.22036          6.7183        0.479912 
         6.2361         6.68308        0.476805 
         6.2518         6.62818         0.47373 
        6.26748         6.57835        0.470688 
        6.28319         6.54188        0.467666 
        6.29893         6.51163        0.464667 
        6.31463         6.46945        0.461699 
        6.33033         6.42459        0.458758 
        6.34604         6.38254        0.455841 
        6.36177         6.33153        0.452946 
        6.37747         6.31008        0.450082 
