# k  (h/Mpc)    Pcb(k)  (Mpc/h)^3    Pcb_linear(k) (Mpc/h)^3   ShotnoiseSubtracted = true
      0.0200456         517.345         523.997 
      0.0350414         384.617         380.928 
      0.0492313         277.847         276.775 
      0.0637834         228.489          230.08 
      0.0800726         180.944         182.609 
       0.096163         134.148         132.499 
       0.111083         107.407         105.685 
       0.126058         93.2435          93.658 
       0.142273         78.7903         79.3489 
       0.158546         62.9717          62.669 
        0.17375         53.5008         52.7986 
       0.188953          48.033         47.8079 
       0.204907         41.6826         42.3003 
       0.220756         35.9682         35.7886 
        0.23588         31.3222          31.133 
         0.2514         28.4305          28.284 
       0.267535         25.8323         25.5921 
       0.283568         22.7692         22.5688 
       0.299022         20.3816         20.1077 
       0.314451         18.8919          18.377 
       0.330372         17.1362         16.8589 
       0.346141         15.5735          15.302 
       0.361624         14.1392         13.9074 
       0.377134         12.9635          12.797 
       0.392932         12.3053         11.8408 
       0.408854          11.128          10.915 
       0.424564         10.4742         10.0605 
       0.440253         9.59949         9.32723 
       0.455999         8.83244         8.68964 
       0.471626          8.2556          8.1037 
        0.48727         7.86276         7.55559 
       0.502856         7.36392         7.06319 
       0.518488         6.78703         6.62385 
       0.534347         6.33984         6.21541 
       0.550082         6.05739         5.83881 
       0.565732         5.77119         5.49428 
       0.581496         5.40438         5.17872 
       0.597222         5.09186         4.88933 
       0.612804         4.79909         4.62322 
       0.628434         4.58073         4.37518 
       0.644267         4.35704         4.14329 
       0.660051         4.12895         3.92957 
       0.675724         3.89174         3.73222 
       0.691403         3.72373         3.54826 
       0.707174         3.54017         3.37566 
       0.722871          3.4467         3.21523 
        0.73838          3.2148         3.06694 
       0.754018         3.07059         2.92689 
       0.769845         2.90632         2.79406 
        0.78569         2.82271         2.66936 
       0.801365         2.70159         2.55351 
       0.817031             2.6         2.44464 
       0.832809         2.46435         2.34146 
       0.848511         2.38195         2.24473 
       0.864097         2.29619         2.15415 
       0.879701         2.22336         2.06851 
       0.895507         2.11121         1.98654 
       0.911279         2.04478          1.9092 
        0.92691         1.98423         1.83663 
       0.942635         1.88231         1.76746 
       0.958396         1.82208         1.70171 
       0.974128         1.76322         1.63945 
       0.989692          1.6943         1.58093 
        1.00528         1.63487         1.52519 
        1.02113         1.59266         1.47127 
        1.03692         1.54656         1.42017 
        1.05264         1.47556         1.37175 
        1.06832         1.43499         1.32566 
        1.08405         1.38022         1.28158 
        1.09979         1.34641         1.23949 
        1.11537         1.29789         1.19971 
        1.13105         1.24788         1.16145 
        1.14679         1.21922         1.12471 
        1.16256         1.18079          1.0895 
        1.17828          1.1541         1.05591 
        1.19395         1.11432         1.02386 
         1.2097         1.07923        0.992986 
        1.22537         1.04289        0.963535 
          1.241         1.01797        0.935372 
        1.25666        0.997145        0.908268 
        1.27241        0.965179        0.882115 
        1.28819        0.931852        0.856951 
        1.30392        0.909511        0.832845 
        1.31957        0.886931        0.809776 
        1.33529        0.856323          0.7875 
        1.35108        0.836171        0.765976 
        1.36674        0.811898        0.745413 
         1.3824        0.799169        0.725626 
        1.39811        0.773472        0.706493 
        1.41389        0.754919        0.687979 
        1.42964        0.735166        0.670162 
        1.44531        0.717142        0.653064 
        1.46101        0.695284        0.636529 
        1.47667        0.682261        0.620616 
        1.49229        0.660071        0.605292 
        1.50793         0.64742        0.590469 
        1.52367        0.628676        0.576048 
        1.53953        0.613676        0.562014 
        1.55526        0.602479         0.54856 
        1.57092        0.593513        0.535603 
        1.58662        0.579975        0.523035 
        1.60235        0.563223        0.510847 
        1.61809        0.549131        0.499042 
        1.63369         0.53385        0.487716 
        1.64941        0.525318        0.476661 
        1.66519        0.515525         0.46591 
        1.68085        0.500742        0.455567 
        1.69652        0.490594        0.445536 
        1.71228        0.478884        0.435751 
        1.72806        0.469918        0.426252 
        1.74368        0.459831        0.417133 
        1.75933        0.451096        0.408262 
        1.77505        0.442896        0.399609 
        1.79081        0.428704        0.391191 
         1.8065        0.424585        0.383053 
        1.82218        0.412407        0.375153 
        1.83797        0.401477        0.367423 
        1.85367        0.397658        0.359953 
        1.86928        0.388498        0.352737 
        1.88497        0.378753        0.345679 
        1.90073          0.3737        0.338789 
        1.91647        0.365395        0.332092 
        1.93218        0.359261        0.325592 
        1.94787        0.351311        0.319275 
        1.96363         0.34498        0.313101 
        1.97935        0.337623        0.307103 
        1.99499        0.331439        0.301297 
        2.01064        0.325724        0.295632 
         2.0264         0.31807        0.290078 
        2.04216        0.311851        0.284669 
        2.05781        0.307366        0.279432 
        2.07353         0.30148        0.274309 
        2.08928        0.296727        0.269303 
        2.10499        0.289964        0.264436 
        2.12065        0.285268        0.259704 
        2.13633        0.280491        0.255083 
        2.15211        0.275032        0.250546 
        2.16785        0.270435        0.246131 
        2.18349        0.266109        0.241851 
        2.19916        0.260292        0.237663 
        2.21489        0.255394        0.233561 
        2.23063        0.251087        0.229553 
         2.2463        0.247449        0.225657 
        2.26194        0.243665        0.221862 
        2.27765        0.238587        0.218134 
        2.29341         0.23478        0.214483 
        2.30914         0.22981        0.210922 
        2.32486        0.226299        0.207445 
        2.34061         0.22234         0.20404 
        2.35635        0.218957        0.200715 
        2.37203        0.217008        0.197475 
        2.38768        0.212306        0.194314 
        2.40339        0.208775         0.19121 
        2.41914        0.205653        0.188167 
        2.43483        0.201963        0.185201 
         2.4505        0.198573        0.182304 
        2.46622        0.195748        0.179459 
        2.48195        0.192085        0.176675 
        2.49759        0.190784        0.173964 
        2.51328        0.185703        0.171304 
        2.52906        0.183162        0.168682 
        2.54479        0.180546        0.166125 
        2.56049        0.177001        0.163626 
        2.57618        0.175696        0.161181 
        2.59189        0.171927        0.158782 
        2.60758        0.170335        0.156435 
        2.62325        0.167451        0.154139 
        2.63898        0.165535        0.151881 
        2.65468         0.16167        0.149673 
        2.67044        0.159839        0.147499 
        2.68618        0.157302        0.145374 
        2.70184        0.155392        0.143299 
        2.71755        0.152433        0.141259 
        2.73329        0.151258        0.139256 
        2.74897        0.148208        0.137298 
        2.76462        0.146438        0.135383 
        2.78034        0.144127        0.133495 
        2.79607        0.142567        0.131642 
        2.81179         0.13931        0.129827 
        2.82749        0.138273        0.128047 
        2.84321        0.136507        0.126299 
        2.85893        0.133966        0.124584 
        2.87462        0.132521        0.122904 
        2.89033        0.130186        0.121253 
        2.90605        0.129002        0.119631 
        2.92176        0.127484         0.11804 
        2.93747         0.12524        0.116479 
        2.95318        0.123875        0.114945 
        2.96891        0.122265        0.113438 
        2.98456        0.121025        0.111965 
        3.00023        0.119068        0.110516 
        3.01596        0.117184        0.109088 
        3.03164         0.11563         0.10769 
        3.04738        0.114495        0.106312 
         3.0631        0.112926        0.104958 
        3.07883         0.11139        0.103628 
        3.09456         0.11003        0.102321 
        3.11026        0.108256        0.101039 
        3.12596        0.107117        0.099779 
        3.14163        0.105856       0.0985433 
        3.15734        0.104879       0.0973256 
        3.17308        0.103216       0.0961256 
        3.18879        0.102015       0.0949491 
        3.20447         0.10055        0.093794 
         3.2202       0.0996658       0.0926545 
         3.2359       0.0983392        0.091536 
        3.25157       0.0970705       0.0904386 
        3.26729       0.0960357       0.0893559 
        3.28304       0.0951928       0.0882888 
        3.29877       0.0935767       0.0872405 
        3.31446       0.0927889       0.0862115 
        3.33014       0.0918526          0.0852 
        3.34585       0.0902569       0.0842031 
        3.36158       0.0894175       0.0832208 
        3.37727       0.0885734       0.0822572 
        3.39294       0.0877236       0.0813097 
        3.40867       0.0865903       0.0803737 
        3.42439       0.0856957        0.079453 
        3.44008        0.084956       0.0785485 
        3.45578       0.0840779       0.0776574 
        3.47153       0.0832341       0.0767782 
        3.48724        0.082297       0.0759141 
        3.50292       0.0815867       0.0750653 
        3.51859       0.0805239       0.0742299 
        3.53431       0.0796973       0.0734046 
        3.55007       0.0789111       0.0725899 
        3.56577       0.0783158       0.0717907 
        3.58146       0.0774113       0.0710039 
        3.59719       0.0764974        0.070227 
        3.61292       0.0757483       0.0694621 
        3.62859       0.0751982       0.0687114 
        3.64429       0.0742135       0.0679704 
        3.66003        0.073973        0.067238 
        3.67578       0.0731008       0.0665167 
        3.69146       0.0724726       0.0658087 
        3.70712       0.0716765       0.0651123 
        3.72284       0.0710104       0.0644233 
        3.73853       0.0705507       0.0637456 
        3.75422       0.0697454       0.0630773 
        3.76993       0.0691674        0.062418 
        3.78564       0.0686948       0.0617685 
        3.80137       0.0682942       0.0611271 
        3.81707       0.0671025       0.0604961 
        3.83279       0.0667572       0.0598735 
        3.84853         0.06616       0.0592587 
        3.86424       0.0656433       0.0586538 
        3.87992       0.0651269       0.0580581 
        3.89561       0.0644489       0.0574707 
        3.91134       0.0639053       0.0568903 
        3.92704       0.0633096       0.0563185 
        3.94273        0.062643       0.0557551 
        3.95845       0.0620614       0.0551984 
        3.97418       0.0616872       0.0546492 
        3.98988       0.0606906       0.0541082 
        4.00554        0.060385        0.053576 
        4.02125       0.0598022       0.0530494 
        4.03698       0.0587727       0.0525291 
        4.05268       0.0583541       0.0520169 
        4.06839        0.057422       0.0515112 
         4.0841       0.0565094       0.0510124 
        4.09983       0.0558002       0.0505195 
        4.11555       0.0549566       0.0500332 
        4.13124       0.0542279       0.0495547 
        4.14693       0.0535782       0.0490821 
        4.16266       0.0527512       0.0486145 
        4.17839       0.0521872       0.0481533 
        4.19408       0.0515263       0.0476991 
        4.20977       0.0509005       0.0472506 
        4.22551       0.0502893       0.0468068 
        4.24123       0.0496676       0.0463691 
        4.25691       0.0492068       0.0459382 
        4.27259       0.0486669       0.0455127 
        4.28831       0.0483377       0.0450917 
        4.30404       0.0476213       0.0446756 
        4.31974       0.0472325       0.0442656 
        4.33543       0.0467384        0.043861 
        4.35116       0.0464752       0.0434605 
        4.36688       0.0458842       0.0430652 
        4.38255       0.0455607       0.0426763 
        4.39825       0.0452889       0.0422913 
        4.41398       0.0448098       0.0419103 
         4.4297       0.0445456       0.0415343 
        4.44541       0.0443472       0.0411631 
        4.46111       0.0439316       0.0407967 
        4.47683        0.043704       0.0404345 
        4.49251       0.0435449       0.0400774 
        4.50819       0.0432564       0.0397247 
         4.5239       0.0430377       0.0393757 
        4.53962       0.0428955       0.0390305 
        4.55535       0.0428325       0.0386893 
        4.57106       0.0425661       0.0383526 
        4.58678       0.0425829       0.0380199 
         4.6025       0.0422348        0.037691 
        4.61821       0.0423417       0.0373661 
        4.63391        0.042195       0.0370454 
         4.6496       0.0420277       0.0367286 
        4.66532       0.0421127       0.0364151 
        4.68103       0.0422098       0.0361053 
        4.69673       0.0420067       0.0357994 
        4.71241       0.0422072       0.0354974 
        4.72811       0.0420229       0.0351984 
        4.74384       0.0420944       0.0349024 
        4.75955       0.0422427       0.0346102 
        4.77525        0.042348       0.0343216 
        4.79096        0.042404       0.0340359 
        4.80669       0.0424757       0.0337533 
         4.8224       0.0426051       0.0334743 
        4.83809       0.0427774       0.0331987 
        4.85379       0.0429794        0.032926 
         4.8695       0.0432438       0.0326562 
        4.88521       0.0434296       0.0323895 
        4.90093       0.0437261       0.0321257 
        4.91663       0.0440321       0.0318651 
        4.93234       0.0440169       0.0316072 
        4.94807       0.0444491       0.0313519 
        4.96377       0.0446746       0.0310999 
        4.97943       0.0451521       0.0308512 
        4.99514       0.0454114       0.0306045 
        5.01086       0.0458065       0.0303604 
        5.02654       0.0462088       0.0301196 
        5.04227       0.0466053       0.0298807 
          5.058       0.0469752       0.0296442 
        5.07371       0.0473542       0.0294108 
        5.08942       0.0479619       0.0291798 
        5.10513       0.0483553       0.0289513 
        5.12084       0.0490061       0.0287252 
        5.13656       0.0495189       0.0285015 
        5.15225       0.0501324       0.0282805 
        5.16796       0.0507131       0.0280616 
        5.18369       0.0513077       0.0278447 
         5.1994       0.0518428       0.0276306 
        5.21509       0.0526468       0.0274188 
        5.23079       0.0531879       0.0272091 
        5.24649       0.0539434       0.0270017 
        5.26217       0.0545732       0.0267966 
        5.27788       0.0556646       0.0265934 
        5.29359       0.0563472       0.0263922 
        5.30933       0.0571254       0.0261928 
        5.32504       0.0579246       0.0259958 
        5.34073       0.0585166        0.025801 
        5.35646        0.059552       0.0256079 
        5.37218        0.060574       0.0254167 
        5.38789       0.0615278       0.0252277 
        5.40357       0.0625495       0.0250409 
        5.41929       0.0636694       0.0248556 
        5.43502       0.0647982       0.0246721 
         5.4507       0.0656751       0.0244909 
        5.46639       0.0665003       0.0243115 
        5.48212       0.0678358       0.0241334 
        5.49786       0.0694418        0.023957 
        5.51353       0.0706368       0.0237832 
        5.52921       0.0714879       0.0236109 
        5.54495       0.0729709       0.0234398 
        5.56066       0.0742473       0.0232706 
        5.57637       0.0757997       0.0231031 
        5.59207         0.07682       0.0229374 
        5.60778       0.0781478       0.0227733 
        5.62346       0.0796542       0.0226109 
        5.63916       0.0815147       0.0224501 
        5.65487       0.0831853       0.0222907 
         5.6706        0.083993       0.0221326 
        5.68633        0.086039        0.021976 
        5.70203       0.0876602       0.0218213 
        5.71773       0.0897987       0.0216681 
        5.73344       0.0917908       0.0215163 
        5.74916       0.0936144       0.0213657 
        5.76486       0.0955455       0.0212169 
        5.78054       0.0976115       0.0210696 
        5.79626       0.0992005       0.0209234 
          5.812        0.101457       0.0207784 
         5.8277        0.103387       0.0206352 
        5.84339        0.105518       0.0204933 
        5.85911        0.107453       0.0203525 
        5.87484        0.109445       0.0202131 
        5.89053        0.112346       0.0200752 
        5.90623        0.115229       0.0199386 
        5.92195         0.11714        0.019803 
        5.93767        0.119262       0.0196687 
        5.95336        0.121741       0.0195359 
        5.96905        0.125576       0.0194043 
        5.98476        0.127154       0.0192738 
        6.00048        0.129818       0.0191445 
        6.01617        0.133115       0.0190165 
        6.03185        0.135545       0.0188898 
        6.04756        0.137402        0.018764 
        6.06331        0.141915        0.018639 
        6.07903        0.144212       0.0185155 
        6.09473        0.146705       0.0183932 
        6.11044        0.151311       0.0182719 
        6.12616        0.153828       0.0181517 
        6.14186        0.157136       0.0180327 
        6.15755        0.160132       0.0179147 
        6.17326        0.164149       0.0177978 
        6.18898        0.167807       0.0176818 
        6.20467        0.170493        0.017567 
        6.22036        0.174335       0.0174533 
         6.2361        0.176973       0.0173403 
         6.2518        0.183567       0.0172285 
        6.26748        0.186188       0.0171179 
        6.28319        0.189599       0.0170079 
        6.29893         0.19485       0.0168989 
        6.31463        0.198777        0.016791 
        6.33033        0.201414        0.016684 
        6.34604        0.206614       0.0165779 
        6.36177        0.209585       0.0164727 
        6.37747        0.214857       0.0163685 
