# k  (h/Mpc)    Pcb(k)  (Mpc/h)^3    Pcb_linear(k) (Mpc/h)^3   ShotnoiseSubtracted = true
      0.0200456         3849.42         3909.88 
      0.0350414          2801.3         2842.35 
      0.0492313         2065.61          2065.2 
      0.0637834         1741.83         1716.78 
      0.0800726         1380.71         1362.57 
       0.096163         979.103         988.661 
       0.111083          776.57         788.582 
       0.126058         706.413         698.844 
       0.142273         605.977         592.075 
       0.158546         488.016         467.615 
        0.17375         398.568         393.965 
       0.188953         373.394         356.726 
       0.204907         346.175          315.63 
       0.220756         289.011         267.042 
        0.23588         252.174         232.304 
         0.2514         224.038         211.045 
       0.267535         209.069          190.96 
       0.283568         188.028         168.401 
       0.299022         171.655         150.037 
       0.314451         154.846         137.123 
       0.330372         143.951         125.795 
       0.346141          130.05         114.178 
       0.361624         121.868         103.772 
       0.377134         114.697          95.487 
       0.392932         102.695         88.3523 
       0.408854         98.8095         81.4437 
       0.424564         94.0027         75.0678 
       0.440253         87.0398         69.5966 
       0.455999         81.9596         64.8391 
       0.471626         76.1999         60.4671 
        0.48727         73.3438         56.3772 
       0.502856         69.3117         52.7031 
       0.518488         66.4956         49.4249 
       0.534347         63.8763         46.3773 
       0.550082           58.62         43.5672 
       0.565732         55.3361         40.9964 
       0.581496         53.7589         38.6419 
       0.597222         52.0031         36.4825 
       0.612804         48.8152         34.4969 
       0.628434         47.3541         32.6461 
       0.644267         46.0565         30.9159 
       0.660051         44.0449         29.3211 
       0.675724         41.8977         27.8486 
       0.691403         40.6105         26.4759 
       0.707174         39.3859          25.188 
       0.722871         37.8763          23.991 
        0.73838         36.6958         22.8845 
       0.754018         35.0735         21.8394 
       0.769845         34.1689         20.8483 
        0.78569         33.1302         19.9178 
       0.801365         31.9292         19.0534 
       0.817031         31.1939         18.2411 
       0.832809          30.579         17.4712 
       0.848511         28.7895         16.7494 
       0.864097         28.3021         16.0736 
       0.879701         27.6832         15.4345 
       0.895507         27.0748         14.8229 
       0.911279          26.209         14.2458 
        0.92691         25.5811         13.7043 
       0.942635         24.6089         13.1882 
       0.958396           24.23         12.6976 
       0.974128          23.493          12.233 
       0.989692         23.2482         11.7963 
        1.00528         22.6891         11.3804 
        1.02113          21.801         10.9781 
        1.03692         21.3629         10.5969 
        1.05264         20.9876         10.2355 
        1.06832         20.4781         9.89165 
        1.08405         19.9695         9.56274 
        1.09979         19.5707         9.24865 
        1.11537         19.1774         8.95183 
        1.13105          18.879         8.66631 
        1.14679         18.6074          8.3922 
        1.16256         17.9269         8.12945 
        1.17828         17.8881         7.87886 
        1.19395         17.2895         7.63972 
         1.2097         17.1391         7.40932 
        1.22537          16.705         7.18957 
          1.241         16.4386         6.97943 
        1.25666         16.0373         6.77719 
        1.27241         15.7197         6.58204 
        1.28819         15.4201         6.39427 
        1.30392         15.2967         6.21441 
        1.31957         15.0773         6.04228 
        1.33529         14.8154         5.87606 
        1.35108         14.4607         5.71545 
        1.36674         14.3161         5.56202 
         1.3824         13.9745         5.41437 
        1.39811         13.7685         5.27161 
        1.41389         13.6101         5.13347 
        1.42964         13.4225         5.00052 
        1.44531         13.2751         4.87294 
        1.46101         12.8976         4.74956 
        1.47667         12.7687         4.63083 
        1.49229         12.6058         4.51648 
        1.50793         12.4159         4.40588 
        1.52367          12.219         4.29828 
        1.53953         12.0573         4.19356 
        1.55526         11.8768         4.09317 
        1.57092         11.7036         3.99649 
        1.58662         11.5872         3.90271 
        1.60235         11.3918         3.81177 
        1.61809          11.257         3.72368 
        1.63369         11.0984         3.63917 
        1.64941         10.9141         3.55668 
        1.66519         10.8418         3.47646 
        1.68085         10.6638         3.39929 
        1.69652         10.5177         3.32444 
        1.71228           10.37         3.25142 
        1.72806         10.3163         3.18055 
        1.74368         10.1273          3.1125 
        1.75933         10.0291         3.04631 
        1.77505         9.90243         2.98174 
        1.79081         9.73171         2.91894 
         1.8065         9.67503         2.85821 
        1.82218         9.50006         2.79927 
        1.83797         9.43942         2.74158 
        1.85367         9.29199         2.68585 
        1.86928         9.28531           2.632 
        1.88497         9.06355         2.57934 
        1.90073         9.03215         2.52793 
        1.91647         8.94819         2.47796 
        1.93218         8.85374         2.42946 
        1.94787         8.71274         2.38232 
        1.96363         8.65413         2.33625 
        1.97935         8.50851          2.2915 
        1.99499         8.40309         2.24817 
        2.01064         8.33347         2.20591 
         2.0264         8.26309         2.16446 
        2.04216         8.16586          2.1241 
        2.05781         8.05301         2.08503 
        2.07353         8.00498          2.0468 
        2.08928         7.92699         2.00945 
        2.10499         7.88046         1.97313 
        2.12065         7.75279         1.93782 
        2.13633         7.72587         1.90334 
        2.15211         7.60027         1.86949 
        2.16785         7.54195         1.83655 
        2.18349         7.48141         1.80461 
        2.19916         7.40058         1.77336 
        2.21489         7.31072         1.74275 
        2.23063         7.25365         1.71285 
         2.2463         7.16659         1.68378 
        2.26194          7.0878         1.65546 
        2.27765         7.06277         1.62764 
        2.29341         6.98377          1.6004 
        2.30914         6.89405         1.57383 
        2.32486         6.81646         1.54788 
        2.34061          6.7827         1.52248 
        2.35635         6.74678         1.49766 
        2.37203         6.67176         1.47349 
        2.38768         6.57968          1.4499 
        2.40339         6.54885         1.42674 
        2.41914         6.44995         1.40404 
        2.43483         6.44039         1.38191 
         2.4505         6.36942         1.36029 
        2.46622         6.31602         1.33906 
        2.48195         6.24184         1.31829 
        2.49759         6.22685         1.29806 
        2.51328         6.14989         1.27821 
        2.52906         6.12575         1.25865 
        2.54479         6.04809         1.23957 
        2.56049          6.0119         1.22092 
        2.57618         5.95834         1.20268 
        2.59189          5.8833         1.18477 
        2.60758         5.87171         1.16727 
        2.62325         5.79848         1.15013 
        2.63898         5.73309         1.13328 
        2.65468         5.68802         1.11681 
        2.67044         5.65529         1.10059 
        2.68618         5.62432         1.08473 
        2.70184         5.56158         1.06925 
        2.71755         5.51197         1.05403 
        2.73329         5.48534         1.03908 
        2.74897         5.45814         1.02447 
        2.76462         5.41283         1.01018 
        2.78034         5.33736        0.996097 
        2.79607         5.30836        0.982271 
        2.81179         5.28355        0.968722 
        2.82749         5.21441        0.955444 
        2.84321         5.22016          0.9424 
        2.85893         5.16421        0.929604 
        2.87462         5.10593        0.917067 
        2.89033         5.07295         0.90475 
        2.90605         5.03022        0.892649 
        2.92176         4.97929        0.880775 
        2.93747          4.9516        0.869124 
        2.95318         4.92775         0.85768 
        2.96891         4.88526        0.846438 
        2.98456          4.8539        0.835447 
        3.00023         4.79744        0.824635 
        3.01596         4.77297        0.813981 
        3.03164         4.75807        0.803545 
        3.04738         4.71581        0.793262 
         3.0631         4.67278        0.783162 
        3.07883         4.64173        0.773238 
        3.09456         4.61091        0.763487 
        3.11026         4.59112         0.75392 
        3.12596         4.54646        0.744517 
        3.14163         4.50378        0.735297 
        3.15734         4.47373        0.726211 
        3.17308         4.45445        0.717257 
        3.18879         4.41302        0.708478 
        3.20447         4.40017        0.699859 
         3.2202         4.34339        0.691356 
         3.2359         4.33526         0.68301 
        3.25157         4.28742        0.674822 
        3.26729         4.27451        0.666743 
        3.28304          4.2372        0.658781 
        3.29877         4.20766        0.650958 
        3.31446         4.17067         0.64328 
        3.33014          4.1596        0.635733 
        3.34585         4.12825        0.628295 
        3.36158         4.10776        0.620965 
        3.37727         4.07031        0.613775 
        3.39294         4.05877        0.606705 
        3.40867         4.01256        0.599721 
        3.42439         3.99151        0.592851 
        3.44008         3.96223        0.586102 
        3.45578         3.93563        0.579453 
        3.47153         3.91183        0.572892 
        3.48724         3.88747        0.566445 
        3.50292          3.8705        0.560112 
        3.51859          3.8376        0.553878 
        3.53431         3.80285         0.54772 
        3.55007          3.7947        0.541641 
        3.56577         3.77523        0.535678 
        3.58146         3.74836        0.529807 
        3.59719         3.72324         0.52401 
        3.61292         3.70032        0.518302 
        3.62859         3.66311        0.512701 
        3.64429         3.64199        0.507172 
        3.66003         3.63183        0.501707 
        3.67578         3.60693        0.496325 
        3.69146         3.57498        0.491042 
        3.70712         3.56002        0.485846 
        3.72284         3.53015        0.480705 
        3.73853          3.5192        0.475648 
        3.75422         3.49262        0.470661 
        3.76993         3.46333        0.465742 
        3.78564         3.45034        0.460895 
        3.80137         3.43408        0.456109 
        3.81707         3.40007        0.451401 
        3.83279         3.38567        0.446756 
        3.84853         3.35687        0.442169 
        3.86424          3.3397        0.437654 
        3.87992         3.31978         0.43321 
        3.89561         3.30317        0.428827 
        3.91134          3.2821        0.424496 
        3.92704         3.26086        0.420229 
        3.94273         3.23893        0.416026 
        3.95845         3.22533        0.411872 
        3.97418          3.1975        0.407774 
        3.98988         3.17951        0.403737 
        4.00554          3.1549        0.399766 
        4.02125         3.12917        0.395837 
        4.03698          3.1197        0.391954 
        4.05268         3.09523        0.388133 
        4.06839          3.0847        0.384359 
         4.0841         3.05977        0.380637 
        4.09983         3.03427        0.376959 
        4.11555         3.02231        0.373331 
        4.13124         3.00124        0.369761 
        4.14693         2.97779        0.366234 
        4.16266         2.96216        0.362745 
        4.17839         2.94623        0.359304 
        4.19408         2.91878        0.355915 
        4.20977         2.90386        0.352568 
        4.22551          2.8827        0.349256 
        4.24123          2.8677        0.345991 
        4.25691         2.85047        0.342775 
        4.27259         2.83842          0.3396 
        4.28831          2.8189        0.336459 
        4.30404         2.79963        0.333354 
        4.31974         2.78666        0.330295 
        4.33543         2.76937        0.327276 
        4.35116          2.7483        0.324288 
        4.36688         2.74033        0.321338 
        4.38255         2.71929        0.318436 
        4.39825         2.70531        0.315563 
        4.41398         2.69108         0.31272 
         4.4297         2.67151        0.309915 
        4.44541          2.6559        0.307145 
        4.46111         2.64192        0.304411 
        4.47683         2.61851        0.301708 
        4.49251          2.6127        0.299044 
        4.50819         2.59526        0.296412 
         4.5239         2.58104        0.293808 
        4.53962         2.56929        0.291232 
        4.55535         2.55702        0.288686 
        4.57106          2.5426        0.286174 
        4.58678         2.52565        0.283691 
         4.6025         2.51043        0.281238 
        4.61821         2.49642        0.278813 
        4.63391         2.48353         0.27642 
         4.6496         2.46932        0.274057 
        4.66532         2.44742        0.271717 
        4.68103         2.44269        0.269406 
        4.69673         2.42748        0.267123 
        4.71241         2.40923         0.26487 
        4.72811         2.40111        0.262638 
        4.74384         2.39085         0.26043 
        4.75955         2.37814         0.25825 
        4.77525         2.36644        0.256096 
        4.79096         2.34834        0.253964 
        4.80669         2.34085        0.251856 
         4.8224         2.33033        0.249774 
        4.83809         2.31611        0.247717 
        4.85379         2.30271        0.245683 
         4.8695         2.28834        0.243669 
        4.88521         2.27564        0.241679 
        4.90093         2.26079        0.239711 
        4.91663         2.24981        0.237767 
        4.93234         2.23952        0.235842 
        4.94807         2.22906        0.233937 
        4.96377          2.2127        0.232057 
        4.97943         2.20829        0.230201 
        4.99514         2.19348        0.228361 
        5.01086         2.17823        0.226539 
        5.02654         2.17194        0.224742 
        5.04227         2.16552        0.222959 
          5.058         2.15223        0.221195 
        5.07371         2.13885        0.219453 
        5.08942         2.13219         0.21773 
        5.10513          2.1179        0.216025 
        5.12084         2.11415        0.214337 
        5.13656         2.09675        0.212668 
        5.15225         2.08757         0.21102 
        5.16796         2.07267        0.209386 
        5.18369         2.06556        0.207768 
         5.1994         2.05843         0.20617 
        5.21509         2.04496         0.20459 
        5.23079         2.03767        0.203025 
        5.24649         2.02619        0.201478 
        5.26217         2.02113        0.199947 
        5.27788         2.00561        0.198431 
        5.29359         2.00354         0.19693 
        5.30933         1.99199        0.195442 
        5.32504         1.97871        0.193972 
        5.34073         1.97241        0.192519 
        5.35646         1.95911        0.191077 
        5.37218         1.95068        0.189651 
        5.38789         1.94866        0.188241 
        5.40357         1.93729        0.186847 
        5.41929         1.92829        0.185464 
        5.43502         1.91817        0.184095 
         5.4507         1.90911        0.182743 
        5.46639          1.9038        0.181404 
        5.48212         1.89165        0.180076 
        5.49786         1.88678        0.178759 
        5.51353         1.87355        0.177462 
        5.52921         1.86516        0.176176 
        5.54495         1.85878          0.1749 
        5.56066          1.8508        0.173637 
        5.57637         1.84123        0.172388 
        5.59207         1.83396        0.171151 
        5.60778         1.82562        0.169926 
        5.62346         1.81885        0.168715 
        5.63916           1.807        0.167515 
        5.65487         1.79909        0.166325 
         5.6706          1.7956        0.165146 
        5.68633         1.78166        0.163978 
        5.70203         1.77556        0.162823 
        5.71773         1.76969         0.16168 
        5.73344          1.7592        0.160547 
        5.74916         1.74998        0.159424 
        5.76486         1.74557        0.158313 
        5.78054         1.73817        0.157214 
        5.79626         1.72833        0.156123 
          5.812         1.72465        0.155041 
         5.8277         1.71449        0.153973 
        5.84339         1.70972        0.152914 
        5.85911          1.7011        0.151864 
        5.87484         1.69573        0.150823 
        5.89053         1.68745        0.149794 
        5.90623         1.67791        0.148775 
        5.92195         1.67258        0.147763 
        5.93767          1.6653        0.146761 
        5.95336         1.65823         0.14577 
        5.96905         1.65122        0.144789 
        5.98476         1.64389        0.143815 
        6.00048         1.63569         0.14285 
        6.01617          1.6329        0.141894 
        6.03185         1.62475        0.140949 
        6.04756         1.61803         0.14001 
        6.06331         1.61065        0.139078 
        6.07903         1.60578        0.138156 
        6.09473         1.60235        0.137244 
        6.11044         1.59088        0.136338 
        6.12616          1.5848        0.135442 
        6.14186         1.57802        0.134554 
        6.15755         1.57449        0.133674 
        6.17326         1.56597        0.132801 
        6.18898         1.56197        0.131935 
        6.20467         1.55525        0.131079 
        6.22036         1.54692        0.130231 
         6.2361          1.5415        0.129388 
         6.2518         1.53651        0.128553 
        6.26748         1.52911        0.127728 
        6.28319         1.52357        0.126908 
        6.29893         1.51922        0.126094 
        6.31463         1.51153        0.125288 
        6.33033           1.507         0.12449 
        6.34604         1.49925        0.123699 
        6.36177         1.49526        0.122913 
        6.37747         1.48959        0.122136 
