# k  (h/Mpc)    Pcb(k)  (Mpc/h)^3    Pcb_linear(k) (Mpc/h)^3   ShotnoiseSubtracted = true
      0.0200456         17074.4         17354.3 
      0.0350414         12987.4           12616 
      0.0492313         9019.08         9166.53 
      0.0637834         7279.84         7620.05 
      0.0800726          5722.6         6047.85 
       0.096163         4551.38         4388.24 
       0.111083         3704.63         3500.17 
       0.126058         3069.97         3101.87 
       0.142273         2671.39         2627.96 
       0.158546         2194.24         2075.54 
        0.17375          1941.2         1748.64 
       0.188953         1821.58         1583.35 
       0.204907          1562.4         1400.95 
       0.220756         1406.58         1185.29 
        0.23588         1253.92          1031.1 
         0.2514         1127.63         936.739 
       0.267535         1093.12         847.588 
       0.283568         964.171         747.459 
       0.299022         920.733         665.947 
       0.314451         949.301         608.631 
       0.330372         823.739          558.35 
       0.346141         759.345         506.788 
       0.361624         727.998         460.601 
       0.377134         691.822         423.826 
       0.392932          665.15         392.157 
       0.408854         634.503         361.494 
       0.424564         617.624         333.194 
       0.440253         565.639         308.909 
       0.455999         541.461         287.793 
       0.471626         550.487         268.387 
        0.48727          519.74         250.234 
       0.502856          487.09         233.926 
       0.518488         482.068         219.376 
       0.534347         453.998         205.849 
       0.550082          435.37         193.376 
       0.565732         431.678         181.965 
       0.581496         419.809         171.515 
       0.597222         408.063          161.93 
       0.612804         398.515         153.117 
       0.628434         382.526         144.902 
       0.644267         368.542         137.222 
       0.660051         363.585         130.144 
       0.675724         357.158         123.608 
       0.691403         348.818         117.515 
       0.707174         335.691         111.799 
       0.722871         330.338         106.486 
        0.73838         325.976         101.574 
       0.754018         313.905         96.9358 
       0.769845         312.147         92.5366 
        0.78569          305.12         88.4066 
       0.801365         295.936         84.5699 
       0.817031         292.388         80.9643 
       0.832809         287.192         77.5471 
       0.848511         280.308         74.3434 
       0.864097         273.441         71.3436 
       0.879701         271.874         68.5072 
       0.895507         264.174         65.7923 
       0.911279         257.662         63.2308 
        0.92691         255.254         60.8276 
       0.942635         253.145         58.5365 
       0.958396         245.925         56.3592 
       0.974128         242.847          54.297 
       0.989692         234.031         52.3588 
        1.00528         233.735         50.5128 
        1.02113         230.178         48.7272 
        1.03692         224.885         47.0349 
        1.05264         221.121          45.431 
        1.06832         220.626         43.9048 
        1.08405         214.505         42.4449 
        1.09979         212.815         41.0507 
        1.11537         208.326         39.7333 
        1.13105         204.748          38.466 
        1.14679         202.907         37.2494 
        1.16256         200.063         36.0831 
        1.17828          197.66         34.9709 
        1.19395          192.38         33.9094 
         1.2097         191.717         32.8868 
        1.22537         189.988         31.9114 
          1.241         184.796         30.9787 
        1.25666         183.029          30.081 
        1.27241         179.283         29.2148 
        1.28819         177.429         28.3814 
        1.30392         175.016         27.5831 
        1.31957         170.732         26.8191 
        1.33529         168.601         26.0813 
        1.35108         167.216         25.3684 
        1.36674         163.928         24.6874 
         1.3824          162.72         24.0321 
        1.39811         159.956         23.3984 
        1.41389         156.958         22.7852 
        1.42964         154.986         22.1951 
        1.44531         153.414         21.6289 
        1.46101         150.234         21.0812 
        1.47667         149.605         20.5542 
        1.49229         147.156         20.0467 
        1.50793          144.46         19.5558 
        1.52367         142.993         19.0782 
        1.53953         140.042         18.6134 
        1.55526         139.631         18.1678 
        1.57092         137.901         17.7387 
        1.58662         134.598         17.3224 
        1.60235         133.341         16.9188 
        1.61809         131.488         16.5278 
        1.63369         129.518         16.1527 
        1.64941         128.656         15.7866 
        1.66519         126.701         15.4305 
        1.68085         124.297          15.088 
        1.69652         123.194         14.7557 
        1.71228         122.046         14.4317 
        1.72806         120.652         14.1171 
        1.74368         118.747         13.8151 
        1.75933         117.746         13.5213 
        1.77505         115.597         13.2347 
        1.79081         114.006         12.9559 
         1.8065         112.068         12.6864 
        1.82218          110.84         12.4247 
        1.83797         110.378         12.1687 
        1.85367         108.503         11.9213 
        1.86928         107.738         11.6823 
        1.88497         105.713         11.4486 
        1.90073          104.97         11.2204 
        1.91647          103.23         10.9986 
        1.93218          102.07         10.7833 
        1.94787         100.417         10.5741 
        1.96363         99.6328         10.3696 
        1.97935         98.5004          10.171 
        1.99499         97.7147         9.97867 
        2.01064         95.3935         9.79106 
         2.0264         94.8901         9.60711 
        2.04216         92.8221         9.42797 
        2.05781         92.4483         9.25455 
        2.07353         91.1788         9.08487 
        2.08928         89.8668         8.91908 
        2.10499         88.8231         8.75788 
        2.12065         88.2671         8.60115 
        2.13633         87.1026         8.44812 
        2.15211         85.7033         8.29784 
        2.16785          84.492         8.15163 
        2.18349         83.3772         8.00987 
        2.19916         82.3661         7.87118 
        2.21489         81.6319         7.73533 
        2.23063          80.341         7.60259 
         2.2463         79.8696         7.47357 
        2.26194         78.7477         7.34786 
        2.27765         77.8069          7.2244 
        2.29341         76.9137         7.10347 
        2.30914         75.9685         6.98555 
        2.32486         74.4456         6.87038 
        2.34061         74.0496         6.75761 
        2.35635         73.0387         6.64748 
        2.37203         72.0201         6.54019 
        2.38768         71.3441         6.43548 
        2.40339         70.6392          6.3327 
        2.41914         69.4301         6.23192 
        2.43483         68.9447         6.13369 
         2.4505         67.9675         6.03774 
        2.46622         67.4435         5.94352 
        2.48195         66.4565         5.85131 
        2.49759         65.6818         5.76154 
        2.51328         64.8672         5.67343 
        2.52906         63.9814          5.5866 
        2.54479         63.4107         5.50191 
        2.56049         62.6696         5.41915 
        2.57618         61.7615         5.33816 
        2.59189         61.3671          5.2587 
        2.60758         60.4521         5.18099 
        2.62325         59.7891         5.10494 
        2.63898         59.2012         5.03016 
        2.65468         58.6336         4.95703 
        2.67044          57.942         4.88504 
        2.68618         57.3629         4.81465 
        2.70184         56.6184         4.74592 
        2.71755         55.8071         4.67837 
        2.73329         55.3343         4.61203 
        2.74897         54.8047         4.54719 
        2.76462         54.4499         4.48374 
        2.78034         53.7412         4.42125 
        2.79607         52.9722         4.35987 
        2.81179         52.3499         4.29974 
        2.82749         51.8929          4.2408 
        2.84321         51.4512         4.18291 
        2.85893         50.8744         4.12611 
        2.87462          50.166         4.07047 
        2.89033         49.5625          4.0158 
        2.90605         49.0241         3.96208 
        2.92176         48.6403         3.90938 
        2.93747          48.019         3.85766 
        2.95318         47.5601         3.80687 
        2.96891         46.9743         3.75697 
        2.98456         46.5526         3.70819 
        3.00023         45.8357          3.6602 
        3.01596         45.4573         3.61291 
        3.03164         45.0397         3.56659 
        3.04738         44.6119         3.52095 
         3.0631          44.098         3.47612 
        3.07883         43.6105         3.43207 
        3.09456         43.1079         3.38879 
        3.11026         42.7136         3.34632 
        3.12596         42.3076         3.30459 
        3.14163          41.795         3.26366 
        3.15734          41.382         3.22334 
        3.17308         41.0197         3.18359 
        3.18879         40.6811         3.14463 
        3.20447         40.2253         3.10637 
         3.2202         39.7555         3.06863 
         3.2359          39.426         3.03159 
        3.25157         38.9489         2.99524 
        3.26729         38.5709         2.95938 
        3.28304          38.253         2.92404 
        3.29877          37.688         2.88932 
        3.31446         37.4409         2.85524 
        3.33014          37.025         2.82174 
        3.34585         36.5475         2.78873 
        3.36158         36.2702          2.7562 
        3.37727         35.9189         2.72428 
        3.39294         35.5343          2.6929 
        3.40867         35.2135          2.6619 
        3.42439         34.7916         2.63141 
        3.44008         34.5349         2.60145 
        3.45578         34.1338         2.57194 
        3.47153           33.89         2.54282 
        3.48724         33.5195          2.5142 
        3.50292         33.1593         2.48609 
        3.51859         32.9431         2.45843 
        3.53431         32.6534         2.43109 
        3.55007         32.1025         2.40411 
        3.56577         32.0691         2.37764 
        3.58146          31.599         2.35158 
        3.59719           31.32         2.32585 
        3.61292         31.0911         2.30052 
        3.62859         30.7166         2.27566 
        3.64429         30.4436         2.25112 
        3.66003         30.1485         2.22686 
        3.67578         29.9098         2.20297 
        3.69146         29.6422         2.17952 
        3.70712         29.2685         2.15646 
        3.72284          29.039         2.13364 
        3.73853         28.8664          2.1112 
        3.75422         28.5766         2.08906 
        3.76993         28.2872         2.06723 
        3.78564         28.0496         2.04571 
        3.80137         27.8345         2.02447 
        3.81707         27.5287         2.00358 
        3.83279         27.2551         1.98296 
        3.84853         27.0289         1.96259 
        3.86424         26.6793         1.94256 
        3.87992         26.4395         1.92283 
        3.89561         26.2744         1.90338 
        3.91134         26.0197         1.88415 
        3.92704         25.7344         1.86522 
        3.94273         25.4533         1.84656 
        3.95845         25.3241         1.82812 
        3.97418         25.0246         1.80993 
        3.98988         24.8217         1.79201 
        4.00554         24.5608         1.77439 
        4.02125         24.4175         1.75695 
        4.03698         24.1753         1.73972 
        4.05268         23.9385         1.72275 
        4.06839         23.7195           1.706 
         4.0841          23.535         1.68948 
        4.09983         23.2605         1.67316 
        4.11555         23.0611         1.65706 
        4.13124         23.0011         1.64121 
        4.14693         22.6539         1.62555 
        4.16266          22.497         1.61007 
        4.17839         22.3579         1.59479 
        4.19408         22.0947         1.57975 
        4.20977         21.9702          1.5649 
        4.22551         21.7736          1.5502 
        4.24123         21.5465          1.5357 
        4.25691         21.3566         1.52143 
        4.27259         21.2204         1.50734 
        4.28831         21.0201         1.49339 
        4.30404         20.8435         1.47961 
        4.31974         20.6268         1.46604 
        4.33543         20.4839         1.45264 
        4.35116         20.3091         1.43937 
        4.36688          20.106         1.42628 
        4.38255         19.9296          1.4134 
        4.39825         19.7953         1.40065 
        4.41398         19.6309         1.38803 
         4.4297         19.4586         1.37558 
        4.44541         19.2727         1.36328 
        4.46111         19.0826         1.35115 
        4.47683         18.9363         1.33915 
        4.49251         18.8264         1.32733 
        4.50819         18.6627         1.31564 
         4.5239         18.5071         1.30409 
        4.53962         18.3754         1.29265 
        4.55535         18.1862         1.28135 
        4.57106         18.1019          1.2702 
        4.58678         17.9159         1.25918 
         4.6025          17.676         1.24829 
        4.61821         17.5822         1.23753 
        4.63391          17.448         1.22691 
         4.6496           17.36         1.21642 
        4.66532         17.1485         1.20603 
        4.68103         17.0346         1.19577 
        4.69673         16.9305         1.18564 
        4.71241         16.8133         1.17564 
        4.72811         16.6386         1.16574 
        4.74384         16.4875         1.15593 
        4.75955         16.3732         1.14626 
        4.77525         16.2563          1.1367 
        4.79096         16.0899         1.12724 
        4.80669          15.972         1.11788 
         4.8224         15.8275         1.10864 
        4.83809         15.7014         1.09951 
        4.85379         15.6068         1.09048 
         4.8695         15.4965         1.08154 
        4.88521         15.3624         1.07271 
        4.90093         15.2292         1.06397 
        4.91663         15.0809         1.05534 
        4.93234         14.9819          1.0468 
        4.94807         14.8829         1.03835 
        4.96377         14.7549            1.03 
        4.97943         14.6523         1.02176 
        4.99514         14.5152         1.01359 
        5.01086         14.4407         1.00551 
        5.02654         14.3098        0.997534 
        5.04227         14.1795         0.98962 
          5.058         14.0779        0.981789 
        5.07371         13.9663        0.974058 
        5.08942         13.9014        0.966409 
        5.10513         13.7578        0.958842 
        5.12084         13.6695        0.951351 
        5.13656         13.5697        0.943943 
        5.15225         13.4534        0.936625 
        5.16796         13.3257        0.929373 
        5.18369         13.2212        0.922191 
         5.1994         13.1493        0.915099 
        5.21509         13.0268        0.908087 
        5.23079          12.956         0.90114 
        5.24649         12.8564        0.894272 
        5.26217         12.7555        0.887479 
        5.27788         12.6502        0.880748 
        5.29359         12.5409        0.874085 
        5.30933         12.4878        0.867481 
        5.32504         12.3953        0.860957 
        5.34073         12.2901        0.854507 
        5.35646         12.2135         0.84811 
        5.37218         12.0956        0.841777 
        5.38789         11.9953        0.835519 
        5.40357         11.9376        0.829332 
        5.41929         11.8568        0.823194 
        5.43502         11.7525        0.817117 
         5.4507         11.6734        0.811115 
        5.46639         11.5704        0.805174 
        5.48212         11.4984        0.799277 
        5.49786         11.4281        0.793433 
        5.51353         11.3334        0.787676 
        5.52921         11.2616        0.781971 
        5.54495         11.1817        0.776305 
        5.56066         11.0839        0.770701 
        5.57637         11.0139        0.765154 
        5.59207          10.964        0.759666 
        5.60778          10.872        0.754229 
        5.62346          10.754        0.748854 
        5.63916         10.7101        0.743525 
        5.65487          10.654        0.738246 
         5.6706         10.5497        0.733012 
        5.68633         10.4726        0.727826 
        5.70203         10.4071        0.722702 
        5.71773         10.3086        0.717627 
        5.73344         10.2446        0.712599 
        5.74916         10.1882        0.707614 
        5.76486         10.1198        0.702683 
        5.78054         10.0501        0.697807 
        5.79626         9.99657        0.692964 
          5.812         9.91696        0.688161 
         5.8277         9.83812        0.683419 
        5.84339         9.75541        0.678721 
        5.85911         9.68802        0.674057 
        5.87484         9.62785        0.669439 
        5.89053         9.55527        0.664873 
        5.90623         9.49759        0.660347 
        5.92195         9.43137        0.655856 
        5.93767         9.39149        0.651409 
        5.95336         9.29553         0.64701 
        5.96905         9.25085        0.642654 
        5.98476         9.18106        0.638331 
        6.00048         9.12169        0.634047 
        6.01617         9.04793        0.629808 
        6.03185         8.98852        0.625613 
        6.04756         8.92314        0.621446 
        6.06331         8.87617        0.617308 
        6.07903          8.8153        0.613216 
        6.09473          8.7584        0.609165 
        6.11044         8.69108        0.605148 
        6.12616         8.63724        0.601167 
        6.14186         8.58128        0.597225 
        6.15755         8.52086        0.593319 
        6.17326         8.47177        0.589446 
        6.18898         8.40988        0.585604 
        6.20467         8.34377        0.581804 
        6.22036         8.29205        0.578038 
         6.2361         8.22946        0.574295 
         6.2518         8.20283        0.570592 
        6.26748         8.12282        0.566929 
        6.28319          8.0917        0.563288 
        6.29893         8.03821        0.559676 
        6.31463         7.95939        0.556101 
        6.33033         7.92175        0.552559 
        6.34604         7.87503        0.549046 
        6.36177         7.83433        0.545559 
        6.37747         7.76109        0.542109 
