# k  (h/Mpc)    Pcb(k)  (Mpc/h)^3    Pcb_linear(k) (Mpc/h)^3   ShotnoiseSubtracted = true
      0.0200456         606.647         614.441 
      0.0350414         451.209         446.678 
      0.0492313         325.773         324.548 
      0.0637834         267.776         269.794 
      0.0800726         212.043         214.128 
       0.096163         157.393         155.369 
       0.111083         126.064         123.926 
       0.126058         109.321         109.824 
       0.142273         92.3777          93.045 
       0.158546         73.8818          73.486 
        0.17375         62.8109         61.9119 
       0.188953         56.3908         56.0598 
       0.204907         48.8714         49.6015 
       0.220756         42.2306         41.9659 
        0.23588         36.7823         36.5067 
         0.2514         33.3843         33.1659 
       0.267535         30.3629         30.0095 
       0.283568         26.7566         26.4643 
       0.299022         23.9746         23.5784 
       0.314451         22.2486          21.549 
       0.330372         20.1622         19.7688 
       0.346141         18.3283         17.9432 
       0.361624         16.6463         16.3079 
       0.377134         15.2595         15.0059 
       0.392932          14.511         13.8846 
       0.408854         13.1169         12.7989 
       0.424564         12.3669          11.797 
       0.440253         11.3252         10.9372 
       0.455999         10.4106         10.1895 
       0.471626         9.73727         9.50244 
        0.48727         9.29133         8.85972 
       0.502856         8.70219         8.28234 
       0.518488         8.01792         7.76716 
       0.534347         7.49099         7.28822 
       0.550082         7.16261         6.84662 
       0.565732         6.82852         6.44262 
       0.581496         6.39871          6.0726 
       0.597222         6.02733         5.73325 
       0.612804         5.68008         5.42121 
       0.628434         5.43373         5.13036 
       0.644267         5.16686         4.85845 
       0.660051         4.89499         4.60784 
       0.675724         4.61476         4.37642 
       0.691403         4.42222         4.16071 
       0.707174         4.20419         3.95832 
       0.722871         4.09591          3.7702 
        0.73838          3.8195         3.59631 
       0.754018         3.64849         3.43208 
       0.769845         3.45511         3.27633 
        0.78569         3.35899          3.1301 
       0.801365         3.21338         2.99426 
       0.817031         3.09506          2.8666 
       0.832809         2.93292         2.74561 
       0.848511         2.83824         2.63218 
       0.864097         2.73575         2.52597 
       0.879701         2.65124         2.42555 
       0.895507         2.52036         2.32942 
       0.911279         2.43946         2.23873 
        0.92691         2.36755         2.15364 
       0.942635         2.24798         2.07253 
       0.958396         2.17644         1.99544 
       0.974128         2.10834         1.92243 
       0.989692         2.02364          1.8538 
        1.00528         1.95723         1.78844 
        1.02113         1.90537         1.72522 
        1.03692         1.85146          1.6653 
        1.05264         1.76665         1.60852 
        1.06832         1.71901         1.55448 
        1.08405         1.65517         1.50279 
        1.09979         1.61524         1.45343 
        1.11537          1.5585         1.40679 
        1.13105         1.49882         1.36192 
        1.14679         1.46385         1.31884 
        1.16256         1.41702         1.27755 
        1.17828         1.38794         1.23817 
        1.19395         1.33869         1.20059 
         1.2097         1.29768         1.16438 
        1.22537         1.25393         1.12985 
          1.241         1.22524         1.09682 
        1.25666         1.20096         1.06504 
        1.27241         1.16381         1.03437 
        1.28819         1.12234         1.00486 
        1.30392         1.09546        0.976598 
        1.31957         1.07054        0.949548 
        1.33529         1.03111        0.923427 
        1.35108         1.00878        0.898188 
        1.36674        0.979513        0.874075 
         1.3824        0.965341        0.850872 
        1.39811        0.934916        0.828438 
        1.41389        0.911843        0.806728 
        1.42964        0.888305        0.785835 
        1.44531        0.868183        0.765787 
        1.46101         0.84163        0.746397 
        1.47667        0.826447        0.727738 
        1.49229        0.798723        0.709769 
        1.50793        0.782986        0.692387 
        1.52367        0.761515        0.675477 
        1.53953        0.743445         0.65902 
        1.55526        0.731398        0.643244 
        1.57092        0.720013        0.628051 
        1.58662        0.705006        0.613314 
        1.60235        0.683295        0.599022 
        1.61809        0.667531         0.58518 
        1.63369        0.648437        0.571898 
        1.64941        0.638556        0.558935 
        1.66519        0.627067        0.546328 
        1.68085        0.609329          0.5342 
        1.69652        0.597001        0.522438 
        1.71228        0.583066        0.510964 
        1.72806        0.572031        0.499826 
        1.74368        0.560451        0.489132 
        1.75933        0.549957         0.47873 
        1.77505        0.540215        0.468583 
        1.79081         0.52268        0.458713 
         1.8065        0.518181         0.44917 
        1.82218        0.503459        0.439907 
        1.83797        0.490375        0.430842 
        1.85367        0.485912        0.422083 
        1.86928        0.475215        0.413621 
        1.88497        0.463026        0.405345 
        1.90073        0.457716        0.397265 
        1.91647        0.446618        0.389413 
        1.93218        0.439319        0.381791 
        1.94787        0.430373        0.374384 
        1.96363        0.422907        0.367144 
        1.97935        0.413794        0.360111 
        1.99499        0.406667        0.353302 
        2.01064        0.399612         0.34666 
         2.0264        0.389697        0.340147 
        2.04216        0.383142        0.333804 
        2.05781        0.377658        0.327664 
        2.07353         0.37016        0.321656 
        2.08928        0.364484        0.315787 
        2.10499        0.356581        0.310079 
        2.12065        0.350803         0.30453 
        2.13633        0.345129        0.299112 
        2.15211        0.338022        0.293791 
        2.16785        0.333054        0.288614 
        2.18349        0.327713        0.283595 
        2.19916        0.321026        0.278685 
        2.21489        0.314881        0.273875 
        2.23063        0.309476        0.269175 
         2.2463         0.30514        0.264607 
        2.26194        0.300707        0.260156 
        2.27765         0.29461        0.255785 
        2.29341        0.290017        0.251503 
        2.30914        0.283838        0.247328 
        2.32486         0.27974        0.243251 
        2.34061        0.274613        0.239258 
        2.35635        0.270713        0.235359 
        2.37203        0.268311         0.23156 
        2.38768        0.262784        0.227853 
        2.40339        0.258401        0.224214 
        2.41914         0.25477        0.220646 
        2.43483        0.250111        0.217168 
         2.4505        0.246254        0.213771 
        2.46622        0.242755        0.210435 
        2.48195        0.238031         0.20717 
        2.49759        0.236933        0.203992 
        2.51328        0.230837        0.200872 
        2.52906        0.227306        0.197798 
        2.54479        0.224245        0.194799 
        2.56049        0.220089        0.191869 
        2.57618        0.218378        0.189001 
        2.59189        0.213716        0.186188 
        2.60758        0.211964        0.183437 
        2.62325         0.20856        0.180744 
        2.63898        0.206151        0.178096 
        2.65468        0.201272        0.175507 
        2.67044        0.199145        0.172958 
        2.68618        0.196198        0.170466 
        2.70184        0.193583        0.168033 
        2.71755        0.190071        0.165641 
        2.73329        0.188978        0.163292 
        2.74897        0.184801        0.160997 
        2.76462         0.18307         0.15875 
        2.78034        0.179972        0.156537 
        2.79607        0.178187        0.154365 
        2.81179        0.174143        0.152235 
        2.82749        0.172929        0.150149 
        2.84321        0.170791        0.148099 
        2.85893         0.16786        0.146088 
        2.87462        0.165654        0.144118 
        2.89033        0.163183        0.142182 
        2.90605        0.161505         0.14028 
        2.92176        0.159968        0.138414 
        2.93747        0.157052        0.136583 
        2.95318        0.155308        0.134785 
        2.96891        0.153419        0.133018 
        2.98456        0.151897        0.131291 
        3.00023        0.149381        0.129592 
        3.01596        0.147289        0.127918 
        3.03164         0.14536        0.126278 
        3.04738        0.144002        0.124662 
         3.0631        0.142184        0.123075 
        3.07883        0.140267        0.121515 
        3.09456        0.138525        0.119983 
        3.11026         0.13633        0.118479 
        3.12596        0.134704        0.117001 
        3.14163        0.133441        0.115552 
        3.15734         0.13209        0.114125 
        3.17308        0.130182        0.112717 
        3.18879         0.12862        0.111338 
        3.20447        0.126842        0.109983 
         3.2202        0.125821        0.108647 
         3.2359        0.124096        0.107336 
        3.25157        0.122462        0.106049 
        3.26729        0.121357        0.104779 
        3.28304        0.120189        0.103528 
        3.29877        0.118307        0.102299 
        3.31446        0.117485        0.101092 
        3.33014         0.11611       0.0999059 
        3.34585         0.11418        0.098737 
        3.36158        0.113165       0.0975851 
        3.37727        0.112305       0.0964552 
        3.39294        0.111106       0.0953442 
        3.40867        0.109613       0.0942467 
        3.42439        0.108654        0.093167 
        3.44008        0.107696       0.0921064 
        3.45578        0.106458       0.0910615 
        3.47153        0.105519       0.0900305 
        3.48724        0.104385       0.0890172 
        3.50292        0.103574        0.088022 
        3.51859        0.102224       0.0870424 
        3.53431         0.10111       0.0860746 
        3.55007        0.100177       0.0851193 
        3.56577       0.0995207       0.0841821 
        3.58146       0.0983484       0.0832595 
        3.59719       0.0972378       0.0823486 
        3.61292       0.0963729       0.0814516 
        3.62859       0.0956782       0.0805714 
        3.64429       0.0943086       0.0797024 
        3.66003       0.0940206       0.0788437 
        3.67578       0.0929315       0.0779978 
        3.69146       0.0921887       0.0771676 
        3.70712       0.0912141        0.076351 
        3.72284       0.0905186       0.0755432 
        3.73853       0.0898006       0.0747484 
        3.75422       0.0888174       0.0739648 
        3.76993       0.0880829       0.0731917 
        3.78564       0.0875043         0.07243 
        3.80137       0.0869763       0.0716779 
        3.81707       0.0855181       0.0709381 
        3.83279       0.0851171        0.070208 
        3.84853       0.0843728       0.0694871 
        3.86424       0.0836283       0.0687777 
        3.87992       0.0829996       0.0680793 
        3.89561         0.08225       0.0673905 
        3.91134         0.08146       0.0667098 
        3.92704       0.0807265       0.0660393 
        3.94273       0.0799585       0.0653787 
        3.95845       0.0791652       0.0647259 
        3.97418       0.0787529       0.0640819 
        3.98988       0.0774458       0.0634476 
        4.00554       0.0770889       0.0628235 
        4.02125       0.0762695        0.062206 
        4.03698       0.0750432       0.0615959 
        4.05268        0.074473       0.0609953 
        4.06839       0.0733496       0.0604023 
         4.0841       0.0722336       0.0598174 
        4.09983       0.0714042       0.0592394 
        4.11555       0.0703584       0.0586692 
        4.13124       0.0694838       0.0581082 
        4.14693       0.0686213       0.0575539 
        4.16266       0.0676641       0.0570056 
        4.17839       0.0669338       0.0564648 
        4.19408       0.0660548       0.0559323 
        4.20977        0.065313       0.0554063 
        4.22551       0.0645935       0.0548859 
        4.24123       0.0638131       0.0543727 
        4.25691       0.0632249       0.0538674 
        4.27259       0.0625149       0.0533684 
        4.28831       0.0621268       0.0528747 
        4.30404       0.0611252       0.0523868 
        4.31974       0.0607392       0.0519061 
        4.33543        0.060112       0.0514317 
        4.35116       0.0598238       0.0509621 
        4.36688       0.0590684       0.0504985 
        4.38255       0.0586849       0.0500424 
        4.39825        0.058293        0.049591 
        4.41398       0.0577353       0.0491442 
         4.4297       0.0574013       0.0487034 
        4.44541       0.0570905       0.0482681 
        4.46111       0.0565965       0.0478384 
        4.47683       0.0562528       0.0474137 
        4.49251       0.0560628       0.0469949 
        4.50819       0.0557605       0.0465814 
         4.5239       0.0554185       0.0461722 
        4.53962       0.0551704       0.0457674 
        4.55535       0.0551226       0.0453673 
        4.57106       0.0547844       0.0449725 
        4.58678       0.0546859       0.0445823 
         4.6025       0.0544037       0.0441967 
        4.61821       0.0544117       0.0438157 
        4.63391       0.0542799       0.0434397 
         4.6496       0.0540958       0.0430682 
        4.66532       0.0541202       0.0427005 
        4.68103       0.0541541       0.0423373 
        4.69673       0.0539324       0.0419786 
        4.71241       0.0542435       0.0416244 
        4.72811       0.0539804       0.0412738 
        4.74384       0.0539645       0.0409267 
        4.75955       0.0540796       0.0405841 
        4.77525       0.0542554       0.0402457 
        4.79096       0.0543057       0.0399107 
        4.80669       0.0542817       0.0395793 
         4.8224       0.0545393       0.0392521 
        4.83809       0.0547108       0.0389289 
        4.85379       0.0548492       0.0386092 
         4.8695       0.0551784       0.0382928 
        4.88521       0.0553043       0.0379801 
        4.90093       0.0557263       0.0376708 
        4.91663       0.0559324       0.0373652 
        4.93234       0.0560252       0.0370627 
        4.94807       0.0564176       0.0367634 
        4.96377        0.056754       0.0364679 
        4.97943       0.0572975       0.0361762 
        4.99514       0.0576274       0.0358871 
        5.01086        0.057917       0.0356008 
        5.02654       0.0585114       0.0353184 
        5.04227       0.0588941       0.0350382 
          5.058       0.0592091        0.034761 
        5.07371       0.0598198       0.0344872 
        5.08942       0.0605277       0.0342164 
        5.10513       0.0610251       0.0339485 
        5.12084       0.0615866       0.0336833 
        5.13656        0.062171        0.033421 
        5.15225       0.0630434       0.0331619 
        5.16796       0.0636359       0.0329051 
        5.18369       0.0642464       0.0326509 
         5.1994       0.0648765       0.0323997 
        5.21509       0.0657423       0.0321515 
        5.23079       0.0665056       0.0319055 
        5.24649       0.0672992       0.0316623 
        5.26217       0.0680955       0.0314219 
        5.27788       0.0692065       0.0311835 
        5.29359       0.0699925       0.0309476 
        5.30933       0.0708037       0.0307138 
        5.32504       0.0718547       0.0304828 
        5.34073       0.0725516       0.0302544 
        5.35646       0.0738108        0.030028 
        5.37218       0.0748384       0.0298037 
        5.38789       0.0759899       0.0295822 
        5.40357       0.0770903       0.0293631 
        5.41929       0.0782045       0.0291458 
        5.43502       0.0796961       0.0289306 
         5.4507        0.080759       0.0287181 
        5.46639       0.0818256       0.0285078 
        5.48212       0.0831047        0.028299 
        5.49786        0.084886       0.0280921 
        5.51353       0.0864314       0.0278883 
        5.52921       0.0872136       0.0276862 
        5.54495       0.0892167       0.0274856 
        5.56066       0.0904735       0.0272872 
        5.57637       0.0921991       0.0270908 
        5.59207       0.0932439       0.0268965 
        5.60778       0.0948977        0.026704 
        5.62346       0.0965846       0.0265137 
        5.63916        0.098528       0.0263251 
        5.65487        0.100668       0.0261381 
         5.6706        0.101576       0.0259528 
        5.68633        0.103943       0.0257692 
        5.70203        0.105851       0.0255878 
        5.71773        0.107925       0.0254081 
        5.73344        0.110103       0.0252301 
        5.74916        0.112465       0.0250536 
        5.76486        0.114342        0.024879 
        5.78054        0.116488       0.0247064 
        5.79626        0.118816       0.0245349 
          5.812        0.120622       0.0243649 
         5.8277        0.123196       0.0241969 
        5.84339         0.12538       0.0240306 
        5.85911        0.127513       0.0238655 
        5.87484        0.129781        0.023702 
        5.89053        0.132511       0.0235403 
        5.90623          0.1364       0.0233801 
        5.92195        0.137851       0.0232211 
        5.93767        0.140498       0.0230636 
        5.95336        0.143296       0.0229079 
        5.96905        0.147177       0.0227536 
        5.98476        0.149053       0.0226006 
        6.00048        0.151934       0.0224489 
        6.01617        0.155073       0.0222988 
        6.03185        0.158108       0.0221503 
        6.04756        0.159887       0.0220027 
        6.06331        0.164835       0.0218562 
        6.07903        0.167659       0.0217114 
        6.09473        0.170228       0.0215679 
        6.11044        0.175358       0.0214257 
        6.12616        0.176799       0.0212847 
        6.14186        0.181053       0.0211452 
        6.15755        0.184318       0.0210069 
        6.17326        0.188441       0.0208698 
        6.18898        0.191427       0.0207337 
        6.20467        0.195092       0.0205992 
        6.22036        0.198389       0.0204659 
         6.2361        0.201524       0.0203333 
         6.2518        0.207486       0.0202022 
        6.26748        0.211256       0.0200725 
        6.28319        0.215266       0.0199436 
        6.29893        0.219684       0.0198157 
        6.31463        0.223612       0.0196892 
        6.33033        0.226471       0.0195638 
        6.34604        0.231692       0.0194394 
        6.36177         0.23449       0.0193159 
        6.37747        0.240174       0.0191938 
