# k  (h/Mpc)    Pcb(k)  (Mpc/h)^3    Pcb_linear(k) (Mpc/h)^3   ShotnoiseSubtracted = true
      0.0200456         2595.11         2628.75 
      0.0350414         1941.94         1911.01 
      0.0492313         1390.67          1388.5 
      0.0637834         1136.28         1154.25 
      0.0800726         898.832           916.1 
       0.096163         678.838          664.71 
       0.111083         546.575          530.19 
       0.126058         467.125         469.856 
       0.142273         395.817         398.072 
       0.158546         319.943         314.393 
        0.17375         274.296         264.876 
       0.188953         247.336         239.839 
       0.204907         211.461         212.209 
       0.220756         185.999         179.541 
        0.23588         162.726         156.186 
         0.2514         147.133         141.893 
       0.267535         136.547         128.389 
       0.283568         119.771         113.222 
       0.299022         109.598         100.875 
       0.314451         103.526         92.1926 
       0.330372         92.2554         84.5763 
       0.346141         84.4305         76.7659 
       0.361624         77.7139         69.7697 
       0.377134         71.0293         64.1991 
       0.392932         68.7357         59.4022 
       0.408854         62.9516         54.7574 
       0.424564         60.0156         50.4706 
       0.440253         54.7106         46.7921 
       0.455999         50.0722         43.5935 
       0.471626         47.4708          40.654 
        0.48727          46.086         37.9043 
       0.502856          42.923         35.4341 
       0.518488         40.2685           33.23 
       0.534347         37.9178          31.181 
       0.550082         36.4501         29.2917 
       0.565732         35.0581         27.5633 
       0.581496          32.874         25.9802 
       0.597222          31.131         24.5284 
       0.612804         29.6934         23.1934 
       0.628434         29.1068         21.9491 
       0.644267         27.5231         20.7858 
       0.660051         26.1559         19.7136 
       0.675724         24.9491         18.7235 
       0.691403         24.4422         17.8007 
       0.707174         23.4384         16.9348 
       0.722871         22.6549         16.1299 
        0.73838         21.4647          15.386 
       0.754018          20.378         14.6834 
       0.769845         19.8634          14.017 
        0.78569         19.2291         13.3914 
       0.801365         18.5088         12.8103 
       0.817031         17.8345         12.2641 
       0.832809         17.2958         11.7465 
       0.848511         16.7473         11.2612 
       0.864097         16.1925         10.8068 
       0.879701         15.9196         10.3772 
       0.895507         15.3151         9.96591 
       0.911279         14.6856         9.57791 
        0.92691          14.392         9.21388 
       0.942635         14.0298         8.86685 
       0.958396         13.5443         8.53703 
       0.974128         13.2127         8.22466 
       0.989692         12.6182         7.93107 
        1.00528          12.532         7.65144 
        1.02113         12.1028         7.38097 
        1.03692         11.8265         7.12462 
        1.05264         11.5458         6.88168 
        1.06832         11.2913         6.65049 
        1.08405         10.9867         6.42935 
        1.09979         10.7105         6.21818 
        1.11537         10.4398         6.01861 
        1.13105         10.2443         5.82665 
        1.14679         10.0196         5.64236 
        1.16256          9.7846         5.46571 
        1.17828         9.57929         5.29723 
        1.19395         9.38667         5.13644 
         1.2097         9.08891         4.98154 
        1.22537         8.92717         4.83379 
          1.241         8.69731          4.6925 
        1.25666         8.66014         4.55653 
        1.27241         8.46739         4.42533 
        1.28819         8.12614         4.29909 
        1.30392         8.07865         4.17815 
        1.31957         7.88651         4.06243 
        1.33529         7.77565         3.95067 
        1.35108         7.60407         3.84269 
        1.36674         7.42162         3.73953 
         1.3824         7.33843         3.64026 
        1.39811         7.20091         3.54428 
        1.41389         7.02839          3.4514 
        1.42964         6.93785         3.36202 
        1.44531         6.80366         3.27624 
        1.46101         6.72717         3.19329 
        1.47667         6.58057         3.11346 
        1.49229         6.41237         3.03658 
        1.50793         6.33912         2.96222 
        1.52367         6.21859         2.88988 
        1.53953         6.11163         2.81947 
        1.55526         6.05967         2.75198 
        1.57092         5.93716         2.68697 
        1.58662          5.8428         2.62392 
        1.60235         5.76466         2.56278 
        1.61809         5.67587         2.50356 
        1.63369         5.56273         2.44674 
        1.64941         5.47617         2.39128 
        1.66519         5.41225         2.33734 
        1.68085         5.31607         2.28545 
        1.69652         5.25958         2.23513 
        1.71228          5.2002         2.18604 
        1.72806         5.09926         2.13839 
        1.74368         5.04561         2.09264 
        1.75933         4.96892         2.04814 
        1.77505         4.87011         2.00473 
        1.79081         4.83671          1.9625 
         1.8065         4.78137         1.92167 
        1.82218         4.70257         1.88204 
        1.83797         4.61608         1.84326 
        1.85367         4.55645         1.80579 
        1.86928         4.52737         1.76958 
        1.88497         4.43495         1.73418 
        1.90073         4.39177         1.69961 
        1.91647         4.32281         1.66602 
        1.93218         4.27725          1.6334 
        1.94787         4.22527         1.60171 
        1.96363         4.17855         1.57074 
        1.97935         4.13165         1.54065 
        1.99499         4.08108         1.51152 
        2.01064         4.03469          1.4831 
         2.0264         3.97989         1.45524 
        2.04216         3.93094         1.42811 
        2.05781         3.88445         1.40184 
        2.07353         3.85455         1.37613 
        2.08928         3.78203         1.35102 
        2.10499         3.74442          1.3266 
        2.12065         3.74796         1.30286 
        2.13633         3.68715         1.27968 
        2.15211         3.62216         1.25692 
        2.16785         3.58502         1.23477 
        2.18349         3.56102          1.2133 
        2.19916         3.52264         1.19229 
        2.21489         3.48358         1.17171 
        2.23063         3.43649         1.15161 
         2.2463          3.3958         1.13206 
        2.26194         3.35833         1.11302 
        2.27765         3.30221         1.09432 
        2.29341         3.27822           1.076 
        2.30914         3.24506         1.05814 
        2.32486         3.22924         1.04069 
        2.34061         3.19282         1.02361 
        2.35635          3.1602         1.00693 
        2.37203         3.14331        0.990677 
        2.38768         3.11518        0.974817 
        2.40339         3.06033        0.959248 
        2.41914         3.03251        0.943982 
        2.43483          3.0006        0.929103 
         2.4505         2.97953         0.91457 
        2.46622         2.94876        0.900297 
        2.48195         2.93062        0.886329 
        2.49759          2.8924        0.872732 
        2.51328         2.87001        0.859385 
        2.52906         2.84071        0.846232 
        2.54479         2.81462        0.833404 
        2.56049         2.78751        0.820867 
        2.57618         2.76345        0.808599 
        2.59189         2.75894        0.796564 
        2.60758         2.72747        0.784792 
        2.62325         2.67933        0.773273 
        2.63898         2.65864        0.761945 
        2.65468         2.63642        0.750867 
        2.67044         2.63304        0.739963 
        2.68618         2.60701          0.7293 
        2.70184         2.58093         0.71889 
        2.71755         2.55006        0.708658 
        2.73329         2.52778        0.698609 
        2.74897          2.5086        0.688788 
        2.76462         2.48457        0.679177 
        2.78034         2.47627         0.66971 
        2.79607          2.4477        0.660414 
        2.81179         2.42809        0.651304 
        2.82749         2.40339        0.642377 
        2.84321         2.38965        0.633607 
        2.85893         2.36282        0.625004 
        2.87462         2.35443        0.616575 
        2.89033         2.33681        0.608294 
        2.90605         2.31894        0.600158 
        2.92176         2.29484        0.592175 
        2.93747          2.2776        0.584341 
        2.95318         2.25966        0.576647 
        2.96891         2.24992        0.569089 
        2.98456          2.2317        0.561699 
        3.00023         2.21554         0.55443 
        3.01596         2.18923        0.547267 
        3.03164         2.17491         0.54025 
        3.04738         2.16533        0.533337 
         3.0631         2.14743        0.526546 
        3.07883         2.13232        0.519874 
        3.09456          2.1107        0.513318 
        3.11026         2.09933        0.506886 
        3.12596         2.08207        0.500564 
        3.14163         2.07522        0.494365 
        3.15734         2.05285        0.488256 
        3.17308         2.04465        0.482236 
        3.18879         2.03071        0.476334 
        3.20447         2.00621        0.470539 
         3.2202         2.00837        0.464822 
         3.2359         1.98753        0.459211 
        3.25157         1.96911        0.453706 
        3.26729         1.95555        0.448274 
        3.28304         1.94297         0.44292 
        3.29877         1.92571        0.437661 
        3.31446         1.91877        0.432499 
        3.33014         1.90305        0.427425 
        3.34585         1.89048        0.422424 
        3.36158         1.87588        0.417496 
        3.37727         1.87217        0.412662 
        3.39294         1.85466        0.407908 
        3.40867         1.84826        0.403213 
        3.42439         1.83244        0.398594 
        3.44008         1.81807        0.394056 
        3.45578         1.80575        0.389586 
        3.47153         1.79814        0.385175 
        3.48724         1.78435         0.38084 
        3.50292         1.76701        0.376582 
        3.51859         1.76627        0.372391 
        3.53431         1.74673        0.368251 
        3.55007         1.74451        0.364163 
        3.56577         1.72945        0.360154 
        3.58146         1.72096        0.356207 
        3.59719         1.70907         0.35231 
        3.61292         1.69916        0.348472 
        3.62859         1.68744        0.344706 
        3.64429         1.67909        0.340989 
        3.66003         1.66713        0.337315 
        3.67578          1.6567        0.333696 
        3.69146         1.64496        0.330144 
        3.70712         1.63518         0.32665 
        3.72284         1.62523        0.323194 
        3.73853         1.61793        0.319794 
        3.75422         1.60741        0.316441 
        3.76993         1.59613        0.313134 
        3.78564         1.58457        0.309875 
        3.80137         1.57677        0.306658 
        3.81707         1.56571        0.303492 
        3.83279         1.56579        0.300369 
        3.84853         1.55215        0.297285 
        3.86424         1.53911         0.29425 
        3.87992         1.53315        0.291262 
        3.89561         1.51968        0.288315 
        3.91134         1.51636        0.285403 
        3.92704          1.5059        0.282534 
        3.94273         1.49988        0.279708 
        3.95845         1.48537        0.276915 
        3.97418         1.48093         0.27416 
        3.98988         1.47444        0.271446 
        4.00554         1.46255        0.268776 
        4.02125         1.45505        0.266134 
        4.03698         1.44478        0.263524 
        4.05268         1.43605        0.260955 
        4.06839         1.42459        0.258418 
         4.0841         1.41557        0.255915 
        4.09983         1.40497        0.253442 
        4.11555           1.398        0.251003 
        4.13124          1.3874        0.248603 
        4.14693          1.3791        0.246231 
        4.16266         1.37354        0.243886 
        4.17839         1.36393        0.241572 
        4.19408          1.3568        0.239293 
        4.20977          1.3478        0.237043 
        4.22551         1.34248        0.234817 
        4.24123         1.33016        0.232621 
        4.25691           1.322        0.230459 
        4.27259         1.31325        0.228325 
        4.28831         1.31185        0.226212 
        4.30404         1.29943        0.224125 
        4.31974         1.29157        0.222068 
        4.33543         1.28523        0.220039 
        4.35116         1.27802         0.21803 
        4.36688         1.27131        0.216046 
        4.38255         1.26426        0.214095 
        4.39825         1.25889        0.212164 
        4.41398         1.25077        0.210252 
         4.4297         1.24361        0.208366 
        4.44541         1.23632        0.206504 
        4.46111         1.22752        0.204666 
        4.47683         1.22506        0.202849 
        4.49251         1.21835        0.201057 
        4.50819         1.21198        0.199288 
         4.5239         1.20574        0.197537 
        4.53962         1.19837        0.195805 
        4.55535         1.19465        0.194094 
        4.57106         1.18608        0.192405 
        4.58678         1.18598        0.190735 
         4.6025         1.17654        0.189086 
        4.61821         1.17449        0.187455 
        4.63391         1.16812        0.185847 
         4.6496         1.15849        0.184258 
        4.66532         1.15792        0.182684 
        4.68103         1.15079         0.18113 
        4.69673         1.14812        0.179596 
        4.71241         1.14007        0.178081 
        4.72811         1.13817         0.17658 
        4.74384         1.13242        0.175096 
        4.75955         1.12989         0.17363 
        4.77525         1.12155        0.172182 
        4.79096         1.11627        0.170749 
        4.80669         1.11451        0.169331 
         4.8224         1.10922        0.167931 
        4.83809         1.10598        0.166549 
        4.85379          1.1011        0.165181 
         4.8695         1.09496        0.163827 
        4.88521         1.09312        0.162489 
        4.90093          1.0891        0.161166 
        4.91663         1.08409        0.159859 
        4.93234         1.08042        0.158564 
        4.94807         1.07462        0.157284 
        4.96377         1.07199        0.156019 
        4.97943         1.07015        0.154772 
        4.99514         1.06842        0.153535 
        5.01086         1.06002         0.15231 
        5.02654         1.05605        0.151102 
        5.04227         1.05336        0.149903 
          5.058          1.0511        0.148717 
        5.07371         1.04599        0.147546 
        5.08942         1.04394        0.146387 
        5.10513         1.04394        0.145241 
        5.12084         1.03736        0.144106 
        5.13656         1.03276        0.142984 
        5.15225         1.02739        0.141876 
        5.16796         1.02526        0.140777 
        5.18369         1.02397        0.139689 
         5.1994         1.02212        0.138615 
        5.21509         1.01665        0.137553 
        5.23079         1.01512        0.136501 
        5.24649         1.01126         0.13546 
        5.26217          1.0089        0.134431 
        5.27788         1.00383        0.133412 
        5.29359          1.0024        0.132402 
        5.30933         1.00033        0.131402 
        5.32504        0.996223        0.130414 
        5.34073        0.994822        0.129437 
        5.35646        0.990494        0.128468 
        5.37218        0.988038        0.127508 
        5.38789        0.988313        0.126561 
        5.40357         0.98425        0.125623 
        5.41929        0.983623        0.124694 
        5.43502        0.978265        0.123773 
         5.4507        0.974003        0.122864 
        5.46639         0.97338        0.121964 
        5.48212          0.9692        0.121071 
        5.49786        0.968936        0.120186 
        5.51353        0.967818        0.119314 
        5.52921        0.962758        0.118449 
        5.54495        0.960817        0.117591 
        5.56066        0.960173        0.116742 
        5.57637        0.959662        0.115902 
        5.59207        0.955518        0.115071 
        5.60778        0.954267        0.114247 
        5.62346         0.95188        0.113433 
        5.63916        0.950461        0.112626 
        5.65487        0.946251        0.111826 
         5.6706        0.945335        0.111033 
        5.68633        0.941438        0.110248 
        5.70203        0.942046        0.109472 
        5.71773        0.938353        0.108703 
        5.73344        0.934796        0.107941 
        5.74916        0.934997        0.107186 
        5.76486         0.93129        0.106439 
        5.78054        0.930592        0.105701 
        5.79626        0.928648        0.104967 
          5.812        0.926704         0.10424 
         5.8277        0.924178        0.103521 
        5.84339        0.925627        0.102809 
        5.85911        0.921209        0.102103 
        5.87484        0.920855        0.101404 
        5.89053        0.915477        0.100712 
        5.90623        0.916256        0.100026 
        5.92195         0.91335        0.099346 
        5.93767         0.91216       0.0986724 
        5.95336        0.909555       0.0980061 
        5.96905        0.908101       0.0973462 
        5.98476        0.905496       0.0966915 
        6.00048        0.905832       0.0960426 
        6.01617        0.903553       0.0954004 
        6.03185        0.900744        0.094765 
        6.04756        0.901441       0.0941338 
        6.06331        0.897199        0.093507 
        6.07903        0.897911       0.0928872 
        6.09473        0.896402       0.0922736 
        6.11044        0.893793        0.091665 
        6.12616        0.891962       0.0910619 
        6.14186        0.889487       0.0904649 
        6.15755        0.887865       0.0898733 
        6.17326        0.886323       0.0892865 
        6.18898        0.884857       0.0887046 
        6.20467        0.883385        0.088129 
        6.22036        0.880211       0.0875585 
         6.2361        0.879427       0.0869916 
         6.2518        0.878912       0.0864306 
        6.26748        0.877327       0.0858757 
        6.28319        0.875005       0.0853242 
        6.29893        0.872545       0.0847771 
        6.31463        0.871858       0.0842356 
        6.33033         0.87159       0.0836991 
        6.34604        0.870058       0.0831669 
        6.36177        0.868233       0.0826388 
        6.37747        0.865557       0.0821162 
