# k  (h/Mpc)    Pcb(k)  (Mpc/h)^3    Pcb_linear(k) (Mpc/h)^3   ShotnoiseSubtracted = true
      0.0200456         7959.25         8100.19 
      0.0350414         5748.45         5888.57 
      0.0492313         4257.97         4278.52 
      0.0637834         3621.74          3556.7 
      0.0800726         2868.42         2822.86 
       0.096163         2014.42         2048.23 
       0.111083         1599.37         1633.72 
       0.126058         1468.56         1447.81 
       0.142273         1266.11         1226.61 
       0.158546            1042         968.768 
        0.17375         840.743         816.186 
       0.188953          803.25         739.038 
       0.204907         752.094         653.898 
       0.220756         633.886         553.237 
        0.23588         555.649         481.268 
         0.2514         488.242         437.228 
       0.267535         467.973         395.616 
       0.283568          423.75          348.88 
       0.299022             392         310.834 
       0.314451          362.55         284.081 
       0.330372         335.365         260.613 
       0.346141         302.159         236.546 
       0.361624         288.877         214.988 
       0.377134         270.319         197.823 
       0.392932          250.61         183.041 
       0.408854         240.238         168.729 
       0.424564         229.971          155.52 
       0.440253         218.223         144.185 
       0.455999         205.337         134.329 
       0.471626          190.05         125.271 
        0.48727         184.625         116.798 
       0.502856         177.382         109.186 
       0.518488         173.601         102.395 
       0.534347         164.947         96.0808 
       0.550082         153.329         90.2592 
       0.565732         148.835         84.9332 
       0.581496         142.266         80.0552 
       0.597222          137.93         75.5816 
       0.612804          131.83          71.468 
       0.628434         128.683         67.6337 
       0.644267         124.251         64.0491 
       0.660051         121.939         60.7452 
       0.675724         118.255         57.6945 
       0.691403         114.639         54.8507 
       0.707174          110.06         52.1826 
       0.722871         108.527         49.7026 
        0.73838         106.298         47.4103 
       0.754018         101.509         45.2453 
       0.769845         99.5132         43.1919 
        0.78569         97.1574         41.2642 
       0.801365         94.2721         39.4734 
       0.817031         90.9986         37.7905 
       0.832809         89.9412         36.1955 
       0.848511         86.8094         34.7001 
       0.864097          84.547         33.2999 
       0.879701         83.4659         31.9761 
       0.895507         81.6978         30.7089 
       0.911279         80.3578         29.5133 
        0.92691         78.4305         28.3916 
       0.942635         76.1591         27.3222 
       0.958396         75.8502         26.3059 
       0.974128         73.8596         25.3434 
       0.989692         72.1604         24.4387 
        1.00528         70.7255         23.5771 
        1.02113         69.4614         22.7436 
        1.03692         67.4342         21.9537 
        1.05264         67.2189         21.2051 
        1.06832         65.3911         20.4928 
        1.08405         64.6127         19.8113 
        1.09979         64.0115         19.1606 
        1.11537         61.5981         18.5457 
        1.13105         62.0259         17.9542 
        1.14679         60.6742         17.3863 
        1.16256          59.707          16.842 
        1.17828         58.1525         16.3228 
        1.19395         57.7075         15.8274 
         1.2097         56.3861         15.3501 
        1.22537         56.3664         14.8948 
          1.241         54.8759         14.4594 
        1.25666          53.842         14.0404 
        1.27241         53.3945         13.6362 
        1.28819         52.2182         13.2472 
        1.30392          51.488         12.8745 
        1.31957         51.0661         12.5179 
        1.33529         50.2668         12.1736 
        1.35108          49.912         11.8408 
        1.36674         49.1241          11.523 
         1.3824         47.9135         11.2171 
        1.39811         47.7415         10.9213 
        1.41389         46.9731         10.6351 
        1.42964         46.2757         10.3597 
        1.44531         45.6516         10.0954 
        1.46101          44.766         9.83977 
        1.47667         44.7093         9.59379 
        1.49229          44.174          9.3569 
        1.50793         43.4027         9.12776 
        1.52367         42.8094         8.90484 
        1.53953          42.533         8.68788 
        1.55526         41.8102         8.47991 
        1.57092         41.4353         8.27962 
        1.58662         40.9005         8.08533 
        1.60235         40.4593         7.89693 
        1.61809         39.7875         7.71444 
        1.63369         39.2463         7.53935 
        1.64941         38.7188         7.36846 
        1.66519         38.2647         7.20226 
        1.68085         37.9742         7.04238 
        1.69652         37.4572         6.88731 
        1.71228         37.2373         6.73605 
        1.72806         36.6811         6.58921 
        1.74368         36.1464         6.44824 
        1.75933         35.7651         6.31112 
        1.77505         35.5496         6.17735 
        1.79081         34.9553         6.04722 
         1.8065         34.5836         5.92141 
        1.82218         34.2901          5.7993 
        1.83797         33.8061          5.6798 
        1.85367         33.3419         5.56433 
        1.86928         33.1462         5.45278 
        1.88497         32.7052         5.34367 
        1.90073         32.4901         5.23716 
        1.91647         32.0608         5.13365 
        1.93218         31.7727         5.03316 
        1.94787         31.3631         4.93551 
        1.96363         31.1445         4.84007 
        1.97935         30.7493         4.74735 
        1.99499         30.3937         4.65759 
        2.01064         30.1944         4.57002 
         2.0264         29.6903         4.48416 
        2.04216         29.3603         4.40055 
        2.05781         29.0635          4.3196 
        2.07353         28.8166          4.2404 
        2.08928         28.7752         4.16302 
        2.10499          28.416         4.08778 
        2.12065         27.9389         4.01463 
        2.13633         27.8366          3.9432 
        2.15211         27.2956         3.87305 
        2.16785         27.0791         3.80481 
        2.18349          26.914         3.73864 
        2.19916         26.6819         3.67391 
        2.21489         26.2786          3.6105 
        2.23063         26.1036         3.54854 
         2.2463          25.917         3.48832 
        2.26194         25.6761         3.42965 
        2.27765         25.3696         3.37202 
        2.29341         25.0892         3.31558 
        2.30914         24.9647         3.26054 
        2.32486         24.6152         3.20678 
        2.34061          24.444         3.15415 
        2.35635         24.1445         3.10274 
        2.37203         23.9697         3.05266 
        2.38768         23.6866         3.00379 
        2.40339          23.593         2.95582 
        2.41914          23.297         2.90878 
        2.43483         23.0306         2.86293 
         2.4505         22.8233         2.81815 
        2.46622         22.5942         2.77417 
        2.48195         22.3965         2.73113 
        2.49759         22.1496         2.68923 
        2.51328         21.9347          2.6481 
        2.52906         21.8048         2.60757 
        2.54479         21.5172         2.56804 
        2.56049         21.2752         2.52941 
        2.57618         21.0868         2.49161 
        2.59189         20.9865         2.45452 
        2.60758         20.7928         2.41825 
        2.62325         20.5557         2.38275 
        2.63898         20.4788         2.34785 
        2.65468         20.2021         2.31371 
        2.67044         20.0278         2.28011 
        2.68618          19.806         2.24726 
        2.70184          19.692         2.21518 
        2.71755         19.5054         2.18365 
        2.73329         19.3037         2.15269 
        2.74897         19.0533         2.12242 
        2.76462         19.0904         2.09281 
        2.78034         18.8147         2.06364 
        2.79607         18.6497         2.03499 
        2.81179         18.5128         2.00692 
        2.82749         18.3248         1.97941 
        2.84321         18.2178         1.95239 
        2.85893         17.9995         1.92588 
        2.87462         17.8141         1.89991 
        2.89033         17.6904         1.87439 
        2.90605         17.6045         1.84932 
        2.92176         17.3122         1.82472 
        2.93747         17.2673         1.80058 
        2.95318         17.0456         1.77688 
        2.96891         16.9224         1.75358 
        2.98456         16.7808         1.73081 
        3.00023         16.6105         1.70841 
        3.01596         16.5344         1.68634 
        3.03164         16.3814         1.66472 
        3.04738          16.164         1.64342 
         3.0631         16.0211         1.62249 
        3.07883         15.8957         1.60193 
        3.09456         15.7902         1.58173 
        3.11026         15.6579         1.56191 
        3.12596         15.4761         1.54243 
        3.14163          15.412         1.52333 
        3.15734         15.2127         1.50451 
        3.17308         15.0982         1.48596 
        3.18879         14.9703         1.46777 
        3.20447         14.8434         1.44991 
         3.2202         14.6981          1.4323 
         3.2359         14.6077         1.41501 
        3.25157         14.4915         1.39804 
        3.26729         14.3645         1.38131 
        3.28304         14.2297         1.36481 
        3.29877         14.0819         1.34861 
        3.31446         13.9558          1.3327 
        3.33014         13.8438         1.31706 
        3.34585         13.7151         1.30165 
        3.36158         13.6381         1.28647 
        3.37727         13.4633         1.27157 
        3.39294         13.3778         1.25692 
        3.40867         13.2757         1.24246 
        3.42439         13.1534         1.22822 
        3.44008         13.0889         1.21424 
        3.45578         12.9591         1.20047 
        3.47153         12.8714         1.18687 
        3.48724         12.7606         1.17352 
        3.50292         12.6136          1.1604 
        3.51859         12.5477         1.14748 
        3.53431           12.45         1.13472 
        3.55007          12.349         1.12213 
        3.56577         12.2428         1.10978 
        3.58146         12.1795         1.09761 
        3.59719         12.0199          1.0856 
        3.61292          11.937         1.07378 
        3.62859         11.8202         1.06217 
        3.64429          11.737         1.05072 
        3.66003         11.6346          1.0394 
        3.67578           11.57         1.02825 
        3.69146         11.4555          1.0173 
        3.70712         11.3573         1.00654 
        3.72284         11.2709        0.995887 
        3.73853         11.1475         0.98541 
        3.75422         11.1129         0.97508 
        3.76993         11.0246        0.964888 
        3.78564         10.8948        0.954847 
        3.80137         10.8274        0.944932 
        3.81707         10.7256        0.935178 
        3.83279         10.6415        0.925554 
        3.84853         10.5559         0.91605 
        3.86424         10.4552        0.906699 
        3.87992         10.3823        0.897491 
        3.89561         10.3105        0.888411 
        3.91134         10.2433        0.879437 
        3.92704         10.1271        0.870598 
        3.94273         10.0694         0.86189 
        3.95845         9.99887        0.853284 
        3.97418         9.91046        0.844794 
        3.98988         9.81316        0.836431 
        4.00554         9.77292        0.828204 
        4.02125         9.66303        0.820064 
        4.03698         9.60824         0.81202 
        4.05268         9.53069        0.804103 
        4.06839          9.4316        0.796286 
         4.0841         9.38828        0.788574 
        4.09983          9.3011        0.780954 
        4.11555         9.22459        0.773438 
        4.13124         9.15854        0.766041 
        4.14693         9.07423        0.758735 
        4.16266         9.01981        0.751507 
        4.17839         8.93344        0.744377 
        4.19408          8.8847        0.737357 
        4.20977         8.81016        0.730423 
        4.22551          8.7447        0.723562 
        4.24123         8.68121        0.716796 
        4.25691         8.60222        0.710136 
        4.27259         8.52784        0.703557 
        4.28831         8.46452        0.697049 
        4.30404         8.41598        0.690616 
        4.31974         8.35363        0.684279 
        4.33543         8.26954        0.678025 
        4.35116         8.20541        0.671834 
        4.36688         8.14864        0.665723 
        4.38255         8.08408         0.65971 
        4.39825         8.00914        0.653759 
        4.41398         7.97434        0.647869 
         4.4297         7.90417        0.642058 
        4.44541         7.85318        0.636319 
        4.46111         7.77835        0.630655 
        4.47683         7.72698        0.625056 
        4.49251         7.66706        0.619535 
        4.50819         7.60928        0.614083 
         4.5239         7.57329        0.608689 
        4.53962         7.49872        0.603353 
        4.55535         7.43572        0.598078 
        4.57106         7.38896        0.592874 
        4.58678         7.32923         0.58773 
         4.6025         7.26748        0.582646 
        4.61821         7.22467        0.577623 
        4.63391         7.18977        0.572666 
         4.6496         7.11202        0.567769 
        4.66532         7.07964        0.562922 
        4.68103         6.98664        0.558133 
        4.69673         6.95361        0.553405 
        4.71241          6.9171        0.548736 
        4.72811         6.83968        0.544113 
        4.74384         6.79775        0.539538 
        4.75955         6.74692        0.535022 
        4.77525         6.70958         0.53056 
        4.79096         6.64829        0.526144 
        4.80669         6.61746        0.521776 
         4.8224          6.5626        0.517462 
        4.83809         6.50199        0.513201 
        4.85379         6.44198        0.508986 
         4.8695         6.40939        0.504815 
        4.88521         6.36996        0.500692 
        4.90093         6.30717        0.496615 
        4.91663         6.27745        0.492587 
        4.93234         6.23087        0.488599 
        4.94807         6.18632        0.484652 
        4.96377         6.15133        0.480757 
        4.97943         6.09247        0.476912 
        4.99514         6.04669          0.4731 
        5.01086         6.01714        0.469326 
        5.02654         5.96267        0.465603 
        5.04227         5.92436         0.46191 
          5.058         5.89582        0.458255 
        5.07371         5.85129        0.454646 
        5.08942         5.80164        0.451076 
        5.10513         5.76198        0.447544 
        5.12084         5.72438        0.444048 
        5.13656         5.69204         0.44059 
        5.15225         5.66026        0.437174 
        5.16796         5.60567        0.433789 
        5.18369         5.56403        0.430437 
         5.1994         5.53792        0.427127 
        5.21509         5.49597        0.423854 
        5.23079         5.45975        0.420611 
        5.24649         5.41928        0.417405 
        5.26217         5.39205        0.414235 
        5.27788         5.34253        0.411093 
        5.29359         5.31308        0.407983 
        5.30933         5.28273        0.404901 
        5.32504         5.23505        0.401856 
        5.34073         5.20566        0.398845 
        5.35646          5.1629        0.395859 
        5.37218         5.12706        0.392903 
        5.38789         5.10769        0.389982 
        5.40357         5.05839        0.387095 
        5.41929         5.03081        0.384229 
        5.43502         4.99373        0.381393 
         5.4507         4.96148        0.378592 
        5.46639         4.91725        0.375819 
        5.48212         4.88476        0.373066 
        5.49786         4.86607        0.370339 
        5.51353         4.82814        0.367652 
        5.52921          4.7968        0.364989 
        5.54495         4.76916        0.362344 
        5.56066         4.73699        0.359728 
        5.57637         4.69973        0.357139 
        5.59207         4.66687        0.354578 
        5.60778         4.65252         0.35204 
        5.62346         4.61777        0.349531 
        5.63916         4.58771        0.347044 
        5.65487         4.54407         0.34458 
         5.6706         4.52077        0.342137 
        5.68633         4.48942        0.339716 
        5.70203          4.4647        0.337324 
        5.71773         4.43749        0.334956 
        5.73344         4.41351        0.332609 
        5.74916         4.38492        0.330282 
        5.76486         4.35554        0.327981 
        5.78054         4.32041        0.325705 
        5.79626         4.28944        0.323444 
          5.812         4.27599        0.321203 
         5.8277         4.24161        0.318989 
        5.84339         4.22369        0.316796 
        5.85911         4.19478        0.314619 
        5.87484         4.16462        0.312464 
        5.89053         4.14142        0.310333 
        5.90623         4.11836         0.30822 
        5.92195         4.07811        0.306124 
        5.93767         4.06868        0.304048 
        5.95336          4.0398        0.301995 
        5.96905         4.00077        0.299962 
        5.98476         3.98344        0.297944 
        6.00048         3.95535        0.295945 
        6.01617         3.93695        0.293966 
        6.03185         3.91726        0.292008 
        6.04756         3.88996        0.290063 
        6.06331         3.86588        0.288131 
        6.07903         3.83421        0.286222 
        6.09473         3.81909        0.284331 
        6.11044         3.78957        0.282455 
        6.12616         3.78149        0.280597 
        6.14186         3.74699        0.278758 
        6.15755         3.73032        0.276935 
        6.17326         3.70934        0.275126 
        6.18898         3.68396        0.273334 
        6.20467          3.6603         0.27156 
        6.22036         3.64222        0.269802 
         6.2361          3.6136        0.268055 
         6.2518         3.60461        0.266326 
        6.26748         3.57543        0.264617 
        6.28319         3.55318        0.262917 
        6.29893         3.53379        0.261231 
        6.31463         3.50418        0.259563 
        6.33033         3.49079         0.25791 
        6.34604         3.46268         0.25627 
        6.36177         3.44776        0.254642 
        6.37747         3.42661        0.253032 
