# k  (h/Mpc)    Pcb(k)  (Mpc/h)^3    Pcb_linear(k) (Mpc/h)^3   ShotnoiseSubtracted = true
      0.0200456         20249.8         20598.5 
      0.0350414           15436         14974.4 
      0.0492313         10664.6         10880.1 
      0.0637834         8600.07         9044.57 
      0.0800726         6752.62         7178.45 
       0.096163         5409.15         5208.59 
       0.111083         4404.92         4154.51 
       0.126058         3642.87         3681.74 
       0.142273         3184.68         3119.24 
       0.158546         2614.43         2463.55 
        0.17375         2328.73         2075.54 
       0.188953         2200.23         1879.35 
       0.204907          1890.9         1662.84 
       0.220756         1707.12         1406.87 
        0.23588          1523.3         1223.85 
         0.2514         1375.94         1111.86 
       0.267535         1330.11         1006.04 
       0.283568         1180.88         887.191 
       0.299022         1126.59         790.442 
       0.314451         1170.19          722.41 
       0.330372          1026.9          662.73 
       0.346141         943.774         601.529 
       0.361624         905.553         546.707 
       0.377134         865.896         503.057 
       0.392932         828.078         465.469 
       0.408854         792.104         429.072 
       0.424564         773.869         395.482 
       0.440253         714.341         366.658 
       0.455999          683.13         341.594 
       0.471626         695.791          318.56 
        0.48727          656.29         297.014 
       0.502856         624.349         277.657 
       0.518488         610.091         260.386 
       0.534347         581.625         244.331 
       0.550082          555.12         229.526 
       0.565732         548.502         215.982 
       0.581496         536.349         203.578 
       0.597222         523.175         192.202 
       0.612804          511.08         181.741 
       0.628434         489.793         171.991 
       0.644267         474.775         162.875 
       0.660051         468.987         154.473 
       0.675724         459.314         146.715 
       0.691403         447.807         139.484 
       0.707174         432.495         132.699 
       0.722871         426.296         126.392 
        0.73838         418.713         120.563 
       0.754018         406.142         115.057 
       0.769845         402.303         109.836 
        0.78569         393.766         104.934 
       0.801365         380.213          100.38 
       0.817031          377.47            96.1 
       0.832809         371.241          92.044 
       0.848511         363.998         88.2414 
       0.864097         354.836         84.6808 
       0.879701         352.838         81.3141 
       0.895507         340.203         78.0917 
       0.911279         334.334         75.0514 
        0.92691         331.288         72.1989 
       0.942635         327.784         69.4795 
       0.958396         316.701         66.8951 
       0.974128         313.548         64.4475 
       0.989692         302.594         62.1469 
        1.00528         301.529         59.9558 
        1.02113         296.627         57.8364 
        1.03692         291.106         55.8277 
        1.05264         286.326          53.924 
        1.06832         282.624         52.1125 
        1.08405         278.334         50.3796 
        1.09979         273.761         48.7249 
        1.11537         266.979         47.1611 
        1.13105         263.402          45.657 
        1.14679          259.96         44.2129 
        1.16256         257.908         42.8286 
        1.17828         253.626         41.5084 
        1.19395         246.988         40.2485 
         1.2097         246.868         39.0347 
        1.22537          242.55          37.877 
          1.241         236.499         36.7699 
        1.25666         234.769         35.7044 
        1.27241         230.903         34.6763 
        1.28819         226.807         33.6871 
        1.30392          225.51         32.7395 
        1.31957         219.015         31.8327 
        1.33529         216.158          30.957 
        1.35108         215.118         30.1109 
        1.36674         209.152         29.3025 
         1.3824         207.961         28.5247 
        1.39811          206.04         27.7726 
        1.41389         200.028         27.0448 
        1.42964         197.927         26.3444 
        1.44531         196.212         25.6723 
        1.46101         192.689         25.0222 
        1.47667         190.427         24.3967 
        1.49229         187.613         23.7943 
        1.50793         184.712         23.2116 
        1.52367         182.418         22.6447 
        1.53953         178.389          22.093 
        1.55526          177.44         21.5642 
        1.57092         175.944         21.0548 
        1.58662         171.513         20.5608 
        1.60235         169.904         20.0816 
        1.61809         167.361         19.6176 
        1.63369         164.315         19.1723 
        1.64941          162.55         18.7378 
        1.66519         160.489         18.3151 
        1.68085         157.754         17.9086 
        1.69652         156.022         17.5142 
        1.71228          153.46         17.1296 
        1.72806         152.041         16.7562 
        1.74368         150.026         16.3977 
        1.75933         148.811          16.049 
        1.77505         146.472         15.7088 
        1.79081         143.237         15.3779 
         1.8065         141.806          15.058 
        1.82218         139.242         14.7474 
        1.83797         138.387         14.4436 
        1.85367         136.443         14.1499 
        1.86928         134.567         13.8662 
        1.88497         133.292         13.5888 
        1.90073         131.815         13.3179 
        1.91647         129.282         13.0547 
        1.93218         127.811         12.7992 
        1.94787         125.823         12.5508 
        1.96363         125.232         12.3081 
        1.97935         123.531         12.0724 
        1.99499         121.919         11.8441 
        2.01064          119.35         11.6214 
         2.0264         118.512         11.4031 
        2.04216         116.798         11.1905 
        2.05781         115.174         10.9846 
        2.07353         113.778         10.7832 
        2.08928         112.359         10.5864 
        2.10499         111.244         10.3951 
        2.12065         109.975         10.2091 
        2.13633         108.928         10.0274 
        2.15211         107.031         9.84906 
        2.16785         105.709         9.67552 
        2.18349         104.256         9.50726 
        2.19916         103.325         9.34265 
        2.21489         102.253         9.18139 
        2.23063         100.381         9.02384 
         2.2463         99.4119          8.8707 
        2.26194         98.4509         8.72149 
        2.27765         97.0845         8.57496 
        2.29341         96.1528         8.43141 
        2.30914         94.8997         8.29145 
        2.32486          93.173         8.15474 
        2.34061         92.5939          8.0209 
        2.35635         91.4798         7.89018 
        2.37203         89.8929         7.76283 
        2.38768         89.1414         7.63855 
        2.40339         88.2877         7.51655 
        2.41914         86.8136         7.39693 
        2.43483         86.1844         7.28034 
         2.4505         85.0645         7.16646 
        2.46622         84.0173         7.05462 
        2.48195         83.2079         6.94517 
        2.49759         82.0248         6.83862 
        2.51328         81.3141         6.73404 
        2.52906         79.8438         6.63098 
        2.54479         79.0844         6.53046 
        2.56049         77.9264         6.43222 
        2.57618         77.0041         6.33609 
        2.59189         76.6003         6.24178 
        2.60758         75.0285         6.14954 
        2.62325         74.7692         6.05927 
        2.63898         73.8263         5.97051 
        2.65468         72.9573         5.88371 
        2.67044         71.8528         5.79826 
        2.68618         71.3162         5.71471 
        2.70184         70.3119         5.63314 
        2.71755         69.6048         5.55296 
        2.73329         68.5621         5.47422 
        2.74897         68.1915         5.39726 
        2.76462         67.3164         5.32195 
        2.78034         66.2044         5.24777 
        2.79607          65.601         5.17492 
        2.81179         65.1411         5.10354 
        2.82749         64.5431         5.03359 
        2.84321         63.7415         4.96487 
        2.85893         62.9946         4.89746 
        2.87462         62.2756         4.83141 
        2.89033         61.7263         4.76652 
        2.90605         61.1685         4.70277 
        2.92176         60.3289         4.64021 
        2.93747         59.8218         4.57883 
        2.95318         58.9227         4.51854 
        2.96891         58.4348         4.45931 
        2.98456         57.7641         4.40141 
        3.00023         57.1762         4.34445 
        3.01596         56.6947         4.28832 
        3.03164           55.99         4.23334 
        3.04738         55.6362         4.17916 
         3.0631         54.6316         4.12595 
        3.07883         54.1408         4.07367 
        3.09456         53.5528          4.0223 
        3.11026         52.9999          3.9719 
        3.12596         52.5564         3.92236 
        3.14163         51.8475         3.87378 
        3.15734         51.3014         3.82592 
        3.17308          50.841         3.77874 
        3.18879         50.2955         3.73249 
        3.20447          49.912         3.68708 
         3.2202         49.2163         3.64229 
         3.2359         48.6583         3.59832 
        3.25157         48.3055         3.55518 
        3.26729         47.7182         3.51262 
        3.28304         47.3086         3.47067 
        3.29877         46.7768         3.42946 
        3.31446         46.4143         3.38901 
        3.33014         45.8616         3.34925 
        3.34585         45.2768         3.31006 
        3.36158         44.9247         3.27145 
        3.37727         44.4532         3.23357 
        3.39294         44.1248         3.19632 
        3.40867         43.6517         3.15953 
        3.42439         43.2088         3.12333 
        3.44008         42.6415         3.08778 
        3.45578         42.3408         3.05275 
        3.47153         41.8377         3.01818 
        3.48724         41.4102         2.98422 
        3.50292         41.0362         2.95085 
        3.51859         40.5906         2.91801 
        3.53431         40.0974         2.88557 
        3.55007            39.8         2.85354 
        3.56577         39.5151         2.82212 
        3.58146         39.0178         2.79119 
        3.59719         38.6358         2.76066 
        3.61292         38.2107         2.73059 
        3.62859         37.9749         2.70108 
        3.64429         37.6203         2.67195 
        3.66003         37.2466         2.64316 
        3.67578          36.925          2.6148 
        3.69146         36.6084         2.58697 
        3.70712          36.175         2.55959 
        3.72284         35.8791         2.53251 
        3.73853          35.585         2.50587 
        3.75422         35.2578          2.4796 
        3.76993         34.9098         2.45368 
        3.78564         34.6679         2.42815 
        3.80137         34.2828         2.40293 
        3.81707         33.9287         2.37813 
        3.83279         33.6295         2.35366 
        3.84853         33.3004         2.32949 
        3.86424         32.9658         2.30571 
        3.87992          32.816         2.28229 
        3.89561         32.4908          2.2592 
        3.91134         32.2587         2.23638 
        3.92704         31.8731          2.2139 
        3.94273         31.5946         2.19176 
        3.95845         31.3494         2.16987 
        3.97418         31.0145         2.14828 
        3.98988         30.6807         2.12702 
        4.00554         30.4375          2.1061 
        4.02125         30.2533          2.0854 
        4.03698         29.8704         2.06494 
        4.05268         29.6536         2.04481 
        4.06839         29.2998         2.02493 
         4.0841         29.1537         2.00532 
        4.09983         28.8574         1.98594 
        4.11555         28.5814         1.96683 
        4.13124         28.3652         1.94802 
        4.14693         28.1264         1.92944 
        4.16266         27.7868         1.91106 
        4.17839          27.617         1.89293 
        4.19408         27.3676         1.87508 
        4.20977         27.1224         1.85744 
        4.22551         26.8953            1.84 
        4.24123         26.6783         1.82279 
        4.25691         26.4259         1.80585 
        4.27259         26.2848         1.78912 
        4.28831         25.9561         1.77257 
        4.30404         25.7504         1.75622 
        4.31974         25.4678          1.7401 
        4.33543         25.3309          1.7242 
        4.35116          25.101         1.70845 
        4.36688         24.8937         1.69291 
        4.38255         24.7462         1.67762 
        4.39825         24.4333         1.66249 
        4.41398         24.2533         1.64751 
         4.4297         24.0373         1.63273 
        4.44541         23.9045         1.61814 
        4.46111         23.7007         1.60374 
        4.47683         23.4507          1.5895 
        4.49251         23.2774         1.57546 
        4.50819         23.1088          1.5616 
         4.5239         22.8809         1.54788 
        4.53962         22.7382         1.53431 
        4.55535         22.4858         1.52089 
        4.57106         22.3307         1.50766 
        4.58678         22.1412         1.49458 
         4.6025         21.9197         1.48165 
        4.61821         21.7608         1.46888 
        4.63391         21.5561         1.45627 
         4.6496         21.4019         1.44382 
        4.66532         21.2704         1.43149 
        4.68103         21.0065         1.41932 
        4.69673         20.9372         1.40729 
        4.71241         20.7339         1.39542 
        4.72811         20.5556         1.38366 
        4.74384         20.3842         1.37203 
        4.75955         20.2587         1.36054 
        4.77525         20.0799          1.3492 
        4.79096         19.9125         1.33797 
        4.80669         19.7741         1.32686 
         4.8224         19.6239         1.31589 
        4.83809         19.4483         1.30506 
        4.85379          19.294         1.29434 
         4.8695         19.1465         1.28373 
        4.88521         18.9842         1.27325 
        4.90093         18.8359         1.26288 
        4.91663         18.7048         1.25263 
        4.93234         18.5243         1.24249 
        4.94807         18.4119         1.23246 
        4.96377         18.3005         1.22255 
        4.97943         18.0672         1.21277 
        4.99514         17.9602         1.20308 
        5.01086         17.8118         1.19348 
        5.02654         17.7056         1.18402 
        5.04227         17.5312         1.17462 
          5.058          17.404         1.16533 
        5.07371         17.2935         1.15615 
        5.08942         17.1324         1.14707 
        5.10513         17.0035         1.13809 
        5.12084         16.9053          1.1292 
        5.13656          16.725         1.12041 
        5.15225         16.6087         1.11172 
        5.16796         16.5031         1.10311 
        5.18369         16.3837         1.09459 
         5.1994         16.2773         1.08617 
        5.21509         16.1543         1.07785 
        5.23079          16.021          1.0696 
        5.24649         15.9282         1.06145 
        5.26217         15.7923         1.05339 
        5.27788         15.6454          1.0454 
        5.29359         15.5459         1.03749 
        5.30933         15.4301         1.02965 
        5.32504         15.2762         1.02191 
        5.34073          15.212         1.01425 
        5.35646         15.0959         1.00666 
        5.37218         14.9427        0.999141 
        5.38789         14.8534        0.991713 
        5.40357         14.7529         0.98437 
        5.41929          14.648        0.977084 
        5.43502         14.5196        0.969871 
         5.4507         14.4433        0.962748 
        5.46639         14.3399        0.955695 
        5.48212         14.2197        0.948697 
        5.49786         14.1175         0.94176 
        5.51353         14.0122        0.934927 
        5.52921         13.9072        0.928155 
        5.54495         13.7877         0.92143 
        5.56066         13.7149        0.914778 
        5.57637         13.5998        0.908194 
        5.59207         13.5005         0.90168 
        5.60778         13.4023        0.895227 
        5.62346         13.3326        0.888847 
        5.63916         13.2045        0.882522 
        5.65487         13.1212        0.876256 
         5.6706         13.0341        0.870043 
        5.68633         12.9562        0.863888 
        5.70203         12.8481        0.857806 
        5.71773         12.7587        0.851783 
        5.73344         12.6714        0.845814 
        5.74916         12.5844        0.839897 
        5.76486         12.5018        0.834045 
        5.78054         12.4123        0.828257 
        5.79626         12.3017        0.822508 
          5.812         12.2359        0.816808 
         5.8277         12.1538        0.811179 
        5.84339         12.0549        0.805602 
        5.85911         11.9694        0.800068 
        5.87484         11.9021        0.794586 
        5.89053         11.8042        0.789166 
        5.90623         11.7107        0.783795 
        5.92195         11.6141        0.778464 
        5.93767          11.544        0.773185 
        5.95336          11.501        0.767964 
        5.96905         11.4018        0.762793 
        5.98476          11.354        0.757663 
        6.00048         11.2435        0.752578 
        6.01617         11.1671        0.747547 
        6.03185          11.107        0.742567 
        6.04756         11.0184        0.737621 
        6.06331          10.936        0.732709 
        6.07903         10.8623        0.727853 
        6.09473          10.805        0.723045 
        6.11044         10.7136        0.718276 
        6.12616         10.6296         0.71355 
        6.14186         10.5595        0.708872 
        6.15755         10.5092        0.704236 
        6.17326          10.425        0.699638 
        6.18898         10.3473        0.695079 
        6.20467         10.2925        0.690569 
        6.22036         10.2319        0.686098 
         6.2361         10.1438        0.681656 
         6.2518         10.1088         0.67726 
        6.26748         10.0331        0.672912 
        6.28319         9.96799         0.66859 
        6.29893         9.89601        0.664303 
        6.31463          9.8284         0.66006 
        6.33033         9.75741        0.655856 
        6.34604         9.68516        0.651686 
        6.36177         9.64532        0.647547 
        6.37747         9.57003        0.643453 
