# k  (h/Mpc)    Pcb(k)  (Mpc/h)^3    Pcb_linear(k) (Mpc/h)^3   ShotnoiseSubtracted = true
      0.0200456         9640.43         9797.02 
      0.0350414         6426.62         6582.52 
      0.0492313         4423.06         4426.93 
      0.0637834         3655.36         3550.53 
      0.0800726         2925.68            2868 
       0.096163         2012.59         2040.11 
       0.111083         1517.81         1525.55 
       0.126058         1360.42         1317.52 
       0.142273         1209.02         1160.95 
       0.158546         1001.47         922.378 
        0.17375         773.664         734.063 
       0.188953         725.264         642.875 
       0.204907          688.11         586.596 
       0.220756         585.756         507.784 
        0.23588         505.885          427.47 
         0.2514         434.431         373.746 
       0.267535         417.562         341.648 
       0.283568          380.02         308.509 
       0.299022         350.549         271.619 
       0.314451         321.379         241.331 
       0.330372         295.662         220.266 
       0.346141         265.442         202.799 
       0.361624         254.411         184.399 
       0.377134         235.819         166.985 
       0.392932         218.005         152.981 
       0.408854         208.206         141.589 
       0.424564         198.615         130.898 
       0.440253         188.847         120.528 
       0.455999         176.651         111.361 
       0.471626           163.7         103.688 
        0.48727         157.649         96.7912 
       0.502856         151.483         90.2597 
       0.518488         148.063         84.2062 
       0.534347         140.449         78.7564 
       0.550082         130.078         73.9205 
       0.565732           125.7         69.4671 
       0.581496         120.079         65.2793 
       0.597222         116.108         61.4499 
       0.612804         111.063         57.9995 
       0.628434         107.764         54.8093 
       0.644267         103.859         51.8034 
       0.660051         101.966         49.0151 
       0.675724         98.4832         46.4589 
       0.691403         95.3155         44.0929 
       0.707174         91.4061         41.8781 
       0.722871         89.9758         39.8222 
        0.73838         87.9952         37.9246 
       0.754018         83.8812         36.1349 
       0.769845         81.9995         34.4399 
        0.78569         79.9835         32.8509 
       0.801365         77.3776         31.3768 
       0.817031         74.5351         29.9935 
       0.832809         73.6529         28.6844 
       0.848511         70.8136          27.459 
       0.864097          69.193         26.3135 
       0.879701         67.8729         25.2322 
       0.895507          66.538         24.1989 
       0.911279         65.1072         23.2255 
        0.92691         63.7501         22.3136 
       0.942635         61.5979         21.4456 
       0.958396          61.335         20.6219 
       0.974128         59.6065         19.8429 
       0.989692          58.274         19.1118 
        1.00528         56.9008         18.4163 
        1.02113         55.9735         17.7445 
        1.03692         54.1321         17.1087 
        1.05264         54.0884         16.5068 
        1.06832         52.2407         15.9347 
        1.08405         51.5721         15.3881 
        1.09979         51.2053         14.8668 
        1.11537         49.2619         14.3747 
        1.13105         49.5424         13.9018 
        1.14679         48.2881         13.4483 
        1.16256         47.4321         13.0142 
        1.17828         46.3383         12.6005 
        1.19395         45.7028         12.2061 
         1.2097         44.7123         11.8266 
        1.22537         44.7422          11.465 
          1.241         43.4444         11.1195 
        1.25666         42.5422         10.7874 
        1.27241         42.0032         10.4672 
        1.28819         41.1467         10.1594 
        1.30392         40.6337         9.86486 
        1.31957         40.1878         9.58326 
        1.33529         39.3903         9.31159 
        1.35108         39.0948         9.04934 
        1.36674         38.5676         8.79903 
         1.3824         37.4937         8.55838 
        1.39811         37.2677         8.32589 
        1.41389         36.7588         8.10113 
        1.42964         36.1691         7.88501 
        1.44531         35.5293          7.6778 
        1.46101         34.8791         7.47757 
        1.47667         34.7793         7.28504 
        1.49229         34.3043         7.09979 
        1.50793          33.805         6.92074 
        1.52367         33.1763         6.74669 
        1.53953         32.9975         6.57743 
        1.55526         32.4708         6.41531 
        1.57092         32.0997          6.2593 
        1.58662         31.6393         6.10808 
        1.60235         31.2795         5.96155 
        1.61809         30.7652         5.81972 
        1.63369         30.3198         5.68375 
        1.64941         29.9876         5.55114 
        1.66519         29.4587         5.42225 
        1.68085          29.304         5.29836 
        1.69652         28.8694         5.17828 
        1.71228          28.659         5.06123 
        1.72806         28.2494         4.94769 
        1.74368         27.7272         4.83875 
        1.75933         27.4358         4.73286 
        1.77505         27.3164         4.62963 
        1.79081         26.8418         4.52928 
         1.8065         26.5603         4.43232 
        1.82218         26.2774         4.33827 
        1.83797         25.8678         4.24629 
        1.85367         25.5585         4.15747 
        1.86928         25.3276         4.07172 
        1.88497         25.1213          3.9879 
        1.90073         24.7992         3.90612 
        1.91647         24.4707          3.8267 
        1.93218         24.3325         3.74964 
        1.94787         23.9117         3.67481 
        1.96363          23.796         3.60171 
        1.97935         23.4106         3.53074 
        1.99499         23.2236         3.46208 
        2.01064         23.0251         3.39513 
         2.0264         22.6188         3.32952 
        2.04216         22.4392         3.26568 
        2.05781         22.1007          3.2039 
        2.07353         21.9468         3.14348 
        2.08928         21.8939         3.08449 
        2.10499          21.594         3.02716 
        2.12065         21.2409         2.97146 
        2.13633         21.1185         2.91709 
        2.15211         20.8232         2.86374 
        2.16785         20.5749         2.81185 
        2.18349         20.4134         2.76157 
        2.19916         20.2537         2.71241 
        2.21489         19.9787         2.66428 
        2.23063         19.7715         2.61728 
         2.2463         19.6283         2.57161 
        2.26194         19.4783         2.52714 
        2.27765          19.249         2.48349 
        2.29341         19.0255         2.44075 
        2.30914         18.8917          2.3991 
        2.32486          18.634         2.35844 
        2.34061         18.5085         2.31865 
        2.35635         18.2782         2.27981 
        2.37203         18.1789         2.24199 
        2.38768         17.8906          2.2051 
        2.40339         17.7918          2.1689 
        2.41914         17.6116         2.13342 
        2.43483           17.45         2.09886 
         2.4505          17.265         2.06512 
        2.46622          17.072           2.032 
        2.48195         16.9349          1.9996 
        2.49759          16.719         1.96807 
        2.51328         16.5217         1.93714 
        2.52906         16.4814         1.90667 
        2.54479         16.2696         1.87697 
        2.56049         16.0865         1.84796 
        2.57618         15.9261         1.81958 
        2.59189         15.8369         1.79175 
        2.60758         15.7006         1.76454 
        2.62325         15.5421         1.73793 
        2.63898         15.4223         1.71177 
        2.65468         15.2603          1.6862 
        2.67044          15.124         1.66104 
        2.68618         14.9392         1.63645 
        2.70184         14.8648         1.61245 
        2.71755         14.7372         1.58887 
        2.73329         14.5555         1.56572 
        2.74897         14.3874         1.54311 
        2.76462         14.3271         1.52099 
        2.78034         14.1953         1.49921 
        2.79607         14.0673         1.47783 
        2.81179            13.9         1.45689 
        2.82749          13.797         1.43638 
        2.84321         13.7167         1.41624 
        2.85893         13.5138         1.39648 
        2.87462         13.4103         1.37714 
        2.89033         13.3216         1.35814 
        2.90605         13.2313         1.33948 
        2.92176         13.0168         1.32118 
        2.93747         12.9637         1.30323 
        2.95318          12.833          1.2856 
        2.96891         12.7403         1.26829 
        2.98456         12.6297         1.25138 
        3.00023         12.4396         1.23475 
        3.01596         12.4579         1.21836 
        3.03164         12.3001         1.20232 
        3.04738         12.1514         1.18652 
         3.0631         12.0561           1.171 
        3.07883         11.9388         1.15577 
        3.09456         11.8339          1.1408 
        3.11026         11.7612         1.12612 
        3.12596         11.6246         1.11169 
        3.14163         11.5351         1.09756 
        3.15734          11.421         1.08363 
        3.17308         11.3467         1.06991 
        3.18879         11.2453         1.05646 
        3.20447         11.1683         1.04327 
         3.2202         11.0317         1.03025 
         3.2359         10.9556         1.01748 
        3.25157         10.8541         1.00496 
        3.26729         10.7804        0.992602 
        3.28304         10.6728        0.980431 
        3.29877         10.5718        0.968478 
        3.31446         10.4927        0.956749 
        3.33014         10.3905        0.945224 
        3.34585         10.3211         0.93387 
        3.36158          10.233        0.922684 
        3.37727         10.1147        0.911715 
        3.39294         10.0397        0.900934 
        3.40867         9.94819        0.890287 
        3.42439          9.8971        0.879817 
        3.44008         9.80995        0.869534 
        3.45578         9.73934        0.859407 
        3.47153         9.68403        0.849418 
        3.48724         9.55092        0.839604 
        3.50292          9.5148        0.829967 
        3.51859         9.42471        0.820485 
        3.53431         9.35998        0.811121 
        3.55007         9.27034         0.80188 
        3.56577         9.18906        0.792817 
        3.58146         9.15183        0.783898 
        3.59719         9.04962        0.775094 
        3.61292         8.95726        0.766428 
        3.62859         8.87717        0.757926 
        3.64429         8.83057        0.749536 
        3.66003         8.75742        0.741246 
        3.67578         8.68062        0.733084 
        3.69146         8.58625        0.725075 
        3.70712         8.54704        0.717199 
        3.72284         8.48189        0.709411 
        3.73853         8.39101         0.70175 
        3.75422         8.34568          0.6942 
        3.76993         8.29704        0.686753 
        3.78564         8.20634        0.679418 
        3.80137         8.14456        0.672177 
        3.81707         8.11122        0.665056 
        3.83279         7.98527        0.658032 
        3.84853         7.95174        0.651097 
        3.86424          7.8626        0.644276 
        3.87992         7.82859        0.637561 
        3.89561          7.7553        0.630941 
        3.91134         7.68011        0.624401 
        3.92704         7.61847        0.617961 
        3.94273         7.56382        0.611617 
        3.95845         7.51275         0.60535 
        3.97418         7.45289        0.599169 
        3.98988         7.39585        0.593082 
        4.00554         7.34482        0.587096 
        4.02125         7.28287        0.581175 
        4.03698         7.22566        0.575325 
        4.05268         7.17587        0.569569 
        4.06839         7.11346        0.563887 
         4.0841         7.04753        0.558284 
        4.09983         7.00142        0.552748 
        4.11555         6.94607        0.547289 
        4.13124         6.89119        0.541919 
        4.14693         6.82737        0.536615 
        4.16266         6.80025         0.53137 
        4.17839         6.72434        0.526197 
        4.19408         6.68935        0.521105 
        4.20977          6.6273        0.516077 
        4.22551         6.58667        0.511103 
        4.24123          6.5109          0.5062 
        4.25691          6.4846        0.501373 
        4.27259         6.41994        0.496608 
        4.28831         6.36474        0.491895 
        4.30404         6.32412        0.487237 
        4.31974         6.29102         0.48265 
        4.33543         6.22823        0.478125 
        4.35116         6.17473        0.473645 
        4.36688          6.1175        0.469225 
        4.38255         6.08076        0.464877 
        4.39825         6.02399        0.460575 
        4.41398          5.9985        0.456318 
         4.4297          5.9551        0.452119 
        4.44541         5.90318        0.447973 
        4.46111         5.86519        0.443882 
        4.47683         5.80891        0.439839 
        4.49251         5.77542        0.435854 
        4.50819         5.71443        0.431919 
         4.5239         5.67674        0.428027 
        4.53962         5.64798        0.424177 
        4.55535         5.59393        0.420373 
        4.57106         5.56115         0.41662 
        4.58678         5.52247        0.412913 
         4.6025         5.47201        0.409249 
        4.61821         5.42843         0.40563 
        4.63391         5.40671        0.402059 
         4.6496          5.3659        0.398532 
        4.66532         5.32091        0.395042 
        4.68103         5.27387        0.391595 
        4.69673          5.2419        0.388192 
        4.71241         5.20499        0.384832 
        4.72811         5.14425        0.381507 
        4.74384         5.13033        0.378216 
        4.75955          5.0794        0.374969 
        4.77525         5.05225        0.371761 
        4.79096         5.02275        0.368587 
        4.80669         4.97436        0.365448 
         4.8224          4.9483        0.362349 
        4.83809         4.91274        0.359289 
        4.85379         4.87845        0.356263 
         4.8695         4.84587        0.353268 
        4.88521         4.80415        0.350309 
        4.90093         4.76197        0.347383 
        4.91663         4.73333        0.344493 
        4.93234         4.70861        0.341633 
        4.94807         4.67695        0.338802 
        4.96377         4.64416        0.336009 
        4.97943         4.60463        0.333254 
        4.99514         4.56183        0.330521 
        5.01086         4.53847        0.327817 
        5.02654         4.51493        0.325151 
        5.04227         4.48304        0.322505 
          5.058         4.44289        0.319888 
        5.07371         4.41671        0.317305 
        5.08942         4.38612        0.314749 
        5.10513         4.35993        0.312221 
        5.12084         4.32338         0.30972 
        5.13656         4.29595        0.307246 
        5.15225         4.26885        0.304804 
        5.16796         4.24725        0.302384 
        5.18369         4.21151        0.299987 
         5.1994         4.18411        0.297621 
        5.21509         4.16172        0.295283 
        5.23079         4.13541        0.292966 
        5.24649         4.09993        0.290676 
        5.26217         4.08035        0.288412 
        5.27788         4.05199        0.286169 
        5.29359         4.02223        0.283949 
        5.30933         3.99304        0.281749 
        5.32504         3.96396        0.279576 
        5.34073         3.93463        0.277428 
        5.35646         3.91061        0.275298 
        5.37218         3.88087         0.27319 
        5.38789         3.86523        0.271108 
        5.40357         3.83405        0.269049 
        5.41929         3.80613        0.267007 
        5.43502         3.78393        0.264986 
         5.4507          3.7563         0.26299 
        5.46639         3.73654        0.261015 
        5.48212         3.70342        0.259055 
        5.49786         3.69044        0.257113 
        5.51353         3.65667          0.2552 
        5.52921         3.63694        0.253304 
        5.54495         3.61469        0.251423 
        5.56066         3.58549        0.249562 
        5.57637         3.57061         0.24772 
        5.59207          3.5495        0.245898 
        5.60778         3.52688        0.244094 
        5.62346         3.50232         0.24231 
        5.63916         3.47837        0.240542 
        5.65487         3.45766        0.238791 
         5.6706         3.44091        0.237055 
        5.68633          3.4096        0.235336 
        5.70203         3.39702        0.233637 
        5.71773         3.37234        0.231955 
        5.73344         3.34971        0.230288 
        5.74916          3.3313        0.228637 
        5.76486         3.30965        0.227003 
        5.78054         3.29232        0.225388 
        5.79626         3.26621        0.223784 
          5.812         3.25299        0.222194 
         5.8277         3.22307        0.220624 
        5.84339         3.20787        0.219069 
        5.85911         3.19793        0.217526 
        5.87484         3.17183        0.215998 
        5.89053         3.15124        0.214488 
        5.90623         3.13908        0.212991 
        5.92195         3.11342        0.211506 
        5.93767         3.09141        0.210035 
        5.95336            3.08        0.208581 
        5.96905         3.05461        0.207142 
        5.98476         3.03192        0.205713 
        6.00048         3.01953        0.204298 
        6.01617         3.00396        0.202898 
        6.03185         2.98473        0.201512 
        6.04756         2.96463        0.200136 
        6.06331         2.94202         0.19877 
        6.07903           2.929        0.197419 
        6.09473         2.91874        0.196082 
        6.11044          2.8948        0.194756 
        6.12616         2.88054        0.193443 
        6.14186         2.86706        0.192143 
        6.15755         2.84597        0.190855 
        6.17326         2.82937        0.189577 
        6.18898         2.81374        0.188311 
        6.20467          2.8022        0.187058 
        6.22036         2.77962        0.185817 
         6.2361         2.76787        0.184583 
         6.2518         2.74998        0.183363 
        6.26748         2.74067        0.182156 
        6.28319         2.71631        0.180957 
        6.29893         2.70399        0.179768 
        6.31463         2.68418        0.178591 
        6.33033         2.67893        0.177425 
        6.34604         2.65809        0.176268 
        6.36177         2.64095        0.175121 
        6.37747         2.62527        0.173986 
