# k  (h/Mpc)    Pcb(k)  (Mpc/h)^3    Pcb_linear(k) (Mpc/h)^3   ShotnoiseSubtracted = true
      0.0200456         8159.74         8287.82 
      0.0350414         5451.21         5568.51 
      0.0492313         3746.33         3744.98 
      0.0637834         3087.59         3003.58 
      0.0800726         2472.18         2426.19 
       0.096163         1704.33         1725.84 
       0.111083         1283.09         1290.54 
       0.126058         1147.66         1114.56 
       0.142273          1019.5         982.112 
       0.158546         839.019         780.288 
        0.17375         648.946         620.983 
       0.188953          604.62         543.842 
       0.204907         573.546         496.233 
       0.220756         487.197         429.561 
        0.23588         419.377         361.619 
         0.2514         360.612         316.171 
       0.267535         344.401         289.018 
       0.283568         313.557         260.984 
       0.299022          287.93         229.777 
       0.314451         261.693         204.155 
       0.330372         241.103         186.335 
       0.346141         216.477         171.559 
       0.361624           206.5         155.993 
       0.377134         191.831         141.262 
       0.392932         175.483         129.415 
       0.408854         167.695         119.777 
       0.424564         160.237         110.733 
       0.440253         151.156         101.961 
       0.455999         141.307         94.2058 
       0.471626         130.677         87.7152 
        0.48727         125.873         81.8808 
       0.502856         120.505         76.3554 
       0.518488         117.051         71.2344 
       0.534347         111.544         66.6242 
       0.550082         102.837         62.5333 
       0.565732          98.702         58.7659 
       0.581496         94.7177         55.2232 
       0.597222         91.3528         51.9837 
       0.612804         86.9706         49.0648 
       0.628434         84.6309         46.3661 
       0.644267         81.5318         43.8232 
       0.660051         79.5467         41.4645 
       0.675724         76.4735          39.302 
       0.691403           74.02         37.3005 
       0.707174         71.1535         35.4269 
       0.722871         69.6476         33.6877 
        0.73838         68.0308         32.0825 
       0.754018         64.5295         30.5684 
       0.769845         63.1375         29.1345 
        0.78569         61.5225         27.7903 
       0.801365         59.3365         26.5433 
       0.817031         57.3575         25.3731 
       0.832809         56.6078         24.2657 
       0.848511         54.0621          23.229 
       0.864097         52.8651           22.26 
       0.879701         51.8294         21.3452 
       0.895507         50.9735         20.4711 
       0.911279         49.6687         19.6477 
        0.92691         48.5532         18.8763 
       0.942635         46.7096          18.142 
       0.958396          46.512         17.4452 
       0.974128         45.1942         16.7862 
       0.989692         44.3112         16.1677 
        1.00528         43.2601         15.5793 
        1.02113         42.2291          15.011 
        1.03692         41.0233         14.4731 
        1.05264         40.9083          13.964 
        1.06832         39.4567           13.48 
        1.08405         38.9896         13.0176 
        1.09979         38.5344         12.5766 
        1.11537         37.0239         12.1603 
        1.13105         37.2665         11.7603 
        1.14679         36.3518         11.3767 
        1.16256         35.5737         11.0094 
        1.17828         34.7383         10.6594 
        1.19395         34.2411         10.3258 
         1.2097         33.6492         10.0048 
        1.22537         33.5163         9.69883 
          1.241          32.484         9.40658 
        1.25666         31.8226          9.1256 
        1.27241         31.4397         8.85474 
        1.28819         30.6488         8.59438 
        1.30392         30.2781         8.34521 
        1.31957         29.9955         8.10699 
        1.33529         29.5715         7.87717 
        1.35108         29.1471         7.65532 
        1.36674         28.6548         7.44356 
         1.3824         27.8847         7.23998 
        1.39811         27.8107         7.04331 
        1.41389         27.4048         6.85317 
        1.42964         26.8459         6.67035 
        1.44531         26.5301         6.49506 
        1.46101         25.9427         6.32567 
        1.47667         25.8191          6.1628 
        1.49229         25.5095         6.00609 
        1.50793           25.12         5.85462 
        1.52367          24.751         5.70738 
        1.53953         24.6089          5.5642 
        1.55526         24.1137         5.42705 
        1.57092         23.7915         5.29507 
        1.58662         23.4798         5.16715 
        1.60235         23.1897         5.04319 
        1.61809           22.85         4.92321 
        1.63369         22.5888         4.80819 
        1.64941         22.2661           4.696 
        1.66519         21.9896         4.58697 
        1.68085         21.7511         4.48216 
        1.69652         21.4854         4.38058 
        1.71228         21.3212         4.28156 
        1.72806         20.9319         4.18551 
        1.74368         20.5883         4.09336 
        1.75933         20.3681         4.00378 
        1.77505          20.324         3.91645 
        1.79081          19.966         3.83156 
         1.8065         19.7572         3.74953 
        1.82218         19.5467         3.66997 
        1.83797         19.2395         3.59216 
        1.85367          19.041         3.51702 
        1.86928         18.8543         3.44448 
        1.88497         18.5802         3.37357 
        1.90073         18.5072         3.30439 
        1.91647         18.1938         3.23721 
        1.93218         18.0508         3.17202 
        1.94787         17.8129         3.10871 
        1.96363         17.7375         3.04688 
        1.97935         17.4898         2.98684 
        1.99499           17.28         2.92876 
        2.01064         17.1817         2.87212 
         2.0264         16.8433         2.81662 
        2.04216         16.7346         2.76261 
        2.05781         16.4727         2.71034 
        2.07353          16.383         2.65924 
        2.08928         16.2899         2.60933 
        2.10499         16.1021         2.56084 
        2.12065         15.8059         2.51371 
        2.13633         15.7324         2.46772 
        2.15211         15.5133         2.42259 
        2.16785         15.3752          2.3787 
        2.18349         15.2142         2.33616 
        2.19916         15.0995         2.29457 
        2.21489         14.9225         2.25386 
        2.23063         14.7859         2.21409 
         2.2463         14.6546         2.17546 
        2.26194         14.5471         2.13784 
        2.27765          14.335         2.10092 
        2.29341         14.1666         2.06476 
        2.30914         14.0893         2.02953 
        2.32486         13.9702         1.99513 
        2.34061         13.8295         1.96147 
        2.35635         13.6453         1.92861 
        2.37203         13.5172         1.89662 
        2.38768           13.41         1.86541 
        2.40339         13.2739         1.83479 
        2.41914         13.1631         1.80477 
        2.43483         13.0461         1.77554 
         2.4505         12.8755         1.74699 
        2.46622         12.7666         1.71897 
        2.48195         12.6611         1.69157 
        2.49759         12.5115          1.6649 
        2.51328         12.4031         1.63873 
        2.52906         12.3336         1.61296 
        2.54479          12.199         1.58783 
        2.56049         12.1065         1.56329 
        2.57618         12.0062         1.53928 
        2.59189         11.8854         1.51574 
        2.60758         11.7819         1.49272 
        2.62325         11.6965         1.47021 
        2.63898         11.5703         1.44808 
        2.65468         11.4669         1.42645 
        2.67044         11.3376         1.40516 
        2.68618         11.2537         1.38436 
        2.70184         11.1615         1.36406 
        2.71755         11.0393         1.34411 
        2.73329         10.9651         1.32453 
        2.74897          10.825          1.3054 
        2.76462         10.8143         1.28669 
        2.78034         10.6297         1.26826 
        2.79607         10.5688         1.25018 
        2.81179         10.4434         1.23246 
        2.82749         10.3655         1.21511 
        2.84321         10.2824         1.19807 
        2.85893         10.2085         1.18136 
        2.87462         10.1038         1.16499 
        2.89033         9.98927         1.14892 
        2.90605         9.93972         1.13314 
        2.92176         9.82659         1.11765 
        2.93747         9.78817         1.10247 
        2.95318         9.65849         1.08756 
        2.96891         9.58786         1.07292 
        2.98456         9.52045         1.05861 
        3.00023         9.42825         1.04454 
        3.01596         9.37081         1.03068 
        3.03164         9.30137         1.01711 
        3.04738         9.17392         1.00374 
         3.0631         9.13642        0.990615 
        3.07883         9.01953        0.977723 
        3.09456         8.96362        0.965061 
        3.11026         8.88477        0.952642 
        3.12596          8.8253        0.940441 
        3.14163         8.74191        0.928481 
        3.15734         8.65738        0.916699 
        3.17308         8.58973        0.905093 
        3.18879         8.55617        0.893718 
        3.20447         8.44524        0.882553 
         3.2202         8.39825        0.871544 
         3.2359         8.34384         0.86074 
        3.25157         8.27111        0.850145 
        3.26729         8.19606        0.839694 
        3.28304         8.13956        0.829398 
        3.29877         8.05198        0.819287 
        3.31446         7.98973        0.809365 
        3.33014         7.92493        0.799615 
        3.34585         7.88925         0.79001 
        3.36158         7.82923        0.780547 
        3.37727         7.72714        0.771268 
        3.39294         7.69354        0.762148 
        3.40867         7.60569        0.753141 
        3.42439         7.54684        0.744283 
        3.44008         7.52102        0.735585 
        3.45578         7.44123        0.727018 
        3.47153         7.40486        0.718568 
        3.48724         7.34073        0.710266 
        3.50292         7.27153        0.702113 
        3.51859         7.23237        0.694092 
        3.53431          7.1663         0.68617 
        3.55007         7.11099        0.678352 
        3.56577         7.06361        0.670686 
        3.58146         7.01352         0.66314 
        3.59719         6.95016        0.655693 
        3.61292         6.87865        0.648362 
        3.62859         6.84087         0.64117 
        3.64429          6.8131        0.634072 
        3.66003          6.7253        0.627059 
        3.67578         6.66149        0.620155 
        3.69146          6.6278        0.613379 
        3.70712         6.57381        0.606717 
        3.72284         6.53573        0.600128 
        3.73853           6.464        0.593648 
        3.75422          6.4541         0.58726 
        3.76993         6.37821        0.580961 
        3.78564         6.33288        0.574755 
        3.80137         6.27617         0.56863 
        3.81707         6.24062        0.562606 
        3.83279         6.19832        0.556664 
        3.84853         6.14069        0.550798 
        3.86424         6.10246        0.545027 
        3.87992         6.04312        0.539347 
        3.89561         6.00706        0.533746 
        3.91134         5.95786        0.528214 
        3.92704         5.91019        0.522766 
        3.94273         5.88547        0.517399 
        3.95845         5.83597        0.512098 
        3.97418          5.7718        0.506869 
        3.98988         5.74638         0.50172 
        4.00554         5.71216        0.496656 
        4.02125         5.65595        0.491646 
        4.03698         5.60653        0.486698 
        4.05268         5.58249        0.481829 
        4.06839         5.53194        0.477022 
         4.0841         5.48857        0.472282 
        4.09983         5.45209        0.467599 
        4.11555          5.4219        0.462981 
        4.13124          5.3874        0.458438 
        4.14693         5.33468        0.453951 
        4.16266         5.29429        0.449514 
        4.17839         5.25021        0.445138 
        4.19408         5.21307         0.44083 
        4.20977         5.16832        0.436577 
        4.22551         5.13187        0.432369 
        4.24123         5.09588        0.428221 
        4.25691         5.04458        0.424138 
        4.27259         5.02356        0.420107 
        4.28831         4.98441         0.41612 
        4.30404         4.95605         0.41218 
        4.31974         4.90848        0.408299 
        4.33543         4.87573        0.404471 
        4.35116         4.82648        0.400682 
        4.36688         4.79215        0.396942 
        4.38255          4.7681        0.393264 
        4.39825          4.7159        0.389625 
        4.41398         4.70848        0.386023 
         4.4297         4.65806        0.382471 
        4.44541         4.62745        0.378964 
        4.46111         4.61538        0.375503 
        4.47683         4.57005        0.372083 
        4.49251         4.54004        0.368712 
        4.50819         4.49439        0.365383 
         4.5239          4.4732         0.36209 
        4.53962         4.44379        0.358834 
        4.55535         4.41524        0.355616 
        4.57106         4.37672        0.352441 
        4.58678          4.3519        0.349305 
         4.6025         4.31554        0.346205 
        4.61821          4.2899        0.343144 
        4.63391         4.26242        0.340123 
         4.6496         4.22879        0.337139 
        4.66532         4.21715        0.334187 
        4.68103         4.16856        0.331271 
        4.69673         4.15249        0.328392 
        4.71241         4.12346         0.32555 
        4.72811          4.0859        0.322737 
        4.74384         4.05495        0.319953 
        4.75955         4.02658        0.317206 
        4.77525         3.99974        0.314493 
        4.79096         3.97954        0.311807 
        4.80669         3.95317        0.309152 
         4.8224         3.93255        0.306531 
        4.83809         3.89292        0.303942 
        4.85379         3.87032        0.301381 
         4.8695         3.85315        0.298848 
        4.88521         3.83021        0.296345 
        4.90093         3.78749         0.29387 
        4.91663         3.77877        0.291425 
        4.93234         3.75087        0.289005 
        4.94807         3.71591        0.286611 
        4.96377         3.68874        0.284248 
        4.97943         3.66871        0.281917 
        4.99514          3.6441        0.279605 
        5.01086         3.62323        0.277318 
        5.02654         3.60325        0.275062 
        5.04227         3.56932        0.272824 
          5.058         3.54975         0.27061 
        5.07371         3.52762        0.268425 
        5.08942         3.50486        0.266263 
        5.10513         3.48457        0.264125 
        5.12084         3.46739        0.262009 
        5.13656         3.44309        0.259916 
        5.15225         3.42064         0.25785 
        5.16796         3.39438        0.255802 
        5.18369         3.37209        0.253775 
         5.1994         3.35612        0.251774 
        5.21509         3.32851        0.249795 
        5.23079         3.31828        0.247836 
        5.24649         3.29179        0.245898 
        5.26217         3.26619        0.243983 
        5.27788         3.24805        0.242085 
        5.29359         3.22816        0.240207 
        5.30933         3.20527        0.238346 
        5.32504         3.19447        0.236508 
        5.34073         3.16778        0.234691 
        5.35646         3.14494        0.232889 
        5.37218         3.12965        0.231106 
        5.38789         3.10763        0.229344 
        5.40357         3.09077        0.227603 
        5.41929         3.06752        0.225876 
        5.43502         3.05117        0.224166 
         5.4507         3.03601        0.222478 
        5.46639         3.01471        0.220806 
        5.48212         2.99654        0.219148 
        5.49786          2.9803        0.217505 
        5.51353         2.95605        0.215887 
        5.52921         2.94542        0.214284 
        5.54495         2.92382        0.212692 
        5.56066         2.91007        0.211117 
        5.57637         2.89172        0.209559 
        5.59207         2.87298        0.208018 
        5.60778         2.84978        0.206492 
        5.62346         2.83458        0.204983 
        5.63916         2.81968        0.203487 
        5.65487         2.80426        0.202006 
         5.6706         2.78503        0.200537 
        5.68633         2.77505        0.199083 
        5.70203         2.75169        0.197646 
        5.71773          2.7415        0.196223 
        5.73344         2.72674        0.194813 
        5.74916         2.70872        0.193416 
        5.76486         2.69539        0.192034 
        5.78054          2.6774        0.190668 
        5.79626         2.66195        0.189311 
          5.812         2.64622        0.187966 
         5.8277         2.63269        0.186638 
        5.84339         2.61692        0.185322 
        5.85911         2.60686        0.184017 
        5.87484         2.58783        0.182724 
        5.89053         2.56874        0.181446 
        5.90623          2.5563         0.18018 
        5.92195         2.54231        0.178924 
        5.93767         2.52994         0.17768 
        5.95336         2.51751         0.17645 
        5.96905         2.50158        0.175232 
        5.98476         2.48896        0.174024 
        6.00048         2.47227        0.172826 
        6.01617         2.45929        0.171642 
        6.03185         2.44159         0.17047 
        6.04756         2.42754        0.169306 
        6.06331         2.41458         0.16815 
        6.07903         2.40196        0.167007 
        6.09473         2.39416        0.165876 
        6.11044         2.37614        0.164755 
        6.12616         2.36305        0.163644 
        6.14186         2.35508        0.162544 
        6.15755         2.33916        0.161454 
        6.17326         2.32695        0.160373 
        6.18898         2.31178        0.159302 
        6.20467         2.30561        0.158242 
        6.22036         2.28685        0.157192 
         6.2361         2.27273        0.156149 
         6.2518          2.2652        0.155116 
        6.26748         2.25661        0.154096 
        6.28319         2.23879        0.153081 
        6.29893          2.2273        0.152075 
        6.31463         2.21346        0.151079 
        6.33033           2.206        0.150093 
        6.34604          2.1937        0.149115 
        6.36177         2.18415        0.148144 
        6.37747         2.16887        0.147184 
