# k  (h/Mpc)    Pcb(k)  (Mpc/h)^3    Pcb_linear(k) (Mpc/h)^3   ShotnoiseSubtracted = true
      0.0200456          2783.5         2821.42 
      0.0350414          1878.2         1895.68 
      0.0492313         1280.71          1274.9 
      0.0637834         1041.87         1022.51 
      0.0800726         834.981         825.948 
       0.096163         583.351         587.526 
       0.111083         436.991         439.339 
       0.126058         385.203          379.43 
       0.142273         340.439          334.34 
       0.158546         273.699         265.633 
        0.17375         213.954         211.401 
       0.188953         192.973          185.14 
       0.204907          181.46         168.932 
       0.220756         153.708         146.235 
        0.23588         130.662         123.106 
         0.2514         113.126         107.634 
       0.267535          104.99         98.3904 
       0.283568         95.2165         88.8467 
       0.299022         85.6809         78.2228 
       0.314451         75.2416         69.5003 
       0.330372         69.6007         63.4338 
       0.346141         63.4177         58.4036 
       0.361624         58.7443         53.1046 
       0.377134         54.5572         48.0897 
       0.392932          48.122         44.0566 
       0.408854         46.2832         40.7758 
       0.424564         43.4452         37.6968 
       0.440253         39.9007         34.7104 
       0.455999         37.2803         32.0704 
       0.471626         34.8463         29.8608 
        0.48727         33.0224         27.8746 
       0.502856         30.8807         25.9936 
       0.518488         29.3673         24.2503 
       0.534347         28.1077         22.6808 
       0.550082         25.5731         21.2882 
       0.565732         23.7657         20.0056 
       0.581496         23.1924         18.7996 
       0.597222          22.309         17.6968 
       0.612804         20.7496         16.7031 
       0.628434         19.9509         15.7844 
       0.644267         19.2986         14.9187 
       0.660051         18.2198         14.1157 
       0.675724         17.2299         13.3796 
       0.691403         16.6461         12.6982 
       0.707174         15.9485         12.0604 
       0.722871         15.2989         11.4683 
        0.73838         14.6437         10.9218 
       0.754018         14.0945         10.4064 
       0.769845         13.5385         9.91824 
        0.78569         13.0688         9.46064 
       0.801365         12.5172         9.03612 
       0.817031         12.1255         8.63776 
       0.832809         11.8348         8.26075 
       0.848511         11.0851         7.90785 
       0.864097         10.8253         7.57795 
       0.879701         10.4857         7.26655 
       0.895507         10.0258         6.96896 
       0.911279         9.81623         6.68864 
        0.92691         9.50211         6.42604 
       0.942635         9.07653         6.17607 
       0.958396         8.83107         5.93886 
       0.974128         8.56921         5.71451 
       0.989692         8.43937         5.50395 
        1.00528          8.1558         5.30367 
        1.02113         7.80741          5.1102 
        1.03692         7.60354         4.92708 
        1.05264         7.43932         4.75374 
        1.06832         7.22611         4.58899 
        1.08405         6.96389         4.43158 
        1.09979         6.79886         4.28144 
        1.11537         6.67652         4.13972 
        1.13105         6.47823         4.00355 
        1.14679          6.3488         3.87295 
        1.16256         6.11805         3.74791 
        1.17828         6.05094         3.62878 
        1.19395         5.81184         3.51521 
         1.2097         5.69664         3.40591 
        1.22537         5.53379         3.30177 
          1.241         5.43559         3.20228 
        1.25666         5.33904         3.10662 
        1.27241         5.17201         3.01441 
        1.28819         5.04956         2.92578 
        1.30392         4.98052         2.84096 
        1.31957         4.86218         2.75986 
        1.33529         4.75099         2.68162 
        1.35108         4.62806          2.6061 
        1.36674         4.58889         2.53401 
         1.3824         4.41293          2.4647 
        1.39811         4.34338         2.39775 
        1.41389         4.26992         2.33302 
        1.42964         4.18992         2.27078 
        1.44531         4.10479         2.21111 
        1.46101         4.01237         2.15344 
        1.47667         3.93385           2.098 
        1.49229         3.88523         2.04465 
        1.50793         3.77613         1.99308 
        1.52367         3.72758         1.94296 
        1.53953         3.63671         1.89422 
        1.55526         3.58058         1.84753 
        1.57092         3.52125          1.8026 
        1.58662         3.43972         1.75905 
        1.60235         3.39133         1.71685 
        1.61809         3.32768         1.67601 
        1.63369         3.26679         1.63685 
        1.64941         3.21095         1.59866 
        1.66519         3.16639         1.56154 
        1.68085         3.09913         1.52586 
        1.69652         3.03813         1.49128 
        1.71228         3.00015         1.45757 
        1.72806         2.94263         1.42487 
        1.74368          2.8863          1.3935 
        1.75933         2.85386           1.363 
        1.77505          2.8117         1.33327 
        1.79081         2.75103         1.30437 
         1.8065         2.72129         1.27645 
        1.82218         2.68311         1.24937 
        1.83797         2.65277         1.22288 
        1.85367         2.59036          1.1973 
        1.86928         2.56384          1.1726 
        1.88497         2.52134         1.14846 
        1.90073         2.47324         1.12491 
        1.91647         2.43758         1.10204 
        1.93218         2.41623         1.07985 
        1.94787         2.38879          1.0583 
        1.96363         2.33881         1.03725 
        1.97935         2.30643         1.01681 
        1.99499         2.26386        0.997035 
        2.01064         2.24372        0.977755 
         2.0264         2.20618        0.958861 
        2.04216         2.18377        0.940473 
        2.05781         2.14674        0.922681 
        2.07353         2.12791        0.905283 
        2.08928         2.10063        0.888294 
        2.10499           2.062        0.871784 
        2.12065         2.05108        0.855741 
        2.13633         2.01316        0.840086 
        2.15211         1.98799        0.824719 
        2.16785         1.96652        0.809778 
        2.18349          1.9387        0.795298 
        2.19916         1.90371        0.781141 
        2.21489         1.89302        0.767279 
        2.23063         1.85392        0.753742 
         2.2463            1.84        0.740591 
        2.26194          1.8127        0.727785 
        2.27765         1.80164        0.715214 
        2.29341         1.77345        0.702906 
        2.30914         1.74615        0.690911 
        2.32486         1.73744        0.679202 
        2.34061         1.71136        0.667743 
        2.35635          1.6889        0.656557 
        2.37203         1.67768        0.645664 
        2.38768         1.65614         0.63504 
        2.40339         1.63281        0.624615 
        2.41914         1.61378        0.614398 
        2.43483         1.60143        0.604445 
         2.4505         1.57737        0.594728 
        2.46622         1.56867         0.58519 
        2.48195         1.54272        0.575859 
        2.49759         1.52811         0.56678 
        2.51328         1.51017        0.557872 
        2.52906         1.50166        0.549098 
        2.54479         1.47763        0.540545 
        2.56049         1.46372        0.532189 
        2.57618         1.44987        0.524016 
        2.59189         1.43964        0.516001 
        2.60758         1.41917        0.508166 
        2.62325         1.40195        0.500502 
        2.63898         1.38895        0.492968 
        2.65468         1.37556        0.485604 
        2.67044         1.36555        0.478359 
        2.68618         1.34563        0.471277 
        2.70184         1.33539        0.464365 
        2.71755         1.32133        0.457575 
        2.73329          1.3064        0.450909 
        2.74897         1.29657        0.444396 
        2.76462         1.28389        0.438026 
        2.78034         1.26979        0.431754 
        2.79607         1.25753        0.425597 
        2.81179         1.24952        0.419566 
        2.82749         1.23037        0.413659 
        2.84321         1.22545        0.407858 
        2.85893         1.21368        0.402169 
        2.87462         1.19922        0.396598 
        2.89033         1.18597        0.391127 
        2.90605          1.1759        0.385753 
        2.92176         1.16634        0.380483 
        2.93747         1.15379        0.375313 
        2.95318         1.14428        0.370237 
        2.96891         1.13822        0.365253 
        2.98456         1.12615        0.360381 
        3.00023         1.11553        0.355591 
        3.01596         1.10755        0.350873 
        3.03164         1.10125        0.346253 
        3.04738         1.08399        0.341702 
         3.0631         1.07797        0.337234 
        3.07883         1.06816        0.332846 
        3.09456         1.06016        0.328535 
        3.11026         1.05292        0.324307 
        3.12596         1.03994        0.320154 
        3.14163         1.03486        0.316082 
        3.15734         1.02453        0.312071 
        3.17308         1.01465         0.30812 
        3.18879         1.01104        0.304248 
        3.20447         1.00233        0.300447 
         3.2202        0.990742        0.296699 
         3.2359        0.982599        0.293021 
        3.25157        0.978008        0.289414 
        3.26729        0.965464        0.285857 
        3.28304        0.964798        0.282352 
        3.29877        0.950327        0.278909 
        3.31446        0.945656        0.275532 
        3.33014        0.942011        0.272213 
        3.34585        0.933419        0.268943 
        3.36158        0.923622        0.265721 
        3.37727        0.919102        0.262562 
        3.39294         0.90997        0.259458 
        3.40867        0.900789        0.256391 
        3.42439        0.897937        0.253376 
        3.44008        0.892862        0.250415 
        3.45578         0.88483        0.247498 
        3.47153        0.879015        0.244622 
        3.48724        0.870524        0.241795 
        3.50292        0.865879         0.23902 
        3.51859        0.862334        0.236289 
        3.53431        0.853374        0.233593 
        3.55007        0.847615        0.230931 
        3.56577        0.842374        0.228321 
        3.58146        0.839232        0.225753 
        3.59719        0.829612        0.223217 
        3.61292        0.826829        0.220721 
        3.62859         0.82008        0.218273 
        3.64429        0.811091        0.215857 
        3.66003        0.807448        0.213469 
        3.67578        0.802668        0.211119 
        3.69146        0.798764        0.208812 
        3.70712         0.79061        0.206544 
        3.72284        0.786651        0.204301 
        3.73853         0.78208        0.202095 
        3.75422        0.777378        0.199921 
        3.76993        0.772512        0.197776 
        3.78564        0.767383        0.195664 
        3.80137        0.762932        0.193578 
        3.81707        0.757978        0.191528 
        3.83279        0.750845        0.189505 
        3.84853         0.74778        0.187508 
        3.86424        0.740103        0.185543 
        3.87992        0.740752        0.183609 
        3.89561        0.732347        0.181703 
        3.91134        0.729608         0.17982 
        3.92704        0.724793        0.177965 
        3.94273        0.720008        0.176138 
        3.95845        0.715657        0.174333 
        3.97418        0.710075        0.172553 
        3.98988        0.706154          0.1708 
        4.00554        0.700032        0.169076 
        4.02125        0.695017        0.167371 
        4.03698        0.690101        0.165686 
        4.05268        0.685205        0.164029 
        4.06839        0.678032        0.162392 
         4.0841        0.674473        0.160779 
        4.09983        0.668595        0.159184 
        4.11555        0.665819        0.157612 
        4.13124        0.658896        0.156066 
        4.14693        0.653856        0.154538 
        4.16266        0.649085        0.153028 
        4.17839        0.646174        0.151538 
        4.19408        0.642434        0.150072 
        4.20977        0.635536        0.148624 
        4.22551        0.633209        0.147191 
        4.24123         0.62893        0.145779 
        4.25691        0.623451        0.144389 
        4.27259         0.62165        0.143017 
        4.28831        0.616687        0.141659 
        4.30404        0.612074        0.140318 
        4.31974        0.608607        0.138997 
        4.33543        0.603948        0.137694 
        4.35116        0.601552        0.136404 
        4.36688        0.598326        0.135131 
        4.38255        0.593697        0.133879 
        4.39825        0.591375         0.13264 
        4.41398         0.58855        0.131414 
         4.4297        0.584108        0.130204 
        4.44541        0.581519        0.129011 
        4.46111        0.580075        0.127832 
        4.47683        0.576635        0.126668 
        4.49251        0.574033         0.12552 
        4.50819         0.57066        0.124387 
         4.5239        0.567642        0.123266 
        4.53962        0.566354        0.122158 
        4.55535        0.561327        0.121062 
        4.57106         0.56126        0.119981 
        4.58678        0.557022        0.118914 
         4.6025        0.556077        0.117858 
        4.61821        0.553211        0.116816 
        4.63391        0.550783        0.115788 
         4.6496        0.547534        0.114772 
        4.66532         0.54767        0.113767 
        4.68103        0.542975        0.112774 
        4.69673        0.542224        0.111794 
        4.71241        0.540615        0.110827 
        4.72811        0.538694        0.109869 
        4.74384        0.535583        0.108921 
        4.75955        0.534105        0.107986 
        4.77525        0.532549        0.107063 
        4.79096        0.530545        0.106148 
        4.80669        0.530111        0.105244 
         4.8224        0.528778        0.104352 
        4.83809        0.527015        0.103471 
        4.85379        0.525702        0.102599 
         4.8695         0.52492        0.101737 
        4.88521        0.520606        0.100885 
        4.90093        0.521707        0.100042 
        4.91663        0.521422       0.0992096 
        4.93234        0.518333       0.0983858 
        4.94807        0.518545       0.0975708 
        4.96377        0.515572       0.0967664 
        4.97943        0.516712       0.0959728 
        4.99514        0.515168       0.0951859 
        5.01086        0.513733       0.0944073 
        5.02654        0.514346       0.0936392 
        5.04227         0.51252       0.0928774 
          5.058        0.512136       0.0921236 
        5.07371        0.511207       0.0913797 
        5.08942         0.51065       0.0906437 
        5.10513        0.509413       0.0899158 
        5.12084        0.509048       0.0891954 
        5.13656        0.510418       0.0884831 
        5.15225        0.507516       0.0877796 
        5.16796        0.508493       0.0870826 
        5.18369        0.507226       0.0863925 
         5.1994         0.50749       0.0857111 
        5.21509        0.507255       0.0850376 
        5.23079        0.506412       0.0843705 
        5.24649        0.506899        0.083711 
        5.26217        0.505303        0.083059 
        5.27788        0.507497        0.082413 
        5.29359         0.50613       0.0817736 
        5.30933        0.505119       0.0811401 
        5.32504        0.507249       0.0805143 
        5.34073        0.506368       0.0798958 
        5.35646        0.505019       0.0792824 
        5.37218        0.506119       0.0786754 
        5.38789        0.506971       0.0780756 
        5.40357         0.50708       0.0774827 
        5.41929        0.506168       0.0768947 
        5.43502        0.506671       0.0763126 
         5.4507        0.507636       0.0757379 
        5.46639        0.507358        0.075169 
        5.48212        0.507269       0.0746046 
        5.49786        0.507536       0.0740452 
        5.51353        0.508331       0.0734943 
        5.52921        0.507293       0.0729485 
        5.54495        0.508506       0.0724065 
        5.56066        0.508996       0.0718706 
        5.57637        0.510424       0.0713402 
        5.59207        0.510117       0.0708155 
        5.60778        0.510848       0.0702959 
        5.62346        0.511352       0.0697822 
        5.63916        0.511401       0.0692731 
        5.65487         0.51195       0.0687688 
         5.6706        0.512822       0.0682688 
        5.68633        0.514386       0.0677737 
        5.70203        0.514551       0.0672844 
        5.71773        0.515239          0.0668 
        5.73344        0.515103       0.0663201 
        5.74916        0.514942       0.0658444 
        5.76486        0.517234        0.065374 
        5.78054        0.515837       0.0649089 
        5.79626        0.517406        0.064447 
          5.812        0.518015       0.0639891 
         5.8277        0.519593        0.063537 
        5.84339         0.51942       0.0630891 
        5.85911        0.520606       0.0626448 
        5.87484        0.520705       0.0622047 
        5.89053        0.522368       0.0617697 
        5.90623        0.523134       0.0613387 
        5.92195        0.523275       0.0609109 
        5.93767        0.523014       0.0604875 
        5.95336        0.524828       0.0600688 
        5.96905        0.526429       0.0596541 
        5.98476        0.525698       0.0592428 
        6.00048        0.526704       0.0588352 
        6.01617        0.528715       0.0584319 
        6.03185        0.528322       0.0580329 
        6.04756        0.529964       0.0576366 
        6.06331        0.530581       0.0572432 
        6.07903        0.530814       0.0568542 
        6.09473        0.530928       0.0564692 
        6.11044        0.532465       0.0560874 
        6.12616        0.533713       0.0557091 
        6.14186        0.532633       0.0553347 
        6.15755        0.534318       0.0549637 
        6.17326        0.535826       0.0545958 
        6.18898        0.536212       0.0542311 
        6.20467        0.536833       0.0538703 
        6.22036        0.537248       0.0535129 
         6.2361        0.537878       0.0531576 
         6.2518        0.540008       0.0528062 
        6.26748        0.538333       0.0524587 
        6.28319        0.540311       0.0521134 
        6.29893        0.542226       0.0517708 
        6.31463         0.54141       0.0514319 
        6.33033        0.542838       0.0510961 
        6.34604        0.542456        0.050763 
        6.36177        0.543441       0.0504326 
        6.37747        0.544419       0.0501057 
