# k  (h/Mpc)    Pcb(k)  (Mpc/h)^3    Pcb_linear(k) (Mpc/h)^3   ShotnoiseSubtracted = true
      0.0200456         11992.7         12197.8 
      0.0350414         7969.81         8195.58 
      0.0492313         5495.88         5511.76 
      0.0637834         4560.05          4420.6 
      0.0800726         3647.31         3570.81 
       0.096163         2502.06         2540.05 
       0.111083         1892.59         1899.39 
       0.126058         1700.26         1640.38 
       0.142273         1511.37         1445.45 
       0.158546         1264.42         1148.41 
        0.17375         975.911         913.946 
       0.188953         922.235         800.412 
       0.204907         874.586         730.343 
       0.220756         747.159         632.217 
        0.23588         648.659         532.222 
         0.2514         556.088         465.333 
       0.267535         539.256          425.37 
       0.283568          490.26          384.11 
       0.299022         455.025         338.179 
       0.314451         421.932          300.47 
       0.330372         387.462         274.243 
       0.346141         349.091         252.495 
       0.361624         336.066         229.587 
       0.377134         310.554         207.906 
       0.392932         291.106         190.469 
       0.408854         278.226         176.285 
       0.424564         264.064         162.974 
       0.440253         253.943         150.063 
       0.455999         237.728          138.65 
       0.471626         221.534         129.097 
        0.48727         213.089          120.51 
       0.502856         205.568         112.378 
       0.518488         202.329         104.841 
       0.534347          190.72         98.0558 
       0.550082         178.055         92.0349 
       0.565732         173.618         86.4901 
       0.581496         164.767         81.2761 
       0.597222         160.161         76.5084 
       0.612804         154.137         72.2124 
       0.628434         148.532         68.2404 
       0.644267         143.384         64.4979 
       0.660051         141.544         61.0263 
       0.675724         137.405         57.8437 
       0.691403         133.175         54.8979 
       0.707174         127.607         52.1404 
       0.722871         125.947         49.5808 
        0.73838         123.153         47.2181 
       0.754018         118.857         44.9898 
       0.769845         115.466         42.8794 
        0.78569         113.167         40.9011 
       0.801365          109.48         39.0658 
       0.817031         105.727         37.3435 
       0.832809         104.414         35.7136 
       0.848511         100.941         34.1879 
       0.864097         99.0678         32.7617 
       0.879701         96.9111         31.4154 
       0.895507         94.5137         30.1288 
       0.911279         92.5577         28.9169 
        0.92691         91.3244         27.7816 
       0.942635         88.5976         26.7009 
       0.958396         88.2968         25.6754 
       0.974128         85.7808         24.7055 
       0.989692         83.6783         23.7952 
        1.00528          81.689         22.9293 
        1.02113         80.9855         22.0929 
        1.03692         78.0764         21.3012 
        1.05264         77.7846         20.5518 
        1.06832         75.5995         19.8395 
        1.08405         74.3558          19.159 
        1.09979         74.0306         18.5099 
        1.11537         71.5199         17.8972 
        1.13105          71.375         17.3085 
        1.14679         70.1561         16.7439 
        1.16256         68.9912         16.2033 
        1.17828         67.5228         15.6883 
        1.19395         66.2748         15.1973 
         1.2097         64.8083         14.7247 
        1.22537         64.9175         14.2745 
          1.241         63.3686         13.8444 
        1.25666         61.9443         13.4308 
        1.27241           61.03         13.0322 
        1.28819         60.0217          12.649 
        1.30392         59.3096         12.2823 
        1.31957         58.6244         11.9317 
        1.33529         57.3104         11.5934 
        1.35108         56.8815         11.2669 
        1.36674         56.3063         10.9552 
         1.3824         54.9648         10.6556 
        1.39811         54.3248         10.3662 
        1.41389         53.6414         10.0863 
        1.42964         52.9131         9.81725 
        1.44531         51.8443         9.55926 
        1.46101         51.0619         9.30996 
        1.47667         51.0363         9.07026 
        1.49229         50.0865          8.8396 
        1.50793         49.7553         8.61668 
        1.52367          48.616         8.39997 
        1.53953         48.0184         8.18924 
        1.55526         47.6058         7.98739 
        1.57092          47.265         7.79315 
        1.58662         46.3077         7.60487 
        1.60235          45.922         7.42243 
        1.61809         45.2625         7.24586 
        1.63369         44.5401         7.07657 
        1.64941         44.2167         6.91145 
        1.66519         43.1822         6.75099 
        1.68085         43.0556         6.59673 
        1.69652         42.2549         6.44723 
        1.71228         41.9537          6.3015 
        1.72806         41.5583         6.16013 
        1.74368         40.8522          6.0245 
        1.75933         40.4597         5.89266 
        1.77505          39.957         5.76413 
        1.79081         39.5581         5.63919 
         1.8065         39.1132         5.51846 
        1.82218         38.6195         5.40137 
        1.83797         38.0499         5.28685 
        1.85367         37.6868         5.17627 
        1.86928         37.0564          5.0695 
        1.88497         36.9944         4.96514 
        1.90073         36.4009         4.86332 
        1.91647         36.0121         4.76444 
        1.93218         35.7201          4.6685 
        1.94787         35.2327         4.57533 
        1.96363         34.8519         4.48432 
        1.97935         34.3377         4.39596 
        1.99499         34.0667         4.31047 
        2.01064         33.6928         4.22711 
         2.0264         33.0472         4.14543 
        2.04216         32.9625         4.06594 
        2.05781         32.4306         3.98902 
        2.07353         32.1339          3.9138 
        2.08928         31.9307         3.84035 
        2.10499         31.4092         3.76897 
        2.12065         31.0194         3.69962 
        2.13633         30.8273         3.63193 
        2.15211         30.5527          3.5655 
        2.16785         30.0192          3.5009 
        2.18349         29.7452          3.4383 
        2.19916         29.5092          3.3771 
        2.21489         29.1932         3.31717 
        2.23063         28.7714         3.25864 
         2.2463         28.4548         3.20179 
        2.26194         28.1292         3.14642 
        2.27765         27.8862         3.09208 
        2.29341         27.5854         3.03887 
        2.30914         27.3159         2.98701 
        2.32486         26.9092         2.93638 
        2.34061         26.7604         2.88684 
        2.35635         26.4759         2.83848 
        2.37203           26.21         2.79139 
        2.38768         25.9187         2.74546 
        2.40339         25.7332         2.70039 
        2.41914         25.4796         2.65622 
        2.43483         25.0892         2.61319 
         2.4505         24.9132         2.57118 
        2.46622         24.6041         2.52994 
        2.48195         24.4428          2.4896 
        2.49759         24.1783         2.45035 
        2.51328         23.8311         2.41184 
        2.52906         23.6807         2.37391 
        2.54479         23.3674         2.33693 
        2.56049         23.1681         2.30081 
        2.57618         22.9174         2.26547 
        2.59189         22.7648         2.23082 
        2.60758         22.5745         2.19695 
        2.62325         22.2535         2.16381 
        2.63898         22.1082         2.13124 
        2.65468         21.8388         2.09941 
        2.67044         21.6982         2.06808 
        2.68618         21.4204         2.03746 
        2.70184         21.1721         2.00758 
        2.71755         21.0596         1.97823 
        2.73329         20.8272         1.94941 
        2.74897          20.567         1.92125 
        2.76462         20.3639         1.89371 
        2.78034         20.2856          1.8666 
        2.79607         20.1332         1.83998 
        2.81179         19.8645         1.81391 
        2.82749         19.6781         1.78837 
        2.84321          19.425         1.76329 
        2.85893         19.1795         1.73869 
        2.87462         19.1094         1.71461 
        2.89033         18.9835         1.69095 
        2.90605         18.7399         1.66772 
        2.92176         18.5883         1.64494 
        2.93747         18.4283         1.62258 
        2.95318         18.2057         1.60064 
        2.96891         18.0656         1.57909 
        2.98456         17.8821         1.55803 
        3.00023         17.6711         1.53732 
        3.01596         17.5071         1.51692 
        3.03164         17.3769         1.49695 
        3.04738         17.2152         1.47728 
         3.0631         17.0747         1.45796 
        3.07883         16.9651         1.43899 
        3.09456         16.7086         1.42035 
        3.11026         16.5861         1.40207 
        3.12596         16.4299         1.38412 
        3.14163         16.3272         1.36651 
        3.15734         16.1816         1.34917 
        3.17308         15.9843         1.33209 
        3.18879         15.8867         1.31535 
        3.20447         15.7174         1.29892 
         3.2202         15.5642         1.28272 
         3.2359         15.3957         1.26682 
        3.25157          15.323         1.25122 
        3.26729         15.1846         1.23584 
        3.28304         15.0327         1.22069 
        3.29877         14.8738         1.20581 
        3.31446         14.6924          1.1912 
        3.33014         14.6016         1.17685 
        3.34585         14.4546         1.16272 
        3.36158         14.3344         1.14879 
        3.37727         14.1835         1.13513 
        3.39294         14.0459         1.12171 
        3.40867         13.9152         1.10845 
        3.42439         13.8366         1.09542 
        3.44008         13.7137         1.08261 
        3.45578         13.5478         1.07001 
        3.47153         13.4423         1.05757 
        3.48724         13.3164         1.04535 
        3.50292         13.2709         1.03335 
        3.51859         13.0669         1.02155 
        3.53431         12.9721         1.00989 
        3.55007         12.8802        0.998382 
        3.56577         12.7411        0.987098 
        3.58146         12.6545        0.975993 
        3.59719         12.5038        0.965032 
        3.61292          12.428        0.954242 
        3.62859          12.295        0.943657 
        3.64429          12.217        0.933211 
        3.66003         12.1052         0.92289 
        3.67578         12.0279        0.912728 
        3.69146         11.9214        0.902756 
        3.70712         11.8023         0.89295 
        3.72284         11.7194        0.883253 
        3.73853         11.5988        0.873716 
        3.75422         11.4398        0.864315 
        3.76993         11.3892        0.855043 
        3.78564          11.271         0.84591 
        3.80137         11.1987        0.836895 
        3.81707         11.0927        0.828029 
        3.83279         11.0346        0.819284 
        3.84853         10.8976         0.81065 
        3.86424         10.7938        0.802157 
        3.87992         10.7013        0.793796 
        3.89561         10.6086        0.785554 
        3.91134         10.5333        0.777412 
        3.92704         10.4213        0.769393 
        3.94273         10.3496        0.761495 
        3.95845         10.2785        0.753692 
        3.97418         10.1763        0.745997 
        3.98988         10.0891        0.738418 
        4.00554         10.0358        0.730965 
        4.02125         9.95665        0.723593 
        4.03698         9.81857         0.71631 
        4.05268         9.74479        0.709143 
        4.06839          9.6962        0.702068 
         4.0841         9.60057        0.695092 
        4.09983         9.48889          0.6882 
        4.11555         9.45318        0.681403 
        4.13124         9.35695        0.674717 
        4.14693          9.2964        0.668113 
        4.16266         9.18794        0.661583 
        4.17839         9.12087        0.655143 
        4.19408         9.04761        0.648802 
        4.20977         8.98606        0.642543 
        4.22551         8.88846         0.63635 
        4.24123         8.83461        0.630245 
        4.25691         8.75397        0.624236 
        4.27259         8.69646        0.618303 
        4.28831          8.6162        0.612434 
        4.30404         8.54405        0.606636 
        4.31974         8.48168        0.600925 
        4.33543         8.41718         0.59529 
        4.35116         8.35087        0.589713 
        4.36688         8.28609         0.58421 
        4.38255         8.22732        0.578796 
        4.39825          8.1455        0.573439 
        4.41398         8.09415        0.568139 
         4.4297         8.00355        0.562911 
        4.44541         7.95601        0.557749 
        4.46111         7.90443        0.552656 
        4.47683         7.82849        0.547622 
        4.49251         7.76618         0.54266 
        4.50819         7.71793        0.537761 
         4.5239         7.64562        0.532915 
        4.53962         7.58794        0.528122 
        4.55535         7.52438        0.523386 
        4.57106         7.44712        0.518714 
        4.58678         7.41431        0.514097 
         4.6025         7.34186        0.509536 
        4.61821          7.2767         0.50503 
        4.63391         7.22525        0.500584 
         4.6496         7.19698        0.496193 
        4.66532         7.12385        0.491847 
        4.68103         7.07098        0.487556 
        4.69673         7.02618        0.483319 
        4.71241         6.95198        0.479136 
        4.72811         6.89096        0.474996 
        4.74384         6.84876        0.470898 
        4.75955         6.80514        0.466856 
        4.77525         6.76458        0.462862 
        4.79096         6.68683         0.45891 
        4.80669         6.64498        0.455002 
         4.8224         6.59552        0.451144 
        4.83809         6.53596        0.447334 
        4.85379          6.4863        0.443565 
         4.8695         6.44827        0.439837 
        4.88521         6.40022        0.436153 
        4.90093         6.33407         0.43251 
        4.91663         6.30335        0.428912 
        4.93234         6.23798         0.42535 
        4.94807          6.2088        0.421827 
        4.96377         6.14933        0.418349 
        4.97943         6.12569        0.414918 
        4.99514          6.0619        0.411516 
        5.01086         6.02718         0.40815 
        5.02654         5.96909        0.404829 
        5.04227         5.94133        0.401536 
          5.058         5.88324        0.398277 
        5.07371         5.85607        0.395061 
        5.08942         5.80327        0.391879 
        5.10513         5.75313        0.388732 
        5.12084          5.7211        0.385618 
        5.13656         5.68141        0.382538 
        5.15225         5.63958        0.379496 
        5.16796         5.59389        0.376483 
        5.18369         5.54889          0.3735 
         5.1994         5.51381        0.370554 
        5.21509         5.48955        0.367642 
        5.23079         5.42514        0.364758 
        5.24649         5.38835        0.361907 
        5.26217         5.35303        0.359088 
        5.27788         5.32585        0.356295 
        5.29359         5.28731        0.353531 
        5.30933         5.24902        0.350792 
        5.32504         5.21327        0.348087 
        5.34073         5.17869        0.345412 
        5.35646         5.14492        0.342761 
        5.37218         5.11076        0.340136 
        5.38789         5.06802        0.337543 
        5.40357         5.02994         0.33498 
        5.41929         4.99656        0.332438 
        5.43502         4.96425        0.329921 
         5.4507         4.93824        0.327437 
        5.46639         4.90093        0.324977 
        5.48212         4.86547        0.322537 
        5.49786         4.82484        0.320119 
        5.51353         4.78434        0.317737 
        5.52921         4.76213        0.315377 
        5.54495         4.73276        0.313034 
        5.56066         4.70766        0.310717 
        5.57637         4.66503        0.308424 
        5.59207         4.63159        0.306156 
        5.60778         4.60012        0.303909 
        5.62346         4.56855        0.301688 
        5.63916         4.54015        0.299487 
        5.65487         4.50532        0.297307 
         5.6706          4.4825        0.295146 
        5.68633         4.44988        0.293005 
        5.70203         4.42266         0.29089 
        5.71773         4.38802        0.288796 
        5.73344         4.36198        0.286721 
        5.74916         4.33208        0.284664 
        5.76486         4.30464        0.282631 
        5.78054         4.28302         0.28062 
        5.79626         4.24742        0.278623 
          5.812         4.22502        0.276643 
         5.8277         4.19858        0.274689 
        5.84339         4.16434        0.272753 
        5.85911         4.14219        0.270831 
        5.87484         4.11788        0.268929 
        5.89053         4.09255        0.267048 
        5.90623         4.06612        0.265185 
        5.92195         4.02827        0.263336 
        5.93767         4.00648        0.261505 
        5.95336          3.9863        0.259695 
        5.96905         3.96168        0.257902 
        5.98476         3.93241        0.256124 
        6.00048         3.91442        0.254361 
        6.01617         3.88148        0.252618 
        6.03185         3.85421        0.250893 
        6.04756          3.8328         0.24918 
        6.06331         3.80739        0.247479 
        6.07903         3.78507        0.245797 
        6.09473         3.76472        0.244132 
        6.11044         3.73891        0.242482 
        6.12616         3.70552        0.240846 
        6.14186         3.68602        0.239228 
        6.15755         3.66492        0.237624 
        6.17326         3.65308        0.236033 
        6.18898         3.62129        0.234457 
        6.20467         3.59626        0.232897 
        6.22036         3.57797        0.231351 
         6.2361         3.55252        0.229816 
         6.2518         3.53084        0.228296 
        6.26748          3.5164        0.226794 
        6.28319         3.48417        0.225301 
        6.29893         3.46396         0.22382 
        6.31463         3.44336        0.222355 
        6.33033            3.43        0.220903 
        6.34604         3.40853        0.219463 
        6.36177         3.38391        0.218034 
        6.37747         3.36531        0.216621 
