# k  (h/Mpc)    Pcb(k)  (Mpc/h)^3    Pcb_linear(k) (Mpc/h)^3   ShotnoiseSubtracted = true
      0.0200456         3261.98         3301.47 
      0.0350414         2262.62         2218.22 
      0.0492313         1497.07         1491.82 
      0.0637834         1182.93         1196.48 
      0.0800726         945.371         966.479 
       0.096163         704.504         687.491 
       0.111083         534.162         514.091 
       0.126058         444.617         443.988 
       0.142273          389.09         391.226 
       0.158546          316.26         310.829 
        0.17375         258.642          247.37 
       0.188953         227.258          216.64 
       0.204907         198.107         197.675 
       0.220756         177.355         171.116 
        0.23588         151.394         144.052 
         0.2514         132.809         125.947 
       0.267535         124.019         115.131 
       0.283568         110.135         103.964 
       0.299022          100.28          91.532 
       0.314451         93.0905         81.3255 
       0.330372         82.3376         74.2268 
       0.346141         75.7228         68.3407 
       0.361624         69.6962         62.1401 
       0.377134         63.1532         56.2719 
       0.392932         60.5655         51.5526 
       0.408854         55.6336         47.7136 
       0.424564         52.9404         44.1108 
       0.440253         48.0273         40.6162 
       0.455999         43.6599         37.5271 
       0.471626         41.4066         34.9415 
        0.48727         40.0592         32.6174 
       0.502856         37.2146         30.4163 
       0.518488         34.8334         28.3764 
       0.534347         32.6909         26.5399 
       0.550082         31.3797         24.9103 
       0.565732         30.1092         23.4095 
       0.581496         28.0677         21.9983 
       0.597222         26.6087         20.7078 
       0.612804         25.2403         19.5451 
       0.628434         24.7439           18.47 
       0.644267         23.3328         17.4571 
       0.660051         22.1259         16.5174 
       0.675724         21.0653          15.656 
       0.691403         20.5967         14.8587 
       0.707174         19.6644         14.1124 
       0.722871         19.0047         13.4196 
        0.73838         17.9794         12.7801 
       0.754018         16.9717          12.177 
       0.769845         16.5812         11.6058 
        0.78569         16.0187         11.0703 
       0.801365         15.3815         10.5736 
       0.817031         14.7477         10.1074 
       0.832809         14.3022         9.66628 
       0.848511          13.808         9.25334 
       0.864097         13.3317         8.86731 
       0.879701          13.092         8.50292 
       0.895507         12.5663          8.1547 
       0.911279          12.021         7.82668 
        0.92691         11.7741          7.5194 
       0.942635         11.4449          7.2269 
       0.958396         11.0505         6.94932 
       0.974128         10.7485         6.68681 
       0.989692         10.2309         6.44042 
        1.00528          10.145         6.20606 
        1.02113         9.78288         5.97968 
        1.03692         9.55332         5.76539 
        1.05264         9.31395         5.56257 
        1.06832         9.10063         5.36978 
        1.08405         8.83012          5.1856 
        1.09979         8.59575         5.00991 
        1.11537         8.35218         4.84407 
        1.13105         8.19689         4.68473 
        1.14679         8.00202         4.53192 
        1.16256         7.81304          4.3856 
        1.17828         7.62921          4.2462 
        1.19395         7.46548         4.11331 
         1.2097         7.22593         3.98541 
        1.22537         7.08573         3.86355 
          1.241         6.88021         3.74713 
        1.25666          6.8332          3.6352 
        1.27241         6.68464          3.5273 
        1.28819         6.40194         3.42359 
        1.30392         6.37215         3.32433 
        1.31957         6.18731         3.22943 
        1.33529         6.09541         3.13788 
        1.35108         5.96103         3.04951 
        1.36674         5.80475         2.96516 
         1.3824          5.7235         2.88406 
        1.39811         5.61722         2.80572 
        1.41389         5.48499         2.72997 
        1.42964         5.38946         2.65715 
        1.44531         5.28054         2.58732 
        1.46101         5.22578         2.51984 
        1.47667         5.10457         2.45496 
        1.49229          4.9528         2.39254 
        1.50793         4.89632          2.3322 
        1.52367         4.79796         2.27355 
        1.53953         4.71678         2.21651 
        1.55526         4.65082         2.16188 
        1.57092         4.56338          2.1093 
        1.58662         4.47751         2.05834 
        1.60235         4.42292         2.00896 
        1.61809         4.34552         1.96117 
        1.63369         4.25649         1.91535 
        1.64941         4.17418         1.87066 
        1.66519         4.13182         1.82723 
        1.68085         4.04658         1.78548 
        1.69652         3.99565         1.74501 
        1.71228         3.95797         1.70557 
        1.72806         3.87644         1.66731 
        1.74368            3.82          1.6306 
        1.75933         3.75713         1.59491 
        1.77505         3.68302         1.56012 
        1.79081         3.64295         1.52631 
         1.8065         3.60653         1.49363 
        1.82218         3.54655         1.46194 
        1.83797         3.47086         1.43094 
        1.85367          3.4284         1.40101 
        1.86928         3.39053         1.37211 
        1.88497         3.33011         1.34387 
        1.90073         3.28671         1.31631 
        1.91647         3.22317         1.28955 
        1.93218         3.19263         1.26358 
        1.94787         3.15451         1.23836 
        1.96363         3.11292         1.21373 
        1.97935         3.07722         1.18981 
        1.99499         3.03647         1.16668 
        2.01064         2.99232         1.14411 
         2.0264         2.95797         1.12201 
        2.04216         2.91184         1.10049 
        2.05781         2.87842         1.07967 
        2.07353         2.84665         1.05931 
        2.08928         2.79925         1.03943 
        2.10499         2.76028         1.02011 
        2.12065         2.75841         1.00134 
        2.13633         2.71715        0.983023 
        2.15211         2.66353        0.965041 
        2.16785          2.6359        0.947558 
        2.18349         2.61399        0.930615 
        2.19916         2.58055        0.914048 
        2.21489         2.55678        0.897827 
        2.23063         2.51803        0.881988 
         2.2463         2.48381        0.866599 
        2.26194          2.4523        0.851614 
        2.27765         2.40965        0.836904 
        2.29341         2.38829        0.822502 
        2.30914         2.36509        0.808467 
        2.32486          2.3466        0.794765 
        2.34061         2.32298        0.781356 
        2.35635         2.29279        0.768267 
        2.37203         2.28347        0.755521 
        2.38768         2.25865        0.743089 
        2.40339         2.21311         0.73089 
        2.41914         2.19772        0.718935 
        2.43483         2.16864        0.707289 
         2.4505         2.14632        0.695918 
        2.46622         2.12773        0.684757 
        2.48195         2.11265        0.673838 
        2.49759          2.0805        0.663215 
        2.51328         2.06559        0.652791 
        2.52906         2.04105        0.642525 
        2.54479         2.02176        0.632516 
        2.56049         2.00131        0.622738 
        2.57618         1.98004        0.613175 
        2.59189          1.9726        0.603796 
        2.60758         1.95285        0.594628 
        2.62325         1.91314         0.58566 
        2.63898         1.90106        0.576844 
        2.65468         1.88034        0.568227 
        2.67044         1.87402        0.559749 
        2.68618         1.85707        0.551462 
        2.70184         1.83769        0.543375 
        2.71755         1.81316        0.535429 
        2.73329         1.79714        0.527628 
        2.74897         1.78092        0.520008 
        2.76462         1.76468        0.512554 
        2.78034         1.75279        0.505214 
        2.79607         1.73377         0.49801 
        2.81179         1.71893        0.490954 
        2.82749          1.6986        0.484041 
        2.84321         1.68741        0.477253 
        2.85893         1.66684        0.470596 
        2.87462         1.66091        0.464077 
        2.89033         1.64769        0.457675 
        2.90605         1.63084        0.451387 
        2.92176         1.61343         0.44522 
        2.93747         1.60278         0.43917 
        2.95318          1.5892        0.433231 
        2.96891         1.57712        0.427399 
        2.98456         1.56335        0.421699 
        3.00023         1.55224        0.416093 
        3.01596         1.53371        0.410572 
        3.03164          1.5235        0.405166 
        3.04738         1.51428        0.399841 
         3.0631         1.50107        0.394613 
        3.07883         1.48918        0.389478 
        3.09456         1.47277        0.384434 
        3.11026         1.46367        0.379487 
        3.12596         1.45081        0.374627 
        3.14163         1.44377        0.369862 
        3.15734         1.42812        0.365169 
        3.17308         1.41931        0.360545 
        3.18879         1.41219        0.356014 
        3.20447         1.39709        0.351567 
         3.2202         1.38793        0.347181 
         3.2359         1.38006        0.342878 
        3.25157         1.36484        0.338657 
        3.26729          1.3532        0.334494 
        3.28304         1.34579        0.330392 
        3.29877         1.33165        0.326364 
        3.31446         1.32373        0.322412 
        3.33014         1.31843        0.318528 
        3.34585         1.30491        0.314702 
        3.36158         1.29356        0.310933 
        3.37727         1.29085        0.307236 
        3.39294         1.27927        0.303603 
        3.40867         1.27252        0.300015 
        3.42439         1.26022        0.296487 
        3.44008         1.24952        0.293022 
        3.45578         1.24243        0.289609 
        3.47153         1.23605        0.286243 
        3.48724         1.22438        0.282936 
        3.50292         1.21543        0.279688 
        3.51859          1.2091        0.276493 
        3.53431         1.19985        0.273337 
        3.55007          1.1935        0.270223 
        3.56577         1.18648        0.267169 
        3.58146         1.17761        0.264163 
        3.59719         1.17074        0.261197 
        3.61292         1.16269        0.258276 
        3.62859         1.15459        0.255411 
        3.64429         1.14936        0.252584 
        3.66003         1.13993         0.24979 
        3.67578         1.13303         0.24704 
        3.69146         1.12268        0.244341 
        3.70712         1.11867        0.241687 
        3.72284         1.10815        0.239062 
        3.73853         1.10044        0.236481 
        3.75422         1.09725        0.233936 
        3.76993         1.08873        0.231427 
        3.78564         1.07806        0.228955 
        3.80137         1.07406        0.226515 
        3.81707         1.06479        0.224115 
        3.83279         1.06554        0.221748 
        3.84853         1.05505        0.219411 
        3.86424         1.04619        0.217112 
        3.87992         1.04218         0.21485 
        3.89561         1.03453        0.212619 
        3.91134          1.0271        0.210415 
        3.92704          1.0228        0.208245 
        3.94273         1.01681        0.206107 
        3.95845         1.00825        0.203995 
        3.97418         1.00134        0.201912 
        3.98988        0.997701        0.199861 
        4.00554        0.990955        0.197844 
        4.02125        0.983775        0.195848 
        4.03698        0.978395        0.193877 
        4.05268        0.970113        0.191937 
        4.06839        0.962299        0.190023 
         4.0841        0.957052        0.188134 
        4.09983        0.951029        0.186269 
        4.11555        0.942616        0.184429 
        4.13124        0.937096        0.182619 
        4.14693        0.929955        0.180832 
        4.16266        0.925235        0.179065 
        4.17839        0.918766        0.177322 
        4.19408         0.91145        0.175605 
        4.20977        0.908176        0.173911 
        4.22551         0.90172        0.172235 
        4.24123        0.895584        0.170583 
        4.25691        0.889445        0.168956 
        4.27259         0.88313         0.16735 
        4.28831        0.879952        0.165762 
        4.30404        0.872265        0.164193 
        4.31974        0.867469        0.162647 
        4.33543        0.862221        0.161122 
        4.35116        0.856732        0.159612 
        4.36688          0.8531        0.158123 
        4.38255        0.849512        0.156658 
        4.39825        0.842961        0.155208 
        4.41398        0.839365        0.153773 
         4.4297        0.835913        0.152358 
        4.44541        0.827979        0.150961 
        4.46111        0.824746        0.149582 
        4.47683        0.820837         0.14822 
        4.49251        0.815322        0.146877 
        4.50819        0.813578        0.145551 
         4.5239        0.807869        0.144239 
        4.53962        0.803108        0.142942 
        4.55535        0.801767         0.14166 
        4.57106        0.795925        0.140396 
        4.58678        0.793982        0.139146 
         4.6025        0.790577        0.137911 
        4.61821        0.788174        0.136692 
        4.63391        0.785175        0.135489 
         4.6496        0.777292          0.1343 
        4.66532        0.777039        0.133124 
        4.68103        0.772995        0.131962 
        4.69673        0.770945        0.130815 
        4.71241        0.766099        0.129683 
        4.72811        0.765046        0.128563 
        4.74384        0.762316        0.127454 
        4.75955        0.759509         0.12636 
        4.77525        0.754775        0.125279 
        4.79096         0.75155        0.124209 
        4.80669        0.749061        0.123151 
         4.8224        0.747387        0.122107 
        4.83809        0.745648        0.121076 
        4.85379        0.743174        0.120056 
         4.8695        0.738907        0.119047 
        4.88521         0.73702         0.11805 
        4.90093        0.736659        0.117064 
        4.91663        0.733114         0.11609 
        4.93234        0.730455        0.115126 
        4.94807         0.72693        0.114172 
        4.96377        0.725677        0.113231 
        4.97943        0.725717        0.112302 
        4.99514        0.723666        0.111381 
        5.01086        0.720337         0.11047 
        5.02654         0.71738        0.109571 
        5.04227         0.71523         0.10868 
          5.058        0.716235        0.107798 
        5.07371        0.713966        0.106927 
        5.08942        0.711105        0.106066 
        5.10513        0.710682        0.105215 
        5.12084        0.707575        0.104372 
        5.13656        0.706501        0.103538 
        5.15225        0.703589        0.102715 
        5.16796        0.702917        0.101899 
        5.18369        0.702318        0.101092 
         5.1994         0.70048        0.100294 
        5.21509        0.697301       0.0995064 
        5.23079        0.698271       0.0987258 
        5.24649        0.696575       0.0979541 
        5.26217        0.695556       0.0971911 
        5.27788        0.692629       0.0964351 
        5.29359        0.693572        0.095687 
        5.30933        0.692329       0.0949457 
        5.32504        0.690874       0.0942134 
        5.34073        0.690617       0.0934897 
        5.35646        0.687349        0.092772 
        5.37218         0.68738       0.0920616 
        5.38789        0.687961       0.0913598 
        5.40357        0.685696       0.0906661 
        5.41929        0.686121       0.0899779 
        5.43502        0.683717       0.0892968 
         5.4507        0.681249       0.0886243 
        5.46639        0.683174       0.0879586 
        5.48212        0.680832       0.0872982 
        5.49786        0.680869       0.0866437 
        5.51353        0.681956       0.0859991 
        5.52921        0.676911       0.0853603 
        5.54495        0.678688       0.0847261 
        5.56066        0.678897        0.084099 
        5.57637        0.679074       0.0834784 
        5.59207        0.676802       0.0828644 
        5.60778        0.677532       0.0822564 
        5.62346        0.677594       0.0816553 
        5.63916        0.677499       0.0810596 
        5.65487        0.676238       0.0804694 
         5.6706        0.673238       0.0798845 
        5.68633        0.674889        0.079305 
        5.70203         0.67332       0.0787325 
        5.71773          0.6733       0.0781657 
        5.73344        0.673019       0.0776041 
        5.74916        0.671381       0.0770475 
        5.76486        0.672295       0.0764971 
        5.78054        0.672122       0.0759529 
        5.79626        0.670977       0.0754124 
          5.812        0.670262       0.0748766 
         5.8277        0.670889       0.0743475 
        5.84339        0.672103       0.0738235 
        5.85911         0.66914       0.0733035 
        5.87484        0.670369       0.0727885 
        5.89053        0.669213       0.0722795 
        5.90623        0.667945       0.0717751 
        5.92195        0.668336       0.0712746 
        5.93767        0.669866       0.0707792 
        5.95336          0.6674       0.0702892 
        5.96905        0.668127        0.069804 
        5.98476        0.667041       0.0693227 
        6.00048        0.668264       0.0688457 
        6.01617        0.665242       0.0683738 
        6.03185        0.667175       0.0679069 
        6.04756        0.666922       0.0674432 
        6.06331        0.666777       0.0669828 
        6.07903        0.666326       0.0665277 
        6.09473        0.665995       0.0660771 
        6.11044        0.666472       0.0656303 
        6.12616        0.665437       0.0651877 
        6.14186        0.665019       0.0647496 
        6.15755        0.664603       0.0643155 
        6.17326        0.665146        0.063885 
        6.18898         0.66503       0.0634582 
        6.20467        0.663298       0.0630361 
        6.22036        0.663335       0.0626178 
         6.2361        0.663553       0.0622022 
         6.2518         0.66417       0.0617909 
        6.26748        0.662524       0.0613843 
        6.28319        0.663698       0.0609802 
        6.29893         0.66091       0.0605793 
        6.31463        0.663188       0.0601827 
        6.33033        0.661842       0.0597898 
        6.34604        0.663064       0.0594001 
        6.36177        0.661911       0.0590134 
        6.37747          0.6605       0.0586309 
