# k  (h/Mpc)    Pcb(k)  (Mpc/h)^3    Pcb_linear(k) (Mpc/h)^3   ShotnoiseSubtracted = true
      0.0200456         16190.2         16429.1 
      0.0350414           11412         11038.6 
      0.0492313          7366.4         7423.75 
      0.0637834         5773.82         5954.07 
      0.0800726         4586.25          4809.5 
       0.096163         3587.46         3421.17 
       0.111083         2762.66         2558.27 
       0.126058          2248.2         2209.42 
       0.142273         1996.73         1946.86 
       0.158546         1639.85         1546.78 
        0.17375         1395.28         1230.99 
       0.188953         1282.55         1078.07 
       0.204907         1103.92         983.694 
       0.220756         997.949         851.528 
        0.23588         876.456         716.846 
         0.2514         774.692         626.753 
       0.267535         751.096         572.928 
       0.283568         658.995         517.355 
       0.299022         625.938         455.491 
       0.314451         635.948         404.701 
       0.330372         543.967         369.375 
       0.346141         501.472         340.084 
       0.361624         478.552         309.229 
       0.377134           450.4         280.026 
       0.392932         431.856         256.542 
       0.408854         411.608         237.437 
       0.424564         398.006         219.509 
       0.440253         360.335         202.119 
       0.455999         343.576         186.746 
       0.471626         346.747          173.88 
        0.48727         326.493         162.314 
       0.502856         302.195         151.361 
       0.518488         300.709          141.21 
       0.534347         281.055         132.071 
       0.550082           269.5         123.961 
       0.565732          268.09         116.493 
       0.581496         255.932          109.47 
       0.597222          248.41         103.049 
       0.612804          240.71         97.2623 
       0.628434         232.182         91.9125 
       0.644267         221.703         86.8718 
       0.660051         218.664         82.1959 
       0.675724         213.956         77.9092 
       0.691403         209.183         73.9416 
       0.707174         201.198         70.2275 
       0.722871         197.589           66.78 
        0.73838         194.905         63.5978 
       0.754018         186.031         60.5965 
       0.769845          185.86          57.754 
        0.78569         180.043         55.0893 
       0.801365         174.471         52.6174 
       0.817031         172.149         50.2977 
       0.832809         168.231         48.1024 
       0.848511         163.932         46.0475 
       0.864097         159.602         44.1265 
       0.879701         158.895         42.3132 
       0.895507         155.147         40.5803 
       0.911279         150.448          38.948 
        0.92691         147.738         37.4189 
       0.942635         146.033         35.9633 
       0.958396         142.803          34.582 
       0.974128         140.418         33.2756 
       0.989692         135.723         32.0495 
        1.00528         135.229         30.8833 
        1.02113         132.261         29.7567 
        1.03692         129.631         28.6904 
        1.05264         127.404         27.6811 
        1.06832         126.393         26.7217 
        1.08405         123.232         25.8051 
        1.09979         122.135         24.9309 
        1.11537         119.835         24.1056 
        1.13105         117.799         23.3127 
        1.14679         116.195         22.5522 
        1.16256         113.827         21.8241 
        1.17828         112.708         21.1304 
        1.19395         110.219         20.4691 
         1.2097         108.996         19.8326 
        1.22537         107.713         19.2262 
          1.241         105.072         18.6469 
        1.25666         103.758         18.0899 
        1.27241         101.401         17.5529 
        1.28819         100.633         17.0368 
        1.30392         99.3289         16.5429 
        1.31957          97.198         16.0707 
        1.33529         95.7422         15.6151 
        1.35108         94.8509         15.1753 
        1.36674         93.1244         14.7555 
         1.3824         92.4987          14.352 
        1.39811         90.7457         13.9621 
        1.41389         89.4007         13.5852 
        1.42964         87.7104         13.2228 
        1.44531         86.9987         12.8753 
        1.46101         85.3176         12.5395 
        1.47667         85.0531         12.2167 
        1.49229         84.0402          11.906 
        1.50793         82.3988         11.6057 
        1.52367           81.24         11.3139 
        1.53953         80.5357           11.03 
        1.55526         79.3573         10.7582 
        1.57092          78.706         10.4965 
        1.58662         77.4836          10.243 
        1.60235         76.4025         9.99722 
        1.61809         75.5108         9.75939 
        1.63369         74.2476         9.53138 
        1.64941          74.185         9.30898 
        1.66519         72.7336         9.09286 
        1.68085         71.4066         8.88509 
        1.69652          70.609         8.68373 
        1.71228         69.6198         8.48744 
        1.72806         69.2905         8.29703 
        1.74368         67.8756         8.11435 
        1.75933         67.3973         7.93677 
        1.77505         66.7228         7.76366 
        1.79081         65.4377         7.59538 
         1.8065         64.7868         7.43278 
        1.82218          64.032         7.27506 
        1.83797         63.5606         7.12082 
        1.85367         62.3455         6.97188 
        1.86928         61.7753         6.82807 
        1.88497          61.076         6.68751 
        1.90073         60.3483         6.55038 
        1.91647         59.5573         6.41719 
        1.93218         58.7176         6.28797 
        1.94787         57.9748         6.16248 
        1.96363         57.2676          6.0399 
        1.97935         56.8343         5.92089 
        1.99499         56.1812         5.80574 
        2.01064         55.3092         5.69347 
         2.0264         54.6898         5.58345 
        2.04216         53.9364         5.47638 
        2.05781         53.3736         5.37278 
        2.07353         52.8536         5.27147 
        2.08928         52.3024         5.17254 
        2.10499         51.4773          5.0764 
        2.12065         51.1652         4.98299 
        2.13633         50.4284         4.89182 
        2.15211         49.7972         4.80234 
        2.16785         48.9501         4.71534 
        2.18349         48.5905         4.63103 
        2.19916         48.0466         4.54858 
        2.21489         47.4188         4.46787 
        2.23063         46.8795         4.38904 
         2.2463         46.4902         4.31246 
        2.26194         46.1728         4.23789 
        2.27765         45.4378          4.1647 
        2.29341          44.949         4.09303 
        2.30914         44.2681         4.02318 
        2.32486         43.8615           3.955 
        2.34061         43.3866         3.88827 
        2.35635         42.9636         3.82313 
        2.37203         42.2091         3.75971 
        2.38768         42.0171         3.69784 
        2.40339         41.5249         3.63714 
        2.41914         40.8657         3.57764 
        2.43483          40.635         3.51969 
         2.4505         40.2683          3.4631 
        2.46622         39.6967         3.40756 
        2.48195         39.2208         3.35323 
        2.49759         38.7717         3.30036 
        2.51328         38.4477         3.24849 
        2.52906         38.0431          3.1974 
        2.54479         37.6567         3.14759 
        2.56049         36.9071         3.09894 
        2.57618         36.7224         3.05135 
        2.59189         36.4521         3.00468 
        2.60758         35.8041         2.95905 
        2.62325         35.5636         2.91442 
        2.63898         35.2645         2.87055 
        2.65468          34.875         2.82768 
        2.67044         34.6037         2.78548 
        2.68618         34.2188         2.74425 
        2.70184         33.6427           2.704 
        2.71755         33.3489         2.66446 
        2.73329         33.0191         2.62564 
        2.74897         32.7905         2.58772 
        2.76462         32.4266         2.55063 
        2.78034         32.0087          2.5141 
        2.79607          31.529         2.47825 
        2.81179         31.2736         2.44314 
        2.82749         30.9743         2.40874 
        2.84321         30.6698         2.37496 
        2.85893         30.2667         2.34183 
        2.87462         29.8952         2.30939 
        2.89033         29.6874         2.27753 
        2.90605         29.3373         2.24624 
        2.92176         29.0855         2.21555 
        2.93747         28.8232         2.18545 
        2.95318         28.5164         2.15589 
        2.96891         28.1559         2.12687 
        2.98456         28.0117          2.0985 
        3.00023         27.7227         2.07061 
        3.01596         27.3748         2.04313 
        3.03164         27.0519         2.01623 
        3.04738         26.7792         1.98973 
         3.0631         26.6278         1.96372 
        3.07883         26.2809         1.93816 
        3.09456         25.9917         1.91306 
        3.11026         25.6561         1.88844 
        3.12596         25.4875         1.86426 
        3.14163         25.2409         1.84055 
        3.15734          25.027         1.81719 
        3.17308         24.7558         1.79419 
        3.18879         24.4722         1.77164 
        3.20447         24.1411          1.7495 
         3.2202         24.0132         1.72768 
         3.2359         23.7559         1.70626 
        3.25157           23.56         1.68526 
        3.26729         23.2558         1.66454 
        3.28304         23.0078         1.64413 
        3.29877         22.7627         1.62409 
        3.31446         22.5548         1.60442 
        3.33014          22.359         1.58509 
        3.34585          22.128         1.56605 
        3.36158         21.9787          1.5473 
        3.37727         21.7072          1.5289 
        3.39294         21.4633         1.51082 
        3.40867         21.2982         1.49297 
        3.42439         21.1413         1.47541 
        3.44008         20.9349         1.45817 
        3.45578         20.7504         1.44118 
        3.47153         20.5004         1.42443 
        3.48724         20.3078         1.40798 
        3.50292          20.147         1.39182 
        3.51859         19.9509         1.37591 
        3.53431         19.6841         1.36021 
        3.55007         19.5218         1.34471 
        3.56577         19.3492         1.32952 
        3.58146         19.1424         1.31456 
        3.59719         18.9864          1.2998 
        3.61292         18.8272         1.28526 
        3.62859         18.6075           1.271 
        3.64429         18.4125         1.25693 
        3.66003         18.3181         1.24303 
        3.67578         18.0961         1.22935 
        3.69146         17.9548         1.21592 
        3.70712         17.7621         1.20271 
        3.72284         17.6265         1.18965 
        3.73853         17.5289          1.1768 
        3.75422         17.2984         1.16414 
        3.76993         17.1262         1.15165 
        3.78564         16.9476         1.13935 
        3.80137         16.8163         1.12721 
        3.81707         16.6199         1.11527 
        3.83279         16.4891         1.10349 
        3.84853         16.3604         1.09186 
        3.86424         16.2149         1.08042 
        3.87992          16.021         1.06916 
        3.89561          15.963         1.05806 
        3.91134         15.7691         1.04709 
        3.92704         15.6363         1.03629 
        3.94273          15.465         1.02565 
        3.95845         15.3364         1.01514 
        3.97418         15.2067         1.00478 
        3.98988         15.0674         0.99457 
        4.00554         14.9659        0.984531 
        4.02125         14.7844        0.974602 
        4.03698         14.6493        0.964792 
        4.05268         14.5213         0.95514 
        4.06839         14.4082        0.945611 
         4.0841         14.2918        0.936214 
        4.09983         14.1573        0.926931 
        4.11555         14.0308        0.917777 
        4.13124          13.919        0.908771 
        4.14693         13.8014        0.899877 
        4.16266         13.6787        0.891081 
        4.17839         13.5281        0.882407 
        4.19408         13.4605        0.873867 
        4.20977         13.3274        0.865436 
        4.22551         13.1796        0.857095 
        4.24123         13.0761        0.848872 
        4.25691         12.9381        0.840779 
        4.27259         12.8414        0.832787 
        4.28831         12.7708        0.824883 
        4.30404         12.6719        0.817073 
        4.31974         12.5365        0.809381 
        4.33543         12.4348        0.801792 
        4.35116         12.3274         0.79428 
        4.36688          12.224        0.786868 
        4.38255         12.1302        0.779577 
        4.39825           11.99        0.772361 
        4.41398         11.9442        0.765223 
         4.4297         11.7925        0.758181 
        4.44541         11.6959        0.751229 
        4.46111         11.6026        0.744368 
        4.47683         11.5062        0.737588 
        4.49251         11.4304        0.730905 
        4.50819         11.3241        0.724307 
         4.5239         11.2305         0.71778 
        4.53962         11.1253        0.711324 
        4.55535         11.0661        0.704945 
        4.57106         10.9576        0.698652 
        4.58678         10.8738        0.692434 
         4.6025         10.7869         0.68629 
        4.61821         10.6892        0.680221 
        4.63391         10.5938        0.674233 
         4.6496         10.5225        0.668319 
        4.66532         10.4273        0.662466 
        4.68103         10.3568        0.656685 
        4.69673         10.2681        0.650978 
        4.71241         10.1721        0.645345 
        4.72811         10.0981        0.639768 
        4.74384         10.0267         0.63425 
        4.75955         9.92698        0.628804 
        4.77525          9.8635        0.623426 
        4.79096         9.78854        0.618103 
        4.80669         9.71582        0.612839 
         4.8224         9.63704        0.607642 
        4.83809         9.54051        0.602511 
        4.85379         9.49256        0.597435 
         4.8695         9.40039        0.592413 
        4.88521         9.32467        0.587451 
        4.90093          9.2608        0.582545 
        4.91663         9.18439        0.577698 
        4.93234         9.11519        0.572901 
        4.94807         9.06003        0.568155 
        4.96377         8.95797        0.563471 
        4.97943         8.88339         0.55885 
        4.99514         8.83294        0.554268 
        5.01086         8.75427        0.549734 
        5.02654         8.70964        0.545262 
        5.04227         8.61163        0.540825 
          5.058         8.55226        0.536436 
        5.07371         8.49007        0.532104 
        5.08942         8.44112        0.527819 
        5.10513         8.36968         0.52358 
        5.12084         8.29963        0.519385 
        5.13656          8.2389        0.515237 
        5.15225         8.17452        0.511141 
        5.16796         8.12178        0.507083 
        5.18369         8.07052        0.503064 
         5.1994         7.97635        0.499096 
        5.21509         7.91892        0.495174 
        5.23079         7.85775         0.49129 
        5.24649         7.80175         0.48745 
        5.26217         7.75167        0.483653 
        5.27788         7.69779        0.479891 
        5.29359         7.64923        0.476168 
        5.30933         7.57232        0.472479 
        5.32504         7.52537        0.468835 
        5.34073         7.45567        0.465233 
        5.35646           7.404        0.461662 
        5.37218         7.34794        0.458127 
        5.38789         7.30099        0.454635 
        5.40357         7.26671        0.451182 
        5.41929         7.22241        0.447758 
        5.43502         7.16341        0.444369 
         5.4507         7.09045        0.441022 
        5.46639         7.03068        0.437709 
        5.48212         6.99974        0.434423 
        5.49786         6.95623        0.431166 
        5.51353         6.89559        0.427958 
        5.52921          6.8582        0.424779 
        5.54495         6.79615        0.421623 
        5.56066          6.7537        0.418503 
        5.57637         6.70611        0.415414 
        5.59207         6.65128        0.412359 
        5.60778         6.59576        0.409333 
        5.62346         6.55654        0.406342 
        5.63916         6.52103        0.403378 
        5.65487         6.47272        0.400441 
         5.6706         6.42364         0.39753 
        5.68633         6.37859        0.394646 
        5.70203         6.33774        0.391797 
        5.71773         6.28733        0.388977 
        5.73344         6.24756        0.386182 
        5.74916         6.19699        0.383412 
        5.76486         6.15861        0.380673 
        5.78054         6.12945        0.377965 
        5.79626         6.06542        0.375275 
          5.812         6.03747        0.372609 
         5.8277         6.00686        0.369976 
        5.84339          5.9439        0.367368 
        5.85911         5.91076        0.364781 
        5.87484         5.86589        0.362218 
        5.89053         5.82793        0.359685 
        5.90623         5.78959        0.357175 
        5.92195         5.75777        0.354685 
        5.93767         5.70925        0.352219 
        5.95336         5.67305        0.349781 
        5.96905         5.63688        0.347366 
        5.98476         5.60266        0.344971 
        6.00048         5.56322        0.342598 
        6.01617         5.51568        0.340249 
        6.03185         5.48447        0.337926 
        6.04756         5.46039        0.335618 
        6.06331         5.41424        0.333327 
        6.07903         5.37068        0.331062 
        6.09473         5.34632         0.32882 
        6.11044         5.30559        0.326597 
        6.12616         5.27681        0.324394 
        6.14186         5.23538        0.322214 
        6.15755         5.21236        0.320054 
        6.17326         5.17721        0.317912 
        6.18898         5.13851        0.315788 
        6.20467          5.1012        0.313687 
        6.22036         5.07415        0.311606 
         6.2361         5.03517        0.309537 
         6.2518          5.0124        0.307491 
        6.26748         4.97342        0.305467 
        6.28319         4.93394        0.303456 
        6.29893         4.91301        0.301462 
        6.31463         4.87866        0.299488 
        6.33033         4.84661        0.297533 
        6.34604         4.81665        0.295593 
        6.36177         4.78444        0.293669 
        6.37747         4.75647        0.291766 
