# k  (h/Mpc)    Pcb(k)  (Mpc/h)^3    Pcb_linear(k) (Mpc/h)^3   ShotnoiseSubtracted = true
      0.0200456           31071         31806.3 
      0.0350414         20264.2         21370.4 
      0.0492313         14097.8         14372.2 
      0.0637834         11971.3         11526.9 
      0.0800726         9518.88         9311.06 
       0.096163         6478.42         6623.29 
       0.111083         5045.47         4952.75 
       0.126058         4526.75         4277.38 
       0.142273         4009.41         3769.07 
       0.158546         3569.85         2994.53 
        0.17375          2804.7         2383.16 
       0.188953         2718.78         2087.11 
       0.204907         2557.69          1904.4 
       0.220756         2225.86         1648.54 
        0.23588            2004          1387.8 
         0.2514         1739.22         1213.38 
       0.267535         1732.72         1109.17 
       0.283568         1570.92         1001.58 
       0.299022         1496.49         881.819 
       0.314451         1416.69          783.49 
       0.330372         1291.65         715.101 
       0.346141         1260.81         658.394 
       0.361624          1212.4         598.658 
       0.377134         1136.57         542.124 
       0.392932         1073.56         496.658 
       0.408854         1066.03         459.673 
       0.424564         976.211         424.963 
       0.440253         956.791         391.297 
       0.455999         932.758         361.536 
       0.471626         901.567         336.626 
        0.48727         861.767         314.236 
       0.502856         832.658         293.031 
       0.518488         830.914         273.378 
       0.534347         779.751         255.685 
       0.550082         766.398         239.985 
       0.565732         757.126         225.527 
       0.581496         718.328         211.931 
       0.597222         699.247         199.499 
       0.612804         689.836         188.297 
       0.628434         670.618          177.94 
       0.644267         654.828         168.181 
       0.660051         642.878         159.129 
       0.675724         629.757          150.83 
       0.691403          612.55         143.149 
       0.707174          589.24         135.959 
       0.722871         578.483         129.284 
        0.73838         570.166         123.124 
       0.754018         557.459         117.313 
       0.769845         549.548          111.81 
        0.78569         541.143         106.651 
       0.801365         525.634         101.866 
       0.817031         515.985          97.375 
       0.832809         508.015         93.1249 
       0.848511         499.787         89.1467 
       0.864097         481.983         85.4277 
       0.879701          473.87         81.9171 
       0.895507         472.279         78.5624 
       0.911279         462.821         75.4023 
        0.92691         453.648         72.4419 
       0.942635         440.786          69.624 
       0.958396         433.293         66.9498 
       0.974128         427.938         64.4207 
       0.989692         424.601          62.047 
        1.00528         413.857         59.7892 
        1.02113         407.548         57.6082 
        1.03692         402.508         55.5438 
        1.05264         393.765         53.5898 
        1.06832         386.754         51.7325 
        1.08405         377.956          49.958 
        1.09979         373.722         48.2655 
        1.11537         368.124         46.6678 
        1.13105         362.244         45.1327 
        1.14679         350.896         43.6605 
        1.16256         345.892         42.2509 
        1.17828         343.805         40.9079 
        1.19395          337.35         39.6276 
         1.2097         328.814         38.3955 
        1.22537         322.576         37.2214 
          1.241         316.748         36.0998 
        1.25666         315.816         35.0215 
        1.27241         309.167          33.982 
        1.28819         302.741         32.9828 
        1.30392         297.871         32.0266 
        1.31957         292.318         31.1124 
        1.33529          290.77         30.2304 
        1.35108         284.776          29.379 
        1.36674         280.499         28.5663 
         1.3824         276.038          27.785 
        1.39811         270.743         27.0303 
        1.41389         268.057         26.3006 
        1.42964          264.02         25.5989 
        1.44531         261.209         24.9262 
        1.46101         255.917         24.2762 
        1.47667         251.299         23.6511 
        1.49229         248.184         23.0497 
        1.50793         244.111         22.4684 
        1.52367         241.704         21.9033 
        1.53953         236.036         21.3538 
        1.55526         234.403         20.8275 
        1.57092         230.481          20.321 
        1.58662         227.318         19.8301 
        1.60235          224.43         19.3544 
        1.61809         220.396         18.8939 
        1.63369         218.591         18.4525 
        1.64941          214.31         18.0219 
        1.66519         212.374         17.6035 
        1.68085         208.897         17.2013 
        1.69652         207.101         16.8115 
        1.71228         202.239         16.4315 
        1.72806         198.483         16.0628 
        1.74368         195.586         15.7092 
        1.75933           195.3         15.3654 
        1.77505         191.766         15.0302 
        1.79081         189.905         14.7044 
         1.8065         185.472         14.3897 
        1.82218         182.776         14.0843 
        1.83797         181.025         13.7857 
        1.85367         179.036         13.4974 
        1.86928         175.062          13.219 
        1.88497         174.466         12.9468 
        1.90073         171.428         12.6814 
        1.91647         169.306         12.4235 
        1.93218         167.113         12.1733 
        1.94787         164.132         11.9304 
        1.96363         162.122         11.6931 
        1.97935         159.916         11.4627 
        1.99499         157.803         11.2398 
        2.01064         155.438         11.0224 
         2.0264         153.851         10.8094 
        2.04216         152.039         10.6021 
        2.05781         150.306         10.4015 
        2.07353         148.606         10.2054 
        2.08928         145.398         10.0139 
        2.10499         144.399         9.82778 
        2.12065         142.394         9.64693 
        2.13633          140.16         9.47044 
        2.15211         138.277         9.29721 
        2.16785         137.025         9.12877 
        2.18349         135.487         8.96554 
        2.19916         133.542         8.80594 
        2.21489         132.313         8.64967 
        2.23063         129.582         8.49707 
         2.2463         128.573         8.34882 
        2.26194         126.309         8.20445 
        2.27765         125.233         8.06274 
        2.29341         123.138         7.92399 
        2.30914          122.23         7.78877 
        2.32486         120.736         7.65677 
        2.34061         118.496         7.52758 
        2.35635         117.622         7.40148 
        2.37203         115.943         7.27869 
        2.38768         114.799         7.15892 
        2.40339         113.196          7.0414 
        2.41914         111.896         6.92622 
        2.43483         110.158         6.81402 
         2.4505         108.879         6.70447 
        2.46622         108.032         6.59695 
        2.48195         105.997         6.49176 
        2.49759          105.05         6.38941 
        2.51328         103.897         6.28899 
        2.52906         103.552         6.19008 
        2.54479         101.303         6.09366 
        2.56049         99.8404         5.99946 
        2.57618         98.8365         5.90732 
        2.59189         98.1257         5.81697 
        2.60758         96.6349         5.72864 
        2.62325         95.6862         5.64225 
        2.63898         94.6429         5.55732 
        2.65468         93.1966          5.4743 
        2.67044          92.259         5.39262 
        2.68618         91.1046         5.31279 
        2.70184         90.2237         5.23487 
        2.71755         89.3956         5.15832 
        2.73329         88.2068         5.08317 
        2.74897         87.2882         5.00976 
        2.76462         86.6328         4.93795 
        2.78034         85.1832         4.86724 
        2.79607         83.9909         4.79783 
        2.81179         83.1208         4.72985 
        2.82749         82.6566         4.66325 
        2.84321         81.1759         4.59786 
        2.85893         80.4526         4.53373 
        2.87462         79.8206         4.47092 
        2.89033         78.5984         4.40924 
        2.90605         77.9957         4.34866 
        2.92176         76.9902         4.28925 
        2.93747         76.2285         4.23097 
        2.95318         75.3688         4.17375 
        2.96891         74.6639         4.11756 
        2.98456         73.9776         4.06264 
        3.00023         72.9222         4.00865 
        3.01596         72.0859         3.95545 
        3.03164         71.3017         3.90337 
        3.04738         70.4161         3.85207 
         3.0631         70.1117          3.8017 
        3.07883         68.7487         3.75223 
        3.09456         67.9588         3.70364 
        3.11026         67.6622         3.65598 
        3.12596         67.0101         3.60915 
        3.14163         66.2519         3.56325 
        3.15734         65.5096         3.51804 
        3.17308         64.8138          3.4735 
        3.18879         64.0005         3.42984 
        3.20447         63.4505         3.38699 
         3.2202         62.8025         3.34474 
         3.2359         62.1078         3.30328 
        3.25157         61.4895         3.26262 
        3.26729         61.0068         3.22251 
        3.28304         60.3883           3.183 
        3.29877         59.4328          3.1442 
        3.31446         58.9346         3.10612 
        3.33014         58.2522          3.0687 
        3.34585         57.8078         3.03184 
        3.36158         57.1843         2.99552 
        3.37727         56.5124         2.95991 
        3.39294         56.0545         2.92491 
        3.40867         55.3002         2.89035 
        3.42439         54.8906         2.85635 
        3.44008          54.286         2.82297 
        3.45578         53.9169         2.79009 
        3.47153         53.1555         2.75766 
        3.48724         52.7604          2.7258 
        3.50292         52.3063         2.69452 
        3.51859         51.7388         2.66373 
        3.53431         51.2319         2.63333 
        3.55007         50.8267         2.60333 
        3.56577         50.3715         2.57391 
        3.58146         49.7617         2.54495 
        3.59719         49.3693         2.51637 
        3.61292         48.9285         2.48823 
        3.62859           48.26         2.46063 
        3.64429         47.9814         2.43339 
        3.66003          47.519         2.40648 
        3.67578          47.101         2.37998 
        3.69146         46.4897         2.35398 
        3.70712         46.1755         2.32841 
        3.72284         45.8057         2.30312 
        3.73853         45.3333         2.27826 
        3.75422         44.7456         2.25374 
        3.76993          44.267         2.22957 
        3.78564         43.9255         2.20575 
        3.80137         43.6905         2.18224 
        3.81707         43.1381         2.15913 
        3.83279         42.6811         2.13632 
        3.84853         42.3556         2.11381 
        3.86424         41.8891         2.09166 
        3.87992         41.6021         2.06986 
        3.89561         41.1458         2.04837 
        3.91134         40.7679         2.02714 
        3.92704         40.4156         2.00623 
        3.94273         40.0244         1.98563 
        3.95845         39.7189         1.96529 
        3.97418         39.3772         1.94522 
        3.98988         38.9342         1.92546 
        4.00554         38.5745         1.90603 
        4.02125         38.1743          1.8868 
        4.03698         37.8354         1.86781 
        4.05268         37.6273         1.84912 
        4.06839         37.1943         1.83068 
         4.0841          36.839         1.81249 
        4.09983         36.5224         1.79451 
        4.11555         36.3055         1.77679 
        4.13124         35.9804         1.75936 
        4.14693         35.6251         1.74214 
        4.16266         35.2796         1.72511 
        4.17839         35.0343         1.70832 
        4.19408         34.6878         1.69178 
        4.20977         34.3346         1.67546 
        4.22551         34.0372         1.65931 
        4.24123         33.6737         1.64339 
        4.25691         33.3907         1.62772 
        4.27259         33.1659         1.61225 
        4.28831         32.9258         1.59695 
        4.30404         32.6681         1.58183 
        4.31974         32.4057         1.56694 
        4.33543         32.0337         1.55225 
        4.35116          31.799         1.53771 
        4.36688         31.4461         1.52335 
        4.38255          31.232         1.50924 
        4.39825         30.9488         1.49527 
        4.41398          30.634         1.48145 
         4.4297         30.4097         1.46782 
        4.44541         30.0957         1.45436 
        4.46111         29.9193         1.44108 
        4.47683         29.6214         1.42795 
        4.49251         29.3424         1.41501 
        4.50819         29.1648         1.40224 
         4.5239         28.9047          1.3896 
        4.53962         28.6772          1.3771 
        4.55535          28.445         1.36475 
        4.57106         28.1909         1.35257 
        4.58678         27.9837         1.34053 
         4.6025         27.7255         1.32864 
        4.61821         27.4412         1.31689 
        4.63391          27.262          1.3053 
         4.6496         26.9734         1.29385 
        4.66532         26.8116         1.28252 
        4.68103         26.6308         1.27132 
        4.69673         26.3763         1.26028 
        4.71241         26.1542         1.24937 
        4.72811         25.9684         1.23857 
        4.74384         25.7051         1.22789 
        4.75955         25.5028         1.21735 
        4.77525         25.3146         1.20694 
        4.79096          25.133         1.19663 
        4.80669         24.8604         1.18644 
         4.8224         24.7233         1.17638 
        4.83809         24.5528         1.16644 
        4.85379         24.2266         1.15662 
         4.8695         24.0893          1.1469 
        4.88521         23.9352         1.13729 
        4.90093         23.7424         1.12779 
        4.91663         23.4866         1.11841 
        4.93234         23.3904         1.10912 
        4.94807         23.1432         1.09993 
        4.96377         22.9876         1.09087 
        4.97943         22.8027         1.08192 
        4.99514          22.609         1.07305 
        5.01086         22.3985         1.06427 
        5.02654         22.2636         1.05561 
        5.04227         22.0981         1.04702 
          5.058         21.8982         1.03853 
        5.07371         21.7172         1.03014 
        5.08942         21.5763         1.02184 
        5.10513         21.3604         1.01364 
        5.12084         21.2537         1.00552 
        5.13656          21.105        0.997486 
        5.15225         20.9251        0.989555 
        5.16796         20.7535        0.981698 
        5.18369         20.6108        0.973919 
         5.1994         20.4786        0.966237 
        5.21509          20.261        0.958644 
        5.23079          20.098        0.951124 
        5.24649         19.9634         0.94369 
        5.26217         19.7897        0.936339 
        5.27788         19.6388        0.929056 
        5.29359         19.5343        0.921849 
        5.30933         19.3879        0.914707 
        5.32504         19.2422        0.907653 
        5.34073         19.0918        0.900679 
        5.35646         18.9601        0.893765 
        5.37218         18.7628        0.886922 
        5.38789         18.6424         0.88016 
        5.40357         18.5142        0.873477 
        5.41929         18.3348        0.866848 
        5.43502         18.2409        0.860286 
         5.4507         18.1104        0.853807 
        5.46639          17.976        0.847394 
        5.48212         17.8528        0.841031 
        5.49786         17.7088        0.834725 
        5.51353         17.5453        0.828515 
        5.52921         17.4272        0.822361 
        5.54495          17.301        0.816252 
        5.56066         17.1666         0.81021 
        5.57637         17.0426        0.804231 
        5.59207         16.9462        0.798316 
        5.60778         16.8041        0.792458 
        5.62346         16.6833        0.786667 
        5.63916         16.5419        0.780928 
        5.65487         16.4303        0.775243 
         5.6706          16.355        0.769607 
        5.68633         16.1463        0.764025 
        5.70203         16.0734        0.758509 
        5.71773         15.9681        0.753049 
        5.73344         15.8353        0.747638 
        5.74916         15.7202        0.742276 
        5.76486         15.5964        0.736973 
        5.78054         15.5262         0.73173 
        5.79626         15.3919        0.726523 
          5.812         15.3017        0.721361 
         5.8277         15.1881        0.716264 
        5.84339         15.0969        0.711215 
        5.85911         14.9721        0.706206 
        5.87484         14.8699        0.701245 
        5.89053         14.7604        0.696341 
        5.90623         14.6622        0.691482 
        5.92195         14.5393         0.68666 
        5.93767         14.4774        0.681887 
        5.95336          14.358        0.677166 
        5.96905         14.2395        0.672492 
        5.98476         14.1494        0.667855 
        6.00048          14.059         0.66326 
        6.01617         13.9417        0.658714 
        6.03185         13.8415        0.654215 
        6.04756         13.7579        0.649748 
        6.06331         13.6589        0.645313 
        6.07903         13.5556        0.640928 
        6.09473         13.4829        0.636587 
        6.11044         13.3557        0.632283 
        6.12616         13.2739        0.628019 
        6.14186         13.1878        0.623798 
        6.15755         13.1163        0.619616 
        6.17326         13.0174        0.615468 
        6.18898         12.9118        0.611357 
        6.20467         12.8488         0.60729 
        6.22036         12.7446         0.60326 
         6.2361         12.6618        0.599256 
         6.2518         12.5707        0.595294 
        6.26748         12.4976        0.591377 
        6.28319         12.4226        0.587483 
        6.29893         12.3317        0.583621 
        6.31463         12.2443        0.579801 
        6.33033         12.1653        0.576015 
        6.34604         12.0621         0.57226 
        6.36177         11.9971        0.568535 
        6.37747         11.9331         0.56485 
