# k  (h/Mpc)    Pcb(k)  (Mpc/h)^3    Pcb_linear(k) (Mpc/h)^3   ShotnoiseSubtracted = true
      0.0200456         706.062         715.011 
      0.0350414          479.65         480.409 
      0.0492313         325.007         323.089 
      0.0637834         262.156         259.127 
      0.0800726         210.079         209.314 
       0.096163         148.573         148.893 
       0.111083         111.248         111.339 
       0.126058         96.7753         96.1561 
       0.142273          85.097         84.7293 
       0.158546          67.939         67.3175 
        0.17375         53.6652         53.5738 
       0.188953         47.4373         46.9186 
       0.204907         43.9514         42.8113 
       0.220756         37.5247         37.0593 
        0.23588         31.7381         31.1978 
         0.2514         27.6097         27.2769 
       0.267535         25.2829         24.9344 
       0.283568         22.8453         22.5158 
       0.299022         20.2964         19.8234 
       0.314451          17.784          17.613 
       0.330372         16.3649         16.0756 
       0.346141         15.0282         14.8008 
       0.361624         13.7441         13.4579 
       0.377134         12.5876          12.187 
       0.392932         11.2001         11.1649 
       0.408854         10.6486         10.3335 
       0.424564         9.79916         9.55324 
       0.440253         9.02254          8.7964 
       0.455999         8.40372         8.12738 
       0.471626         7.87053         7.56741 
        0.48727         7.31364         7.06407 
       0.502856          6.7874         6.58738 
       0.518488         6.43608         6.14558 
       0.534347          6.0941         5.74784 
       0.550082         5.57647         5.39491 
       0.565732         5.14865         5.06988 
       0.581496         4.98011         4.76425 
       0.597222         4.72662         4.48477 
       0.612804         4.41055         4.23295 
       0.628434         4.22796         4.00012 
       0.644267         3.99131         3.78074 
       0.660051         3.75403         3.57725 
       0.675724         3.56503         3.39068 
       0.691403         3.41793         3.21801 
       0.707174         3.22671         3.05637 
       0.722871         3.06777         2.90633 
        0.73838         2.93891         2.76784 
       0.754018         2.83497         2.63722 
       0.769845         2.67684         2.51351 
        0.78569         2.56693         2.39754 
       0.801365         2.44505         2.28996 
       0.817031         2.35025           2.189 
       0.832809         2.25143         2.09346 
       0.848511         2.13417         2.00403 
       0.864097         2.04015         1.92043 
       0.879701         1.96324         1.84151 
       0.895507         1.88426         1.76609 
       0.911279         1.83664         1.69505 
        0.92691         1.75822          1.6285 
       0.942635         1.68324         1.56516 
       0.958396         1.61473         1.50504 
       0.974128         1.55858         1.44819 
       0.989692         1.51594         1.39483 
        1.00528         1.44969         1.34407 
        1.02113         1.38992         1.29504 
        1.03692          1.3581         1.24863 
        1.05264         1.30611         1.20471 
        1.06832         1.26831         1.16295 
        1.08405         1.20633         1.12306 
        1.09979          1.1747         1.08502 
        1.11537         1.14145          1.0491 
        1.13105         1.10812         1.01459 
        1.14679         1.07595        0.981495 
        1.16256         1.03165        0.949806 
        1.17828         1.00308        0.919616 
        1.19395        0.972121        0.890835 
         1.2097        0.929644        0.863136 
        1.22537        0.912251        0.836743 
          1.241        0.887084         0.81153 
        1.25666        0.873085        0.787289 
        1.27241        0.830944        0.763921 
        1.28819        0.809543        0.741459 
        1.30392        0.791877        0.719963 
        1.31957        0.770304        0.699411 
        1.33529        0.744424        0.679584 
        1.35108        0.723824        0.660444 
        1.36674        0.697923        0.642175 
         1.3824        0.686217        0.624612 
        1.39811        0.665852        0.607645 
        1.41389        0.651437        0.591241 
        1.42964        0.634884        0.575468 
        1.44531        0.614543        0.560345 
        1.46101        0.602512        0.545732 
        1.47667        0.578631        0.531681 
        1.49229        0.572975         0.51816 
        1.50793          0.5544        0.505093 
        1.52367        0.542988         0.49239 
        1.53953        0.526025        0.480038 
        1.55526        0.514825        0.468205 
        1.57092         0.50122        0.456819 
        1.58662        0.491882        0.445783 
        1.60235        0.479371        0.435089 
        1.61809        0.464696        0.424738 
        1.63369        0.461758        0.414815 
        1.64941        0.445713        0.405136 
        1.66519        0.435463         0.39573 
        1.68085         0.42342        0.386688 
        1.69652        0.414886        0.377924 
        1.71228        0.407753        0.369382 
        1.72806        0.395056        0.361095 
        1.74368        0.390681        0.353144 
        1.75933        0.379537        0.345416 
        1.77505        0.371977        0.337882 
        1.79081        0.364538        0.330558 
         1.8065        0.353505        0.323482 
        1.82218        0.348455        0.316618 
        1.83797        0.340261        0.309905 
        1.85367        0.336736        0.303423 
        1.86928        0.327773        0.297164 
        1.88497        0.320293        0.291047 
        1.90073        0.313001        0.285079 
        1.91647        0.308624        0.279282 
        1.93218        0.300577        0.273658 
        1.94787        0.295027        0.268197 
        1.96363         0.28861        0.262862 
        1.97935        0.282767        0.257683 
        1.99499         0.27728        0.252671 
        2.01064        0.271876        0.247785 
         2.0264        0.265745        0.242997 
        2.04216         0.26252        0.238337 
        2.05781        0.256874        0.233828 
        2.07353        0.250416        0.229419 
        2.08928        0.245366        0.225114 
        2.10499        0.242261         0.22093 
        2.12065        0.238515        0.216864 
        2.13633        0.233886        0.212897 
        2.15211        0.229197        0.209003 
        2.16785        0.224051        0.205216 
        2.18349        0.219735        0.201547 
        2.19916        0.216748        0.197959 
        2.21489        0.212378        0.194446 
        2.23063        0.209024        0.191015 
         2.2463        0.205335        0.187683 
        2.26194        0.199801        0.184437 
        2.27765        0.197295        0.181252 
        2.29341        0.194371        0.178132 
        2.30914        0.191395        0.175093 
        2.32486        0.187517        0.172125 
        2.34061        0.184273        0.169221 
        2.35635        0.180137        0.166386 
        2.37203        0.177696        0.163626 
        2.38768         0.17451        0.160934 
        2.40339        0.172466        0.158292 
        2.41914         0.16949        0.155703 
        2.43483        0.166538         0.15318 
         2.4505        0.162743        0.150718 
        2.46622        0.160227          0.1483 
        2.48195        0.158321        0.145936 
        2.49759        0.155773        0.143635 
        2.51328        0.152808        0.141377 
        2.52906         0.15093        0.139154 
        2.54479        0.147784        0.136986 
        2.56049        0.145095        0.134869 
        2.57618        0.142939        0.132798 
        2.59189        0.141426        0.130766 
        2.60758        0.139477        0.128781 
        2.62325        0.136584        0.126838 
        2.63898         0.13465        0.124929 
        2.65468        0.132066        0.123063 
        2.67044        0.130534        0.121227 
        2.68618        0.128258        0.119432 
        2.70184        0.126409        0.117681 
        2.71755        0.124013         0.11596 
        2.73329        0.122431         0.11427 
        2.74897        0.120928         0.11262 
        2.76462        0.118948        0.111006 
        2.78034         0.11728        0.109416 
        2.79607        0.115283        0.107856 
        2.81179        0.114057        0.106328 
        2.82749        0.111965        0.104831 
        2.84321        0.110578         0.10336 
        2.85893        0.109186        0.101919 
        2.87462          0.1074        0.100507 
        2.89033        0.105871       0.0991204 
        2.90605        0.104201       0.0977586 
        2.92176        0.102945        0.096423 
        2.93747        0.101286       0.0951128 
        2.95318        0.100122       0.0938265 
        2.96891       0.0986027       0.0925633 
        2.98456       0.0970865       0.0913288 
        3.00023       0.0961563       0.0901149 
        3.01596       0.0945786       0.0889192 
        3.03164       0.0937634       0.0877484 
        3.04738       0.0918406       0.0865951 
         3.0631       0.0910461       0.0854629 
        3.07883       0.0895061       0.0843507 
        3.09456       0.0885628       0.0832583 
        3.11026       0.0873737       0.0821869 
        3.12596       0.0859553       0.0811343 
        3.14163       0.0850426       0.0801024 
        3.15734       0.0842502        0.079086 
        3.17308       0.0832151       0.0780847 
        3.18879       0.0821052       0.0771033 
        3.20447       0.0806202       0.0761401 
         3.2202       0.0801615       0.0751903 
         3.2359       0.0789595       0.0742583 
        3.25157        0.078052       0.0733442 
        3.26729       0.0767673       0.0724426 
        3.28304        0.076336       0.0715543 
        3.29877       0.0752174        0.070682 
        3.31446        0.074266        0.069826 
        3.33014       0.0734954       0.0689849 
        3.34585       0.0731117       0.0681562 
        3.36158       0.0720252       0.0673398 
        3.37727       0.0713154       0.0665393 
        3.39294       0.0702629       0.0657524 
        3.40867       0.0693673       0.0649754 
        3.42439       0.0687615       0.0642112 
        3.44008       0.0676666       0.0634608 
        3.45578       0.0672549       0.0627217 
        3.47153       0.0664433       0.0619927 
        3.48724       0.0658412       0.0612764 
        3.50292        0.065114       0.0605731 
        3.51859       0.0642996       0.0598811 
        3.53431        0.063477       0.0591977 
        3.55007       0.0631167       0.0585232 
        3.56577       0.0622511       0.0578618 
        3.58146       0.0618065       0.0572108 
        3.59719       0.0611425       0.0565683 
        3.61292       0.0607236       0.0559358 
        3.62859       0.0600467       0.0553153 
        3.64429       0.0593641        0.054703 
        3.66003       0.0589161        0.054098 
        3.67578       0.0581928       0.0535023 
        3.69146       0.0575154       0.0529178 
        3.70712       0.0572759        0.052343 
        3.72284       0.0567329       0.0517746 
        3.73853       0.0561672       0.0512155 
        3.75422       0.0557817       0.0506644 
        3.76993       0.0550213        0.050121 
        3.78564       0.0545595       0.0495856 
        3.80137        0.054191       0.0490572 
        3.81707       0.0536507       0.0485375 
        3.83279       0.0533015       0.0480248 
        3.84853       0.0526611       0.0475187 
        3.86424       0.0522243       0.0470209 
        3.87992       0.0516942       0.0465308 
        3.89561       0.0512686       0.0460477 
        3.91134       0.0509661       0.0455704 
        3.92704       0.0503509       0.0451003 
        3.94273       0.0498093       0.0446374 
        3.95845       0.0493558         0.04418 
        3.97418       0.0492804       0.0437289 
        3.98988       0.0484832       0.0432846 
        4.00554       0.0482197       0.0428478 
        4.02125       0.0475726       0.0424156 
        4.03698       0.0468784       0.0419887 
        4.05268       0.0463326       0.0415686 
        4.06839       0.0457685       0.0411539 
         4.0841       0.0450886       0.0407449 
        4.09983        0.044599       0.0403409 
        4.11555       0.0439674       0.0399425 
        4.13124       0.0432681       0.0395506 
        4.14693       0.0428001       0.0391635 
        4.16266       0.0422728       0.0387807 
        4.17839       0.0418018       0.0384032 
        4.19408       0.0412887       0.0380315 
        4.20977       0.0408777       0.0376646 
        4.22551       0.0404243       0.0373016 
        4.24123       0.0399231       0.0369437 
        4.25691       0.0394718       0.0365915 
        4.27259       0.0390346       0.0362437 
        4.28831       0.0386954       0.0358997 
        4.30404       0.0384033       0.0355598 
        4.31974       0.0381202        0.035225 
        4.33543       0.0377826       0.0348947 
        4.35116       0.0374489       0.0345678 
        4.36688       0.0370911       0.0342452 
        4.38255       0.0367138       0.0339279 
        4.39825       0.0365971       0.0336139 
        4.41398       0.0363003       0.0333032 
         4.4297       0.0361651       0.0329968 
        4.44541       0.0359375       0.0326942 
        4.46111       0.0357372       0.0323956 
        4.47683        0.035442       0.0321005 
        4.49251       0.0353497       0.0318097 
        4.50819        0.035117       0.0315225 
         4.5239       0.0349505       0.0312385 
        4.53962       0.0349022       0.0309575 
        4.55535       0.0348084       0.0306799 
        4.57106       0.0346776        0.030406 
        4.58678       0.0345396       0.0301354 
         4.6025       0.0345888        0.029868 
        4.61821       0.0346317       0.0296039 
        4.63391       0.0345581       0.0293433 
         4.6496       0.0345036       0.0290859 
        4.66532        0.034439       0.0288311 
        4.68103       0.0344952       0.0285796 
        4.69673       0.0344291       0.0283312 
        4.71241       0.0345616        0.028086 
        4.72811       0.0346301       0.0278433 
        4.74384       0.0346486       0.0276032 
        4.75955       0.0348108       0.0273662 
        4.77525        0.034921       0.0271321 
        4.79096        0.034936       0.0269004 
        4.80669       0.0350018       0.0266713 
         4.8224       0.0353466       0.0264452 
        4.83809       0.0353894       0.0262219 
        4.85379       0.0355354        0.026001 
         4.8695       0.0356996       0.0257824 
        4.88521       0.0360181       0.0255664 
        4.90093       0.0362232       0.0253529 
        4.91663       0.0363277        0.025142 
        4.93234       0.0365406       0.0249332 
        4.94807       0.0369067       0.0247267 
        4.96377       0.0372872       0.0245228 
        4.97943       0.0376133       0.0243217 
        4.99514       0.0377864       0.0241223 
        5.01086       0.0381885       0.0239249 
        5.02654         0.03853       0.0237303 
        5.04227       0.0388968       0.0235372 
          5.058       0.0393404       0.0233462 
        5.07371       0.0397423       0.0231577 
        5.08942       0.0399617       0.0229712 
        5.10513       0.0405694       0.0227867 
        5.12084       0.0409877       0.0226042 
        5.13656       0.0413744       0.0224236 
        5.15225       0.0420583       0.0222454 
        5.16796       0.0426727       0.0220687 
        5.18369       0.0430558       0.0218938 
         5.1994       0.0438097       0.0217211 
        5.21509       0.0441908       0.0215505 
        5.23079       0.0448319       0.0213814 
        5.24649       0.0453872       0.0212143 
        5.26217         0.04629        0.021049 
        5.27788       0.0469238       0.0208853 
        5.29359       0.0476782       0.0207233 
        5.30933       0.0483118       0.0205628 
        5.32504       0.0490128       0.0204042 
        5.34073         0.04968       0.0202474 
        5.35646       0.0506927        0.020092 
        5.37218       0.0516554       0.0199381 
        5.38789       0.0523904       0.0197861 
        5.40357       0.0531063       0.0196359 
        5.41929       0.0541166       0.0194869 
        5.43502        0.055072       0.0193393 
         5.4507        0.056123       0.0191937 
        5.46639       0.0571886       0.0190495 
        5.48212       0.0580838       0.0189065 
        5.49786       0.0592198       0.0187647 
        5.51353       0.0606454       0.0186251 
        5.52921       0.0612631       0.0184868 
        5.54495       0.0626413       0.0183495 
        5.56066        0.063716       0.0182136 
        5.57637        0.065152       0.0180792 
        5.59207       0.0667073       0.0179463 
        5.60778       0.0679418       0.0178146 
        5.62346       0.0694366       0.0176844 
        5.63916       0.0706215       0.0175554 
        5.65487       0.0719734       0.0174276 
         5.6706       0.0735598       0.0173009 
        5.68633       0.0748477       0.0171754 
        5.70203       0.0760577       0.0170514 
        5.71773        0.078495       0.0169286 
        5.73344       0.0798616        0.016807 
        5.74916       0.0821347       0.0166865 
        5.76486       0.0832534       0.0165673 
        5.78054       0.0849442       0.0164494 
        5.79626       0.0864005       0.0163323 
          5.812       0.0885733       0.0162163 
         5.8277       0.0906987       0.0161017 
        5.84339       0.0924632       0.0159882 
        5.85911       0.0949798       0.0158756 
        5.87484       0.0968588       0.0157641 
        5.89053        0.099334       0.0156539 
        5.90623        0.101785       0.0155446 
        5.92195        0.103795       0.0154362 
        5.93767        0.106003       0.0153289 
        5.95336        0.108671       0.0152228 
        5.96905         0.11092       0.0151177 
        5.98476        0.113627       0.0150135 
        6.00048        0.115895       0.0149102 
        6.01617        0.118058        0.014808 
        6.03185        0.121976       0.0147069 
        6.04756        0.124499       0.0146064 
        6.06331        0.126782       0.0145067 
        6.07903         0.13059       0.0144081 
        6.09473        0.133817       0.0143106 
        6.11044        0.136214       0.0142138 
        6.12616         0.13919        0.014118 
        6.14186        0.141856       0.0140231 
        6.15755         0.14531        0.013929 
        6.17326        0.149998       0.0138358 
        6.18898        0.151858       0.0137434 
        6.20467        0.157225        0.013652 
        6.22036        0.158978       0.0135614 
         6.2361        0.162838       0.0134714 
         6.2518        0.166901       0.0133823 
        6.26748        0.170572       0.0132942 
        6.28319        0.174571       0.0132067 
        6.29893        0.179464       0.0131199 
        6.31463        0.183699        0.013034 
        6.33033        0.188007       0.0129489 
        6.34604        0.190978       0.0128645 
        6.36177        0.194773       0.0127808 
        6.37747        0.201141       0.0126979 
