# k  (h/Mpc)    Pcb(k)  (Mpc/h)^3    Pcb_linear(k) (Mpc/h)^3   ShotnoiseSubtracted = true
      0.0200456         11193.8           11382 
      0.0350414         7446.52         7647.44 
      0.0492313         5131.82         5143.12 
      0.0637834         4252.45         4124.94 
      0.0800726         3402.09         3331.99 
       0.096163         2335.84         2370.16 
       0.111083         1765.02         1772.35 
       0.126058          1584.6         1530.67 
       0.142273         1408.53         1348.77 
       0.158546         1174.48          1071.6 
        0.17375         906.663         852.819 
       0.188953         854.649         746.879 
       0.204907         810.669         681.496 
       0.220756         691.712         589.932 
        0.23588         599.454         496.626 
         0.2514         514.176          434.21 
       0.267535         497.199          396.92 
       0.283568         452.189         358.419 
       0.299022         418.878         315.561 
       0.314451         387.048         280.374 
       0.330372         355.617         255.901 
       0.346141         319.873         235.608 
       0.361624         307.598         214.231 
       0.377134          284.51             194 
       0.392932         265.543          177.73 
       0.408854         253.672         164.495 
       0.424564         241.232         152.074 
       0.440253         231.136         140.026 
       0.455999         216.324         129.376 
       0.471626         201.156         120.463 
        0.48727         193.578          112.45 
       0.502856         186.529         104.862 
       0.518488          183.24          97.829 
       0.534347         173.052         91.4975 
       0.550082         161.115         85.8794 
       0.565732         156.656         80.7054 
       0.581496         148.973         75.8401 
       0.597222         144.545         71.3913 
       0.612804         138.835         67.3826 
       0.628434         134.106         63.6763 
       0.644267         129.379         60.1841 
       0.660051         127.574         56.9447 
       0.675724         123.653         53.9749 
       0.691403         119.758         51.2262 
       0.707174         114.735         48.6531 
       0.722871         113.223         46.2647 
        0.73838         110.727         44.0601 
       0.754018         106.414         41.9808 
       0.769845         103.631         40.0115 
        0.78569         101.334         38.1655 
       0.801365         98.1113         36.4529 
       0.817031         94.6095         34.8459 
       0.832809         93.4417          33.325 
       0.848511         90.2286         31.9013 
       0.864097         88.3521         30.5705 
       0.879701         86.5458         29.3142 
       0.895507         84.5328         28.1137 
       0.911279         82.8275         26.9829 
        0.92691         81.4781         25.9235 
       0.942635         78.9738         24.9151 
       0.958396         78.6738         23.9581 
       0.974128         76.4259         23.0531 
       0.989692         74.5761         22.2037 
        1.00528         72.7724         21.3957 
        1.02113         72.0417         20.6152 
        1.03692         69.4777         19.8765 
        1.05264         69.3548         19.1772 
        1.06832         67.2122         18.5126 
        1.08405         66.1703         17.8776 
        1.09979          65.859         17.2719 
        1.11537          63.549         16.7002 
        1.13105         63.5933         16.1508 
        1.14679         62.3004          15.624 
        1.16256         61.2358         15.1196 
        1.17828         59.9101          14.639 
        1.19395          58.909         14.1808 
         1.2097         57.5683         13.7399 
        1.22537         57.6945         13.3198 
          1.241         56.2262         12.9184 
        1.25666         54.9698         12.5325 
        1.27241         54.1959         12.1606 
        1.28819          53.263          11.803 
        1.30392         52.6462         11.4608 
        1.31957         52.0266         11.1336 
        1.33529         50.8575          10.818 
        1.35108         50.5459         10.5133 
        1.36674         49.9798         10.2225 
         1.3824         48.7186         9.94294 
        1.39811         48.2227         9.67285 
        1.41389         47.5946         9.41172 
        1.42964          46.964         9.16064 
        1.44531         46.0098         8.91991 
        1.46101         45.3018         8.68728 
        1.47667         45.2244         8.46361 
        1.49229         44.4685         8.24839 
        1.50793         44.0475         8.04037 
        1.52367         43.0696         7.83816 
        1.53953         42.6387         7.64152 
        1.55526         42.2074         7.45317 
        1.57092         41.8192         7.27192 
        1.58662         41.0988         7.09624 
        1.60235         40.6894           6.926 
        1.61809         40.0887         6.76123 
        1.63369          39.409         6.60327 
        1.64941         39.1023          6.4492 
        1.66519         38.2649         6.29946 
        1.68085         38.1352         6.15553 
        1.69652         37.4475         6.01602 
        1.71228         37.1678         5.88004 
        1.72806         36.7943         5.74812 
        1.74368         36.1347         5.62156 
        1.75933         35.8094         5.49854 
        1.77505         35.4002          5.3786 
        1.79081         34.9697         5.26202 
         1.8065          34.618         5.14937 
        1.82218         34.1773         5.04011 
        1.83797         33.6279         4.93325 
        1.85367         33.2833         4.83006 
        1.86928         32.7927         4.73043 
        1.88497         32.7538         4.63306 
        1.90073         32.2253         4.53805 
        1.91647         31.8195         4.44578 
        1.93218         31.5943         4.35626 
        1.94787         31.1683         4.26932 
        1.96363         30.8537         4.18439 
        1.97935         30.3494         4.10194 
        1.99499         30.1599         4.02217 
        2.01064         29.8081         3.94439 
         2.0264         29.3025         3.86817 
        2.04216         29.1452         3.79399 
        2.05781         28.6953         3.72222 
        2.07353         28.4503         3.65203 
        2.08928         28.3188          3.5835 
        2.10499         27.8328         3.51689 
        2.12065         27.4654         3.45218 
        2.13633         27.3176         3.38902 
        2.15211           27.02         3.32703 
        2.16785          26.559         3.26675 
        2.18349         26.3633         3.20834 
        2.19916         26.1514         3.15123 
        2.21489         25.8218         3.09531 
        2.23063         25.4992          3.0407 
         2.2463         25.2112         2.98764 
        2.26194         24.9905         2.93598 
        2.27765         24.7603         2.88527 
        2.29341         24.5194         2.83562 
        2.30914         24.2809         2.78723 
        2.32486         23.9377         2.73999 
        2.34061         23.7762         2.69376 
        2.35635         23.5344         2.64864 
        2.37203         23.3505          2.6047 
        2.38768         23.0246         2.56184 
        2.40339         22.8807         2.51978 
        2.41914         22.6441         2.47857 
        2.43483          22.332         2.43841 
         2.4505         22.1695         2.39921 
        2.46622         21.9119         2.36073 
        2.48195         21.7157         2.32309 
        2.49759          21.527         2.28647 
        2.51328         21.1998         2.25053 
        2.52906         21.1314         2.21514 
        2.54479         20.8278         2.18063 
        2.56049         20.6462         2.14692 
        2.57618         20.4098         2.11395 
        2.59189         20.3145         2.08162 
        2.60758          20.097         2.05001 
        2.62325         19.8279         2.01909 
        2.63898          19.736          1.9887 
        2.65468         19.4833         1.95899 
        2.67044         19.3362         1.92976 
        2.68618          19.084         1.90119 
        2.70184         18.9199         1.87331 
        2.71755           18.81         1.84592 
        2.73329         18.5765         1.81903 
        2.74897         18.3579         1.79275 
        2.76462          18.207         1.76706 
        2.78034         18.1223         1.74175 
        2.79607         17.9709         1.71692 
        2.81179         17.7209         1.69259 
        2.82749         17.5938         1.66876 
        2.84321         17.3905         1.64535 
        2.85893         17.1396          1.6224 
        2.87462         17.0944         1.59993 
        2.89033         16.9995         1.57786 
        2.90605         16.7753         1.55618 
        2.92176         16.5995         1.53492 
        2.93747         16.4825         1.51406 
        2.95318         16.3057         1.49359 
        2.96891         16.1746         1.47348 
        2.98456         16.0553         1.45383 
        3.00023         15.8132          1.4345 
        3.01596          15.726         1.41547 
        3.03164         15.5854         1.39683 
        3.04738         15.4481         1.37847 
         3.0631         15.3215         1.36045 
        3.07883         15.1896         1.34274 
        3.09456         14.9825         1.32536 
        3.11026         14.8691          1.3083 
        3.12596         14.7531         1.29154 
        3.14163         14.6512         1.27512 
        3.15734         14.4981         1.25894 
        3.17308         14.3366           1.243 
        3.18879         14.2467         1.22738 
        3.20447         14.1186         1.21204 
         3.2202         13.9835         1.19692 
         3.2359         13.8214         1.18209 
        3.25157         13.7328         1.16754 
        3.26729         13.6423         1.15318 
        3.28304         13.5028         1.13904 
        3.29877         13.3197         1.12516 
        3.31446         13.2165         1.11153 
        3.33014         13.1156         1.09814 
        3.34585         12.9724         1.08495 
        3.36158         12.8846         1.07196 
        3.37727         12.7612         1.05921 
        3.39294         12.6257         1.04669 
        3.40867          12.514         1.03432 
        3.42439         12.4239         1.02215 
        3.44008         12.3065         1.01021 
        3.45578         12.2007        0.998441 
        3.47153          12.114        0.986836 
        3.48724         11.9746        0.975435 
        3.50292          11.942        0.964239 
        3.51859         11.7745        0.953223 
        3.53431         11.6936        0.942344 
        3.55007         11.6095        0.931607 
        3.56577         11.4984        0.921079 
        3.58146         11.4177        0.910716 
        3.59719         11.2721        0.900488 
        3.61292         11.2007         0.89042 
        3.62859         11.0961        0.880543 
        3.64429         11.0235        0.870795 
        3.66003         10.9258        0.861165 
        3.67578         10.8733        0.851682 
        3.69146         10.7561        0.842377 
        3.70712         10.6375        0.833227 
        3.72284         10.5853        0.824179 
        3.73853         10.4568        0.815279 
        3.75422          10.335        0.806507 
        3.76993         10.2914        0.797855 
        3.78564         10.1858        0.789333 
        3.80137         10.1356        0.780921 
        3.81707         10.0558        0.772648 
        3.83279         9.95171        0.764488 
        3.84853         9.86482        0.756431 
        3.86424         9.75192        0.748506 
        3.87992         9.69004        0.740705 
        3.89561         9.60255        0.733014 
        3.91134         9.53442        0.725416 
        3.92704         9.44788        0.717934 
        3.94273          9.3678        0.710564 
        3.95845          9.2972        0.703283 
        3.97418         9.24542        0.696102 
        3.98988         9.14075        0.689031 
        4.00554         9.10352        0.682076 
        4.02125         9.02035        0.675197 
        4.03698          8.9041        0.668401 
        4.05268         8.85663        0.661714 
        4.06839         8.79927        0.655112 
         4.0841         8.67438        0.648602 
        4.09983         8.60941        0.642171 
        4.11555         8.57843        0.635829 
        4.13124         8.49068         0.62959 
        4.14693         8.43698        0.623428 
        4.16266         8.33568        0.617334 
        4.17839         8.28989        0.611325 
        4.19408         8.21818        0.605409 
        4.20977         8.15877        0.599568 
        4.22551         8.08692        0.593789 
        4.24123         8.02582        0.588092 
        4.25691         7.97703        0.582485 
        4.27259         7.89395        0.576949 
        4.28831         7.83251        0.571473 
        4.30404         7.76339        0.566062 
        4.31974         7.72374        0.560733 
        4.33543         7.65811        0.555475 
        4.35116         7.59628        0.550271 
        4.36688          7.5375        0.545136 
        4.38255         7.46458        0.540085 
        4.39825         7.41237        0.535086 
        4.41398         7.35031         0.53014 
         4.4297         7.28839        0.525262 
        4.44541         7.23833        0.520446 
        4.46111         7.19118        0.515693 
        4.47683         7.12796        0.510995 
        4.49251         7.08369        0.506366 
        4.50819         7.00628        0.501794 
         4.5239         6.95958        0.497272 
        4.53962         6.90995          0.4928 
        4.55535         6.84911         0.48838 
        4.57106         6.79675        0.484021 
        4.58678         6.75348        0.479713 
         4.6025         6.68271        0.475457 
        4.61821         6.64151        0.471252 
        4.63391         6.59231        0.467103 
         4.6496         6.56101        0.463006 
        4.66532         6.49152        0.458951 
        4.68103         6.44809        0.454947 
        4.69673         6.40299        0.450993 
        4.71241         6.35318         0.44709 
        4.72811         6.28174        0.443226 
        4.74384         6.25684        0.439403 
        4.75955         6.20381        0.435631 
        4.77525         6.17371        0.431905 
        4.79096         6.11337        0.428217 
        4.80669         6.05995         0.42457 
         4.8224         6.01368         0.42097 
        4.83809         5.97523        0.417415 
        4.85379         5.93128        0.413899 
         4.8695         5.89007         0.41042 
        4.88521         5.85457        0.406982 
        4.90093         5.78666        0.403583 
        4.91663         5.75719        0.400225 
        4.93234         5.69932        0.396902 
        4.94807         5.68099        0.393614 
        4.96377         5.62728        0.390369 
        4.97943         5.60365        0.387167 
        4.99514         5.54538        0.383993 
        5.01086         5.50927        0.380852 
        5.02654         5.47654        0.377753 
        5.04227         5.44015         0.37468 
          5.058          5.3967        0.371639 
        5.07371         5.35981        0.368638 
        5.08942          5.3155        0.365669 
        5.10513          5.2728        0.362732 
        5.12084         5.23998        0.359826 
        5.13656         5.21063        0.356953 
        5.15225         5.16724        0.354115 
        5.16796          5.1339        0.351303 
        5.18369         5.09072        0.348519 
         5.1994          5.0534         0.34577 
        5.21509         5.03224        0.343053 
        5.23079         4.98187        0.340362 
        5.24649         4.95578        0.337702 
        5.26217         4.92364        0.335071 
        5.27788          4.8838        0.332465 
        5.29359         4.85869        0.329886 
        5.30933         4.82521         0.32733 
        5.32504         4.79479        0.324806 
        5.34073          4.7552         0.32231 
        5.35646         4.72003        0.319836 
        5.37218         4.69532        0.317387 
        5.38789         4.66197        0.314967 
        5.40357         4.62149        0.312576 
        5.41929         4.59983        0.310203 
        5.43502         4.56648        0.307855 
         5.4507         4.53154        0.305537 
        5.46639         4.50209        0.303242 
        5.48212         4.46434        0.300965 
        5.49786         4.43911        0.298708 
        5.51353         4.39639        0.296486 
        5.52921         4.38431        0.294284 
        5.54495         4.35421        0.292098 
        5.56066         4.32273        0.289936 
        5.57637         4.29358        0.287796 
        5.59207         4.26779        0.285679 
        5.60778          4.2316        0.283583 
        5.62346         4.20598        0.281511 
        5.63916         4.17682        0.279457 
        5.65487         4.15067        0.277422 
         5.6706         4.13019        0.275406 
        5.68633           4.094        0.273408 
        5.70203         4.06938        0.271434 
        5.71773         4.05088         0.26948 
        5.73344         4.01616        0.267544 
        5.74916         3.98733        0.265625 
        5.76486         3.96888        0.263728 
        5.78054         3.94506        0.261851 
        5.79626         3.90889        0.259988 
          5.812         3.89293        0.258141 
         5.8277         3.86781        0.256317 
        5.84339         3.84293         0.25451 
        5.85911         3.81801        0.252717 
        5.87484         3.79915        0.250942 
        5.89053         3.77295        0.249187 
        5.90623         3.74601        0.247448 
        5.92195         3.71809        0.245723 
        5.93767         3.69573        0.244015 
        5.95336          3.6772        0.242326 
        5.96905         3.65149        0.240653 
        5.98476         3.62761        0.238993 
        6.00048         3.61319        0.237349 
        6.01617         3.58506        0.235722 
        6.03185         3.55639        0.234112 
        6.04756         3.53507        0.232514 
        6.06331         3.51707        0.230927 
        6.07903         3.49411        0.229357 
        6.09473         3.47917        0.227804 
        6.11044         3.44484        0.226264 
        6.12616          3.4272        0.224738 
        6.14186         3.41106        0.223227 
        6.15755         3.38253        0.221731 
        6.17326         3.37626        0.220247 
        6.18898         3.34966        0.218775 
        6.20467         3.33397         0.21732 
        6.22036          3.3105        0.215878 
         6.2361         3.28685        0.214445 
         6.2518         3.26573        0.213027 
        6.26748         3.25277        0.211625 
        6.28319         3.22935        0.210232 
        6.29893         3.20417         0.20885 
        6.31463         3.19038        0.207483 
        6.33033         3.17613        0.206128 
        6.34604         3.15096        0.204785 
        6.36177         3.13334        0.203452 
        6.37747         3.12137        0.202133 
