# k  (h/Mpc)    Pcb(k)  (Mpc/h)^3    Pcb_linear(k) (Mpc/h)^3   ShotnoiseSubtracted = true
      0.0200456           20419         20740.6 
      0.0350414         14441.1         13935.4 
      0.0492313         9264.71         9371.98 
      0.0637834         7256.87         7516.61 
      0.0800726         5753.97         6071.66 
       0.096163          4546.8         4318.99 
       0.111083         3511.09         3229.64 
       0.126058         2851.56         2789.24 
       0.142273         2542.51         2457.78 
       0.158546         2084.72         1952.71 
        0.17375         1794.92         1554.04 
       0.188953         1667.83         1360.99 
       0.204907         1435.34         1241.85 
       0.220756         1300.07            1075 
        0.23588         1145.65         904.969 
         0.2514         1019.99         791.233 
       0.267535         986.433         723.282 
       0.283568         870.997         653.125 
       0.299022         826.561         575.027 
       0.314451         852.484         510.907 
       0.330372          735.87         466.311 
       0.346141         675.812         429.333 
       0.361624         646.442          390.38 
       0.377134         615.188         353.514 
       0.392932          585.88         323.866 
       0.408854         560.227         299.748 
       0.424564         544.226         277.115 
       0.440253         496.901         255.161 
       0.455999         473.992         235.754 
       0.471626         482.177         219.511 
        0.48727         452.784          204.91 
       0.502856         427.114         191.083 
       0.518488         418.428         178.267 
       0.534347         396.843          166.73 
       0.550082         377.798         156.492 
       0.565732          374.05         147.064 
       0.581496         362.671         138.198 
       0.597222         352.949         130.092 
       0.612804          342.85         122.787 
       0.628434         329.593         116.033 
       0.644267         317.123          109.67 
       0.660051         313.305         103.767 
       0.675724         305.481          98.355 
       0.691403         299.225         93.3461 
       0.707174         287.767         88.6574 
       0.722871         283.549         84.3051 
        0.73838         277.684         80.2878 
       0.754018          267.99         76.4989 
       0.769845         267.087         72.9104 
        0.78569          259.34         69.5465 
       0.801365         250.926         66.4258 
       0.817031         249.563         63.4974 
       0.832809         243.521         60.7259 
       0.848511         238.324         58.1317 
       0.864097         231.116         55.7066 
       0.879701         230.709         53.4174 
       0.895507          224.05         51.2298 
       0.911279         218.511         49.1692 
        0.92691         215.872         47.2387 
       0.942635         213.193         45.4012 
       0.958396         207.436         43.6574 
       0.974128         205.143         42.0082 
       0.989692         197.579         40.4603 
        1.00528         197.222          38.988 
        1.02113         194.449         37.5658 
        1.03692         189.772         36.2196 
        1.05264         186.055         34.9454 
        1.06832         185.192         33.7343 
        1.08405         180.543         32.5772 
        1.09979         178.379         31.4735 
        1.11537         175.955         30.4317 
        1.13105         172.036         29.4306 
        1.14679         170.611         28.4706 
        1.16256         167.551         27.5514 
        1.17828         165.642         26.6757 
        1.19395         161.514         25.8408 
         1.2097         160.786         25.0373 
        1.22537         158.805         24.2718 
          1.241           153.7         23.5404 
        1.25666         153.237         22.8372 
        1.27241         150.173         22.1594 
        1.28819         148.482         21.5078 
        1.30392         146.887         20.8843 
        1.31957          143.06         20.2881 
        1.33529         140.623          19.713 
        1.35108          139.89         19.1578 
        1.36674         136.566         18.6279 
         1.3824         135.605         18.1184 
        1.39811         134.081         17.6262 
        1.41389         130.768         17.1504 
        1.42964         128.888         16.6928 
        1.44531         128.082         16.2542 
        1.46101         125.353         15.8303 
        1.47667         124.792         15.4227 
        1.49229         122.993         15.0305 
        1.50793         120.416         14.6514 
        1.52367          118.81          14.283 
        1.53953         116.615         13.9247 
        1.55526         115.852         13.5814 
        1.57092         114.859         13.2512 
        1.58662         112.402          12.931 
        1.60235         111.065         12.6208 
        1.61809          109.62         12.3206 
        1.63369         107.614         12.0327 
        1.64941          107.11          11.752 
        1.66519         105.324         11.4791 
        1.68085          103.33         11.2168 
        1.69652         102.461         10.9626 
        1.71228         100.837         10.7148 
        1.72806         100.418         10.4744 
        1.74368         99.0536         10.2438 
        1.75933         97.8123         10.0196 
        1.77505         96.4265         9.80108 
        1.79081         94.7209         9.58864 
         1.8065         93.1209         9.38337 
        1.82218         92.1286         9.18426 
        1.83797         91.6221         8.98954 
        1.85367         90.2747         8.80151 
        1.86928         89.5498         8.61997 
        1.88497         87.6929         8.44252 
        1.90073         87.0472          8.2694 
        1.91647         85.6326         8.10126 
        1.93218         84.6603         7.93812 
        1.94787          83.162          7.7797 
        1.96363         82.5574         7.62495 
        1.97935         81.5932         7.47471 
        1.99499         80.9441         7.32934 
        2.01064         79.3099         7.18761 
         2.0264         78.5056         7.04872 
        2.04216         77.3349         6.91355 
        2.05781         76.3282         6.78276 
        2.07353         75.7517         6.65487 
        2.08928         74.6977         6.52998 
        2.10499           73.81         6.40861 
        2.12065         72.9533         6.29068 
        2.13633         71.9121         6.17559 
        2.15211         70.8217         6.06263 
        2.16785         69.9509         5.95279 
        2.18349         68.8983         5.84635 
        2.19916         68.3254         5.74227 
        2.21489         67.6324         5.64037 
        2.23063         66.4094         5.54086 
         2.2463         65.7342         5.44419 
        2.26194          65.324         5.35005 
        2.27765         64.1204         5.25764 
        2.29341         63.4665         5.16716 
        2.30914         62.6288         5.07899 
        2.32486         61.9064         4.99291 
        2.34061         60.9542         4.90867 
        2.35635          60.452         4.82644 
        2.37203         59.4729         4.74637 
        2.38768         59.0432         4.66827 
        2.40339         58.3225         4.59163 
        2.41914         57.3405         4.51653 
        2.43483         57.0073         4.44336 
         2.4505         56.2623         4.37193 
        2.46622         55.7272         4.30181 
        2.48195         55.0701         4.23322 
        2.49759         54.4165         4.16648 
        2.51328         53.6519           4.101 
        2.52906         53.0877          4.0365 
        2.54479         52.5679         3.97362 
        2.56049         51.7737          3.9122 
        2.57618         51.2874         3.85211 
        2.59189         50.6821          3.7932 
        2.60758          49.988          3.7356 
        2.62325         49.5481         3.67926 
        2.63898         49.1116         3.62388 
        2.65468         48.4758         3.56975 
        2.67044         48.0355         3.51648 
        2.68618         47.6173         3.46442 
        2.70184         46.9714         3.41361 
        2.71755         46.3492          3.3637 
        2.73329         45.7593         3.31469 
        2.74897          45.281         3.26682 
        2.76462         44.8868         3.21999 
        2.78034         44.4724         3.17388 
        2.79607         44.0161         3.12862 
        2.81179         43.4131         3.08429 
        2.82749         42.9754         3.04087 
        2.84321          42.513         2.99822 
        2.85893         41.9751          2.9564 
        2.87462         41.6723         2.91545 
        2.89033         40.9378         2.87523 
        2.90605         40.4888         2.83573 
        2.92176         40.3302         2.79698 
        2.93747         39.8381         2.75898 
        2.95318         39.3551         2.72167 
        2.96891          38.929         2.68502 
        2.98456         38.5179         2.64921 
        3.00023         38.0559           2.614 
        3.01596         37.4768         2.57932 
        3.03164          37.126         2.54535 
        3.04738         36.8105          2.5119 
         3.0631         36.5193         2.47906 
        3.07883         36.1045          2.4468 
        3.09456         35.6908         2.41511 
        3.11026         35.4172         2.38403 
        3.12596         35.0479          2.3535 
        3.14163         34.5789         2.32357 
        3.15734         34.2894         2.29408 
        3.17308         33.9839         2.26504 
        3.18879         33.6524         2.23657 
        3.20447         33.2182         2.20863 
         3.2202         32.9251         2.18108 
         3.2359          32.611         2.15404 
        3.25157         32.2571         2.12753 
        3.26729         31.9514         2.10137 
        3.28304         31.6009         2.07561 
        3.29877          31.199          2.0503 
        3.31446         30.9702         2.02547 
        3.33014         30.6087         2.00107 
        3.34585         30.2624         1.97704 
        3.36158         30.0142         1.95336 
        3.37727         29.6701         1.93013 
        3.39294         29.3859         1.90731 
        3.40867         29.1076         1.88477 
        3.42439         28.8424          1.8626 
        3.44008         28.5452         1.84083 
        3.45578         28.2731         1.81939 
        3.47153         27.9893         1.79825 
        3.48724         27.6921         1.77747 
        3.50292         27.5088         1.75707 
        3.51859         27.1673           1.737 
        3.53431         26.9727         1.71717 
        3.55007         26.6548         1.69761 
        3.56577         26.4233         1.67842 
        3.58146         26.1619         1.65954 
        3.59719         25.9232          1.6409 
        3.61292         25.6628         1.62256 
        3.62859         25.3607         1.60456 
        3.64429         25.1505         1.58679 
        3.66003          24.963         1.56924 
        3.67578         24.6609         1.55197 
        3.69146         24.4337         1.53501 
        3.70712         24.1767         1.51834 
        3.72284         24.0197         1.50185 
        3.73853          23.836         1.48563 
        3.75422         23.5423         1.46965 
        3.76993          23.353         1.45388 
        3.78564         23.1732         1.43835 
        3.80137         22.9597         1.42302 
        3.81707         22.7255         1.40795 
        3.83279         22.5197         1.39308 
        3.84853         22.2238          1.3784 
        3.86424         22.0686         1.36395 
        3.87992          21.893         1.34974 
        3.89561         21.6236         1.33572 
        3.91134         21.3761         1.32188 
        3.92704         21.2257         1.30824 
        3.94273         21.0584         1.29481 
        3.95845         20.9001         1.28155 
        3.97418         20.6794         1.26846 
        3.98988         20.3962         1.25558 
        4.00554          20.243          1.2429 
        4.02125         20.1159         1.23037 
        4.03698         19.8683         1.21798 
        4.05268          19.732          1.2058 
        4.06839         19.5198         1.19377 
         4.0841         19.3406         1.18191 
        4.09983         19.1695         1.17019 
        4.11555         18.9914         1.15863 
        4.13124         18.9033         1.14726 
        4.14693         18.6726         1.13603 
        4.16266         18.4898         1.12493 
        4.17839         18.3998         1.11398 
        4.19408           18.21          1.1032 
        4.20977         18.0507         1.09255 
        4.22551         17.8854         1.08202 
        4.24123         17.7521         1.07164 
        4.25691         17.5831         1.06143 
        4.27259         17.4265         1.05134 
        4.28831         17.3133         1.04136 
        4.30404         17.1427          1.0315 
        4.31974         16.9889         1.02179 
        4.33543          16.837         1.01221 
        4.35116         16.7087         1.00272 
        4.36688         16.5501        0.993366 
        4.38255         16.3978        0.984162 
        4.39825         16.2731        0.975053 
        4.41398         16.1777        0.966041 
         4.4297         15.9547        0.957151 
        4.44541         15.9101        0.948375 
        4.46111         15.6872        0.939714 
        4.47683         15.6012        0.931154 
        4.49251         15.4822        0.922718 
        4.50819         15.3091        0.914387 
         4.5239         15.2015        0.906147 
        4.53962         15.0632        0.897998 
        4.55535         14.9572        0.889944 
        4.57106         14.8384           0.882 
        4.58678         14.6707         0.87415 
         4.6025          14.592        0.866394 
        4.61821         14.4446        0.858732 
        4.63391         14.3323        0.851173 
         4.6496          14.211        0.843706 
        4.66532         14.0737        0.836317 
        4.68103          13.999         0.82902 
        4.69673         13.8728        0.821815 
        4.71241         13.7578        0.814703 
        4.72811         13.6469        0.807663 
        4.74384         13.5391        0.800697 
        4.75955         13.4362        0.793822 
        4.77525         13.3229        0.787032 
        4.79096         13.2021        0.780312 
        4.80669         13.1024        0.773667 
         4.8224          12.981        0.767107 
        4.83809         12.8746        0.760628 
        4.85379         12.7737        0.754221 
         4.8695         12.6705        0.747881 
        4.88521         12.5647        0.741617 
        4.90093         12.5028        0.735422 
        4.91663         12.3671        0.729304 
        4.93234         12.2702        0.723248 
        4.94807         12.1879        0.717257 
        4.96377         12.0799        0.711344 
        4.97943         11.9871         0.70551 
        4.99514         11.8947        0.699725 
        5.01086         11.8166        0.694001 
        5.02654         11.7238        0.688355 
        5.04227          11.598        0.682755 
          5.058         11.5314        0.677214 
        5.07371         11.4459        0.671745 
        5.08942         11.3728        0.666335 
        5.10513         11.2614        0.660984 
        5.12084         11.1878        0.655688 
        5.13656         11.0887        0.650452 
        5.15225         10.9989         0.64528 
        5.16796         10.9381        0.640157 
        5.18369         10.8291        0.635084 
         5.1994         10.7531        0.630075 
        5.21509         10.6794        0.625124 
        5.23079         10.5955         0.62022 
        5.24649         10.5188        0.615372 
        5.26217         10.4173        0.610579 
        5.27788         10.3602        0.605829 
        5.29359         10.2777         0.60113 
        5.30933         10.2003        0.596473 
        5.32504         10.1379        0.591872 
        5.34073         10.0435        0.587325 
        5.35646         9.97372        0.582817 
        5.37218         9.88504        0.578354 
        5.38789         9.84557        0.573945 
        5.40357         9.75035        0.569587 
        5.41929         9.67791        0.565264 
        5.43502         9.61079        0.560985 
         5.4507         9.53532         0.55676 
        5.46639         9.46548        0.552578 
        5.48212         9.38213        0.548429 
        5.49786         9.32619        0.544317 
        5.51353         9.27018        0.540267 
        5.52921         9.19741        0.536255 
        5.54495         9.13446        0.532271 
        5.56066         9.05547        0.528331 
        5.57637         8.99157        0.524432 
        5.59207          8.9493        0.520575 
        5.60778         8.87113        0.516755 
        5.62346         8.81438        0.512979 
        5.63916         8.75125        0.509236 
        5.65487         8.69875        0.505529 
         5.6706         8.62216        0.501854 
        5.68633         8.55157        0.498214 
        5.70203         8.49939        0.494617 
        5.71773         8.43511        0.491056 
        5.73344         8.37823        0.487528 
        5.74916         8.31956        0.484032 
        5.76486         8.26809        0.480574 
        5.78054         8.18728        0.477155 
        5.79626         8.13908        0.473759 
          5.812         8.07897        0.470393 
         5.8277         8.01119        0.467069 
        5.84339         7.97663        0.463777 
        5.85911         7.92488        0.460511 
        5.87484         7.86765        0.457276 
        5.89053          7.8161        0.454078 
        5.90623          7.7529        0.450909 
        5.92195         7.68174        0.447765 
        5.93767         7.64637        0.444652 
        5.95336         7.59242        0.441574 
        5.96905         7.53829        0.438526 
        5.98476         7.49352        0.435502 
        6.00048         7.43598        0.432506 
        6.01617         7.39846        0.429541 
        6.03185         7.33015        0.426608 
        6.04756         7.28457        0.423695 
        6.06331         7.22781        0.420803 
        6.07903         7.19355        0.417943 
        6.09473          7.1412        0.415113 
        6.11044         7.08846        0.412306 
        6.12616         7.04153        0.409525 
        6.14186         6.99693        0.406773 
        6.15755         6.96028        0.404046 
        6.17326         6.88771        0.401342 
        6.18898         6.87457         0.39866 
        6.20467         6.80588        0.396008 
        6.22036         6.77364        0.393381 
         6.2361         6.71829        0.390769 
         6.2518         6.68699        0.388186 
        6.26748         6.63269        0.385631 
        6.28319         6.60099        0.383093 
        6.29893         6.54707        0.380574 
        6.31463         6.49994        0.378083 
        6.33033         6.46866        0.375614 
        6.34604         6.41879        0.373166 
        6.36177         6.37618        0.370737 
        6.37747         6.34316        0.368334 
