# k  (h/Mpc)    Pcb(k)  (Mpc/h)^3    Pcb_linear(k) (Mpc/h)^3   ShotnoiseSubtracted = true
      0.0200456         491.988         497.834 
      0.0350414         338.353          334.49 
      0.0492313          226.26         224.954 
      0.0637834          180.07          180.42 
      0.0800726         144.144         145.737 
       0.096163         104.894         103.668 
       0.111083         78.9577         77.5206 
       0.126058         66.8817         66.9497 
       0.142273         58.4448         58.9937 
       0.158546         46.9493         46.8705 
        0.17375         37.8499         37.3013 
       0.188953         32.9415         32.6676 
       0.204907         29.3703         29.8078 
       0.220756          25.826          25.803 
        0.23588          21.837         21.7218 
         0.2514         19.1453         18.9918 
       0.267535          17.498         17.3608 
       0.283568         15.7409         15.6768 
       0.299022         13.9375         13.8023 
       0.314451          12.583         12.2632 
       0.330372         11.3608         11.1928 
       0.346141         10.4342         10.3052 
       0.361624         9.47388         9.37023 
       0.377134         8.57108         8.48534 
       0.392932         8.03562         7.77371 
       0.408854         7.29145         7.19482 
       0.424564         6.86329         6.65155 
       0.440253         6.25523         6.12459 
       0.455999         5.72164         5.65878 
       0.471626         5.33103         5.26889 
        0.48727         5.06566         4.91843 
       0.502856         4.73748         4.58653 
       0.518488         4.34533         4.27893 
       0.534347         4.04477         4.00199 
       0.550082         3.85484         3.75626 
       0.565732         3.66473         3.52996 
       0.581496         3.41718         3.31716 
       0.597222         3.21295         3.12257 
       0.612804         3.02079         2.94724 
       0.628434         2.87271         2.78513 
       0.644267          2.7257         2.63238 
       0.660051         2.57618          2.4907 
       0.675724         2.42464          2.3608 
       0.691403         2.31179         2.24057 
       0.707174         2.19274         2.12803 
       0.722871         2.12752         2.02356 
        0.73838         1.98311         1.92714 
       0.754018         1.88928         1.83619 
       0.769845         1.78605         1.75006 
        0.78569         1.73018         1.66931 
       0.801365         1.65334         1.59441 
       0.817031         1.58551         1.52412 
       0.832809         1.50279          1.4576 
       0.848511         1.44643         1.39533 
       0.864097         1.39214         1.33712 
       0.879701         1.34453         1.28217 
       0.895507         1.27282         1.22966 
       0.911279         1.23089          1.1802 
        0.92691         1.19274         1.13386 
       0.942635         1.12911         1.08976 
       0.958396         1.09202          1.0479 
       0.974128         1.05378         1.00832 
       0.989692         1.01181        0.971163 
        1.00528        0.971695        0.935823 
        1.02113        0.946054        0.901686 
        1.03692        0.917977        0.869374 
        1.05264        0.874725         0.83879 
        1.06832          0.8485         0.80972 
        1.08405        0.813665        0.781945 
        1.09979          0.7922        0.755453 
        1.11537        0.761639        0.730447 
        1.13105        0.731891        0.706419 
        1.14679         0.71456        0.683376 
        1.16256        0.691927        0.661313 
        1.17828        0.673068        0.640293 
        1.19395         0.65059        0.620253 
         1.2097        0.627795        0.600967 
        1.22537        0.606289        0.582591 
          1.241        0.590419        0.565036 
        1.25666        0.577308        0.548158 
        1.27241        0.557301        0.531888 
        1.28819        0.537913        0.516249 
        1.30392        0.524943        0.501282 
        1.31957        0.509658        0.486972 
        1.33529        0.493202        0.473167 
        1.35108        0.479972        0.459841 
        1.36674        0.466191        0.447121 
         1.3824         0.45703        0.434893 
        1.39811         0.44179        0.423079 
        1.41389        0.430435        0.411658 
        1.42964        0.419057        0.400676 
        1.44531        0.407192        0.390146 
        1.46101        0.394912        0.379972 
        1.47667        0.386623        0.370189 
        1.49229        0.374552        0.360775 
        1.50793        0.366851        0.351676 
        1.52367        0.355815        0.342832 
        1.53953        0.346439        0.334231 
        1.55526        0.339148        0.325993 
        1.57092        0.333584        0.318065 
        1.58662        0.325212        0.310381 
        1.60235        0.316361        0.302935 
        1.61809        0.307142        0.295729 
        1.63369        0.298725        0.288819 
        1.64941        0.293462         0.28208 
        1.66519        0.287817        0.275531 
        1.68085        0.278848        0.269236 
        1.69652        0.272877        0.263134 
        1.71228        0.266154        0.257186 
        1.72806        0.261127        0.251416 
        1.74368        0.254885         0.24588 
        1.75933        0.249737          0.2405 
        1.77505        0.244821        0.235254 
        1.79081        0.237179        0.230155 
         1.8065        0.234288        0.225228 
        1.82218        0.227341        0.220448 
        1.83797        0.220914        0.215775 
        1.85367        0.218568        0.211261 
        1.86928        0.212944        0.206904 
        1.88497        0.207689        0.202645 
        1.90073        0.204541        0.198489 
        1.91647        0.200046        0.194453 
        1.93218        0.196569        0.190538 
        1.94787        0.191619        0.186735 
        1.96363        0.187847        0.183021 
        1.97935        0.183786        0.179414 
        1.99499        0.180205        0.175925 
        2.01064        0.176767        0.172523 
         2.0264        0.172981        0.169189 
        2.04216         0.16892        0.165945 
        2.05781        0.166226        0.162806 
        2.07353        0.163068        0.159736 
        2.08928          0.1605        0.156738 
        2.10499        0.156459        0.153825 
        2.12065        0.153716        0.150994 
        2.13633        0.150799        0.148232 
        2.15211        0.148247         0.14552 
        2.16785        0.145308        0.142884 
        2.18349        0.142746        0.140329 
        2.19916        0.139269        0.137831 
        2.21489        0.136679        0.135385 
        2.23063        0.134381        0.132997 
         2.2463        0.132116        0.130676 
        2.26194        0.129871        0.128416 
        2.27765        0.127259        0.126198 
        2.29341         0.12493        0.124027 
        2.30914        0.122368         0.12191 
        2.32486        0.120416        0.119844 
        2.34061          0.1182        0.117822 
        2.35635        0.116302        0.115848 
        2.37203        0.114929        0.113926 
        2.38768        0.112609        0.112052 
        2.40339        0.110398        0.110212 
        2.41914        0.108727         0.10841 
        2.43483        0.106687        0.106653 
         2.4505        0.104784        0.104939 
        2.46622        0.103042        0.103256 
        2.48195        0.101297        0.101609 
        2.49759       0.0999657        0.100007 
        2.51328       0.0973323       0.0984356 
        2.52906       0.0961567       0.0968874 
        2.54479        0.094631       0.0953782 
        2.56049       0.0928059       0.0939038 
        2.57618       0.0918888       0.0924617 
        2.59189       0.0899553       0.0910475 
        2.60758       0.0888998        0.089665 
        2.62325       0.0871284       0.0883127 
        2.63898         0.08618       0.0869834 
        2.65468       0.0842526        0.085684 
        2.67044       0.0830873       0.0844056 
        2.68618       0.0816897        0.083156 
        2.70184       0.0807718       0.0819365 
        2.71755       0.0792085       0.0807383 
        2.73329        0.078155        0.079562 
        2.74897       0.0767875       0.0784129 
        2.76462       0.0755695        0.077289 
        2.78034        0.074417       0.0761822 
        2.79607       0.0735763       0.0750959 
        2.81179        0.071926       0.0740318 
        2.82749       0.0712003       0.0729894 
        2.84321       0.0702178       0.0719658 
        2.85893       0.0688672       0.0709621 
        2.87462       0.0681378        0.069979 
        2.89033       0.0669246       0.0690136 
        2.90605       0.0661432       0.0680655 
        2.92176       0.0652194       0.0671355 
        2.93747       0.0640672       0.0662233 
        2.95318       0.0634129       0.0653277 
        2.96891       0.0624908       0.0644482 
        2.98456       0.0616898       0.0635887 
        3.00023       0.0606601       0.0627435 
        3.01596       0.0596673       0.0619109 
        3.03164       0.0587729       0.0610958 
        3.04738       0.0581733       0.0602928 
         3.0631       0.0572186       0.0595044 
        3.07883       0.0564709       0.0587301 
        3.09456       0.0558479       0.0579695 
        3.11026        0.054815       0.0572235 
        3.12596       0.0543223       0.0564906 
        3.14163       0.0535372       0.0557722 
        3.15734       0.0529975       0.0550645 
        3.17308       0.0521661       0.0543673 
        3.18879       0.0514908        0.053684 
        3.20447       0.0507291       0.0530134 
         3.2202       0.0501279       0.0523521 
         3.2359       0.0495064       0.0517031 
        3.25157       0.0488418       0.0510667 
        3.26729       0.0482637       0.0504389 
        3.28304       0.0478073       0.0498205 
        3.29877       0.0469977       0.0492131 
        3.31446       0.0464729       0.0486171 
        3.33014       0.0461336       0.0480314 
        3.34585       0.0452491       0.0474545 
        3.36158        0.044723       0.0468861 
        3.37727       0.0442187       0.0463287 
        3.39294       0.0438106       0.0457808 
        3.40867       0.0432596       0.0452398 
        3.42439       0.0427465       0.0447078 
        3.44008       0.0423627       0.0441853 
        3.45578       0.0418643       0.0436707 
        3.47153       0.0414029       0.0431631 
        3.48724       0.0409256       0.0426644 
        3.50292       0.0405537       0.0421747 
        3.51859       0.0401421       0.0416929 
        3.53431       0.0395986        0.041217 
        3.55007       0.0392006       0.0407474 
        3.56577       0.0388048       0.0402869 
        3.58146       0.0383631       0.0398337 
        3.59719       0.0378789       0.0393863 
        3.61292       0.0374925       0.0389459 
        3.62859       0.0371412       0.0385139 
        3.64429       0.0367384       0.0380876 
        3.66003       0.0365851       0.0376663 
        3.67578        0.036112       0.0372516 
        3.69146       0.0357927       0.0368446 
        3.70712        0.035436       0.0364444 
        3.72284       0.0349473       0.0360486 
        3.73853       0.0348098       0.0356594 
        3.75422        0.034359       0.0352757 
        3.76993       0.0340972       0.0348973 
        3.78564        0.033846       0.0345245 
        3.80137       0.0335055       0.0341566 
        3.81707       0.0330292       0.0337947 
        3.83279       0.0328389       0.0334378 
        3.84853       0.0325748       0.0330854 
        3.86424       0.0323283       0.0327388 
        3.87992       0.0320296       0.0323976 
        3.89561        0.031649       0.0320612 
        3.91134       0.0314019       0.0317289 
        3.92704       0.0310672       0.0314016 
        3.94273       0.0307783       0.0310792 
        3.95845       0.0305478       0.0307608 
        3.97418       0.0302615       0.0304467 
        3.98988       0.0298116       0.0301374 
        4.00554       0.0296119       0.0298332 
        4.02125       0.0293561       0.0295323 
        4.03698        0.028886       0.0292351 
        4.05268       0.0286535       0.0289426 
        4.06839        0.028238       0.0286538 
         4.0841       0.0277494       0.0283691 
        4.09983       0.0274212       0.0280878 
        4.11555       0.0270819       0.0278104 
        4.13124       0.0267086       0.0275375 
        4.14693       0.0264003        0.027268 
        4.16266       0.0260161       0.0270015 
        4.17839       0.0257655       0.0267386 
        4.19408       0.0254175       0.0264799 
        4.20977       0.0252065       0.0262244 
        4.22551       0.0248892       0.0259716 
        4.24123       0.0246346       0.0257225 
        4.25691       0.0243683       0.0254772 
        4.27259       0.0241381       0.0252351 
        4.28831       0.0239742       0.0249956 
        4.30404       0.0237152       0.0247589 
        4.31974       0.0234613       0.0245258 
        4.33543       0.0233023       0.0242958 
        4.35116        0.023122       0.0240682 
        4.36688       0.0229505       0.0238436 
        4.38255       0.0227174       0.0236227 
        4.39825       0.0226481        0.023404 
        4.41398        0.022459       0.0231877 
         4.4297        0.022371       0.0229744 
        4.44541       0.0222215       0.0227637 
        4.46111       0.0221084       0.0225558 
        4.47683       0.0220289       0.0223503 
        4.49251       0.0219609       0.0221479 
        4.50819       0.0218421       0.0219479 
         4.5239       0.0217326       0.0217501 
        4.53962       0.0217507       0.0215545 
        4.55535        0.021713       0.0213612 
        4.57106       0.0216427       0.0211705 
        4.58678       0.0216269       0.0209821 
         4.6025       0.0215497       0.0207959 
        4.61821       0.0216542        0.020612 
        4.63391       0.0215847       0.0204306 
         4.6496       0.0215504       0.0202513 
        4.66532       0.0215698        0.020074 
        4.68103       0.0217007       0.0198988 
        4.69673       0.0216677       0.0197259 
        4.71241       0.0216768       0.0195552 
        4.72811       0.0216805       0.0193862 
        4.74384       0.0218018        0.019219 
        4.75955       0.0219141        0.019054 
        4.77525       0.0220048        0.018891 
        4.79096       0.0221147       0.0187297 
        4.80669       0.0221944       0.0185702 
         4.8224       0.0223474       0.0184127 
        4.83809       0.0223809       0.0182572 
        4.85379        0.022641       0.0181034 
         4.8695       0.0227441       0.0179513 
        4.88521       0.0229168       0.0178009 
        4.90093       0.0230437       0.0176522 
        4.91663        0.023261       0.0175054 
        4.93234       0.0233396         0.01736 
        4.94807        0.023628       0.0172162 
        4.96377       0.0238155       0.0170743 
        4.97943       0.0241197       0.0169342 
        4.99514       0.0242463       0.0167954 
        5.01086       0.0245163        0.016658 
        5.02654       0.0247482       0.0165225 
        5.04227       0.0250151       0.0163881 
          5.058       0.0253116       0.0162551 
        5.07371       0.0255735       0.0161238 
        5.08942       0.0259195       0.0159939 
        5.10513       0.0261961       0.0158655 
        5.12084        0.026615       0.0157384 
        5.13656       0.0269135       0.0156127 
        5.15225       0.0273131       0.0154886 
        5.16796       0.0276116       0.0153656 
        5.18369       0.0280565       0.0152438 
         5.1994       0.0283483       0.0151236 
        5.21509        0.028927       0.0150047 
        5.23079       0.0291726        0.014887 
        5.24649        0.029767       0.0147707 
        5.26217        0.030146       0.0146556 
        5.27788         0.03081       0.0145416 
        5.29359       0.0312719       0.0144288 
        5.30933       0.0316277        0.014317 
        5.32504       0.0322408       0.0142066 
        5.34073       0.0326132       0.0140975 
        5.35646       0.0332521       0.0139893 
        5.37218       0.0339101       0.0138821 
        5.38789       0.0345036       0.0137763 
        5.40357       0.0351596       0.0136717 
        5.41929       0.0358202       0.0135679 
        5.43502       0.0364916       0.0134652 
         5.4507       0.0370511       0.0133638 
        5.46639       0.0377212       0.0132634 
        5.48212       0.0384512       0.0131639 
        5.49786       0.0393549       0.0130652 
        5.51353       0.0402557        0.012968 
        5.52921       0.0407085       0.0128716 
        5.54495       0.0415769        0.012776 
        5.56066       0.0426341       0.0126814 
        5.57637       0.0435403       0.0125879 
        5.59207       0.0441218       0.0124953 
        5.60778       0.0450626       0.0124036 
        5.62346       0.0460847       0.0123129 
        5.63916        0.047149       0.0122231 
        5.65487       0.0483134       0.0121341 
         5.6706       0.0487695       0.0120459 
        5.68633       0.0500219       0.0119586 
        5.70203       0.0511092       0.0118722 
        5.71773         0.05258       0.0117868 
        5.73344        0.053792       0.0117021 
        5.74916       0.0551816       0.0116181 
        5.76486        0.056243       0.0115351 
        5.78054       0.0578191       0.0114531 
        5.79626       0.0585726       0.0113716 
          5.812       0.0603004       0.0112908 
         5.8277       0.0615401        0.011211 
        5.84339       0.0629381        0.011132 
        5.85911       0.0643778       0.0110536 
        5.87484       0.0657585       0.0109759 
        5.89053       0.0675629       0.0108992 
        5.90623       0.0693686       0.0108231 
        5.92195       0.0709514       0.0107476 
        5.93767       0.0725558       0.0106729 
        5.95336       0.0741104        0.010599 
        5.96905       0.0762705       0.0105259 
        5.98476       0.0776842       0.0104533 
        6.00048       0.0797985       0.0103814 
        6.01617       0.0820311       0.0103102 
        6.03185       0.0836025       0.0102398 
        6.04756       0.0857181       0.0101699 
        6.06331       0.0881392       0.0101005 
        6.07903       0.0900479       0.0100318 
        6.09473       0.0922185      0.00996389 
        6.11044       0.0949052      0.00989652 
        6.12616       0.0972592      0.00982978 
        6.14186       0.0993613      0.00976371 
        6.15755        0.101999      0.00969825 
        6.17326        0.104942      0.00963334 
        6.18898        0.108121      0.00956898 
        6.20467        0.110219      0.00950533 
        6.22036        0.114298      0.00944225 
         6.2361        0.115409      0.00937958 
         6.2518        0.119575      0.00931757 
        6.26748        0.121625      0.00925625 
        6.28319        0.124774      0.00919531 
        6.29893        0.129244      0.00913487 
        6.31463        0.132098      0.00907507 
        6.33033        0.134825      0.00901581 
        6.34604        0.139286      0.00895705 
        6.36177        0.142491      0.00889874 
        6.37747        0.145763      0.00884106 
