# k  (h/Mpc)    Pcb(k)  (Mpc/h)^3    Pcb_linear(k) (Mpc/h)^3   ShotnoiseSubtracted = true
      0.0200456         33177.5         33849.4 
      0.0350414         25280.9         24406.7 
      0.0492313         17623.6         18278.3 
      0.0637834           14239         15277.6 
      0.0800726           10768         11581.3 
       0.096163         8861.77         8460.41 
       0.111083         7448.24         7119.18 
       0.126058         6127.05         6239.28 
       0.142273         5291.17         4987.17 
       0.158546         4359.15         4013.59 
        0.17375         4036.73         3565.53 
       0.188953         3898.03         3173.11 
       0.204907         3333.36          2675.7 
       0.220756         3053.37         2296.59 
        0.23588         2743.89         2079.54 
         0.2514         2513.18         1871.97 
       0.267535         2397.75         1638.31 
       0.283568         2180.32         1455.02 
       0.299022         2070.93         1328.61 
       0.314451         2150.01         1210.74 
       0.330372         1975.14         1089.92 
       0.346141         1834.09         990.506 
       0.361624         1743.43         912.134 
       0.377134         1702.04         839.933 
       0.392932         1588.16         770.112 
       0.408854          1549.1         709.064 
       0.424564         1513.96         657.568 
       0.440253         1443.93         610.506 
       0.455999         1375.03         566.681 
       0.471626         1365.82         527.803 
        0.48727         1307.75          493.24 
       0.502856         1292.09         461.662 
       0.518488         1228.18         432.418 
       0.534347         1194.41         405.417 
       0.550082         1162.11         381.121 
       0.565732         1125.08         358.881 
       0.581496         1098.55         338.182 
       0.597222         1090.08         319.163 
       0.612804         1050.96         301.836 
       0.628434         1018.72         285.763 
       0.644267         999.841         270.665 
       0.660051         975.326         256.693 
       0.675724         963.424          243.79 
       0.691403         921.932         231.767 
       0.707174         903.454         220.491 
       0.722871         902.653         210.014 
        0.73838         862.995         200.332 
       0.754018         863.518          191.19 
       0.769845         834.729         182.522 
        0.78569         815.668         174.386 
       0.801365         800.213         166.829 
       0.817031         784.344         159.726 
       0.832809         769.739         152.994 
       0.848511         739.486         146.682 
       0.864097         735.365         140.771 
       0.879701          728.55         135.182 
       0.895507         713.797         129.831 
       0.911279         703.723         124.782 
        0.92691         689.678         120.045 
       0.942635         670.343         115.529 
       0.958396         668.703         111.236 
       0.974128         648.623         107.171 
       0.989692         641.773         103.349 
        1.00528         624.168          99.709 
        1.02113           611.8          96.188 
        1.03692         600.519         92.8509 
        1.05264         593.538         89.6882 
        1.06832         584.793         86.6784 
        1.08405          572.41         83.7993 
        1.09979         562.511         81.0499 
        1.11537         547.299         78.4516 
        1.13105         540.543         75.9523 
        1.14679         532.994         73.5526 
        1.16256         523.899         71.2524 
        1.17828         517.596         69.0585 
        1.19395         506.864         66.9648 
         1.2097         494.878         64.9475 
        1.22537         487.289         63.0235 
          1.241          477.54         61.1835 
        1.25666         465.776         59.4126 
        1.27241          463.26         57.7038 
        1.28819         455.269         56.0595 
        1.30392         447.946         54.4844 
        1.31957         438.389         52.9769 
        1.33529          432.56         51.5212 
        1.35108         430.002         50.1146 
        1.36674         420.889         48.7708 
         1.3824         415.298         47.4776 
        1.39811         407.975         46.2272 
        1.41389         404.331         45.0172 
        1.42964         392.165         43.8527 
        1.44531         390.611         42.7351 
        1.46101         381.238         41.6543 
        1.47667         376.133         40.6142 
        1.49229         373.198         39.6125 
        1.50793         361.225         38.6436 
        1.52367         359.733         37.7009 
        1.53953         352.416         36.7834 
        1.55526         344.903         35.9039 
        1.57092         340.483         35.0569 
        1.58662         337.056         34.2352 
        1.60235         330.994         33.4384 
        1.61809         324.185         32.6666 
        1.63369         320.151         31.9261 
        1.64941         316.748         31.2033 
        1.66519         311.452         30.5003 
        1.68085         303.953         29.8241 
        1.69652         300.706         29.1682 
        1.71228         297.081         28.5283 
        1.72806         290.944         27.9072 
        1.74368         287.511         27.3109 
        1.75933         283.398         26.7308 
        1.77505         279.385         26.1649 
        1.79081         276.328         25.6144 
         1.8065         271.947         25.0822 
        1.82218         266.404         24.5655 
        1.83797         263.263           24.06 
        1.85367         259.155         23.5714 
        1.86928         255.705         23.0994 
        1.88497          252.86         22.6378 
        1.90073         247.828         22.1871 
        1.91647          244.63         21.7491 
        1.93218         241.448         21.3239 
        1.94787         238.986         20.9107 
        1.96363           235.4         20.5069 
        1.97935         229.493         20.1145 
        1.99499         228.052         19.7347 
        2.01064         224.339         19.3641 
         2.0264         220.941         19.0007 
        2.04216         218.389         18.6469 
        2.05781         213.701         18.3043 
        2.07353         212.624         17.9691 
        2.08928         208.758         17.6416 
        2.10499         207.493         17.3231 
        2.12065         203.691         17.0135 
        2.13633         200.505         16.7112 
        2.15211         198.361         16.4143 
        2.16785         195.402         16.1254 
        2.18349         192.517         15.8454 
        2.19916         190.195         15.5713 
        2.21489         188.132         15.3029 
        2.23063         185.105         15.0406 
         2.2463         182.598         14.7857 
        2.26194         179.229         14.5373 
        2.27765         176.751         14.2934 
        2.29341         175.993         14.0544 
        2.30914         172.816         13.8214 
        2.32486         171.746         13.5938 
        2.34061         168.224          13.371 
        2.35635         166.693         13.1533 
        2.37203         165.068         12.9413 
        2.38768         162.221         12.7344 
        2.40339         160.068         12.5312 
        2.41914          158.95         12.3321 
        2.43483         156.129         12.1379 
         2.4505         154.003         11.9483 
        2.46622         152.252         11.7621 
        2.48195         150.773         11.5798 
        2.49759         148.591         11.4024 
        2.51328         146.458         11.2282 
        2.52906          145.07         11.0566 
        2.54479         142.935         10.8892 
        2.56049          140.89         10.7256 
        2.57618         139.701         10.5655 
        2.59189         138.256         10.4085 
        2.60758         136.391         10.2548 
        2.62325         134.291         10.1045 
        2.63898         132.656         9.95667 
        2.65468          130.94          9.8121 
        2.67044         129.507         9.66978 
        2.68618         128.003         9.53062 
        2.70184         126.944         9.39476 
        2.71755         124.596         9.26121 
        2.73329         123.578         9.13005 
        2.74897         122.335         9.00186 
        2.76462          120.92         8.87642 
        2.78034         119.379         8.75285 
        2.79607         118.233          8.6315 
        2.81179          115.73          8.5126 
        2.82749         115.075         8.39607 
        2.84321         113.826         8.28159 
        2.85893         112.086         8.16929 
        2.87462         110.968         8.05926 
        2.89033         110.103         7.95116 
        2.90605         108.173         7.84494 
        2.92176         107.615         7.74073 
        2.93747         106.275         7.63846 
        2.95318         104.941         7.53802 
        2.96891         103.973         7.43934 
        2.98456          102.81         7.34286 
        3.00023         101.735         7.24795 
        3.01596         100.742         7.15443 
        3.03164         99.4231         7.06283 
        3.04738         98.4211         6.97256 
         3.0631         97.0519          6.8839 
        3.07883         96.3467         6.79678 
        3.09456         95.4481         6.71119 
        3.11026         94.1067         6.62719 
        3.12596         92.9546         6.54465 
        3.14163         92.0549          6.4637 
        3.15734          91.031         6.38394 
        3.17308         90.1188         6.30533 
        3.18879         88.7535         6.22826 
        3.20447          88.137         6.15258 
         3.2202         87.0356         6.07794 
         3.2359          86.236         6.00466 
        3.25157         85.3688         5.93277 
        3.26729         84.3741         5.86183 
        3.28304         83.7623         5.79192 
        3.29877         82.6964         5.72324 
        3.31446         81.6509         5.65582 
        3.33014         81.3081         5.58955 
        3.34585          80.253         5.52424 
        3.36158         79.2076         5.45988 
        3.37727         78.3936         5.39674 
        3.39294         77.7148         5.33466 
        3.40867         77.0241         5.27333 
        3.42439         76.1549         5.21301 
        3.44008         75.3938         5.15374 
        3.45578         74.5708         5.09535 
        3.47153         73.7882         5.03773 
        3.48724         73.0172         4.98111 
        3.50292         72.3411         4.92549 
        3.51859          71.843         4.87075 
        3.53431         70.7812         4.81667 
        3.55007         70.1128         4.76328 
        3.56577          69.401          4.7109 
        3.58146         68.6906         4.65934 
        3.59719         68.0504         4.60843 
        3.61292         67.3598          4.5583 
        3.62859         66.8266         4.50911 
        3.64429         66.1258         4.46054 
        3.66003         65.4738         4.41254 
        3.67578         64.6213         4.36527 
        3.69146         64.2098         4.31887 
        3.70712         63.6076         4.27322 
        3.72284         63.0962         4.22807 
        3.73853         62.3343         4.18365 
        3.75422         62.0138         4.13985 
        3.76993          61.045         4.09664 
        3.78564         60.4471         4.05406 
        3.80137         59.9689         4.01202 
        3.81707         59.3384         3.97066 
        3.83279         58.8614         3.92985 
        3.84853         58.3486         3.88955 
        3.86424         57.8814          3.8499 
        3.87992         57.1974         3.81085 
        3.89561         56.6758         3.77235 
        3.91134         56.1438          3.7343 
        3.92704         55.8048         3.69681 
        3.94273         55.1877         3.65988 
        3.95845         54.5418         3.62339 
        3.97418         54.2877         3.58739 
        3.98988         53.7071         3.55192 
        4.00554         53.2004         3.51703 
        4.02125         52.4816         3.48251 
        4.03698         51.9486          3.4484 
        4.05268         51.6733         3.41482 
        4.06839         51.1403         3.38167 
         4.0841          50.779         3.34896 
        4.09983         50.3012         3.31664 
        4.11555         49.7869         3.28477 
        4.13124         49.4189         3.25339 
        4.14693         49.0566          3.2224 
        4.16266         48.4681         3.19175 
        4.17839         48.1751         3.16151 
        4.19408         47.7329         3.13173 
        4.20977         47.2734         3.10232 
        4.22551         46.7804         3.07322 
        4.24123         46.2598         3.04452 
        4.25691         45.9616         3.01627 
        4.27259         45.7368         2.98836 
        4.28831         45.2429         2.96075 
        4.30404         44.6971         2.93347 
        4.31974         44.3092         2.90659 
        4.33543         44.0169         2.88006 
        4.35116         43.5877          2.8538 
        4.36688         43.3466         2.82787 
        4.38255         42.8336         2.80237 
        4.39825         42.5653         2.77712 
        4.41398         42.1459         2.75213 
         4.4297         41.8234         2.72748 
        4.44541         41.4578         2.70313 
        4.46111         41.0799          2.6791 
        4.47683         40.6985         2.65535 
        4.49251         40.3228         2.63193 
        4.50819         40.0299          2.6088 
         4.5239         39.7032         2.58591 
        4.53962         39.4169         2.56327 
        4.55535         39.0189         2.54089 
        4.57106         38.7765         2.51881 
        4.58678         38.4098         2.49699 
         4.6025         38.0952         2.47542 
        4.61821         37.7415         2.45411 
        4.63391         37.3749         2.43308 
         4.6496         37.0262          2.4123 
        4.66532         36.8255         2.39173 
        4.68103         36.4279         2.37141 
        4.69673          36.259         2.35135 
        4.71241         35.9466         2.33154 
        4.72811         35.6031         2.31192 
        4.74384         35.2974         2.29251 
        4.75955         35.0309         2.27335 
        4.77525         34.7464         2.25441 
        4.79096          34.375         2.23567 
        4.80669         34.0768         2.21714 
         4.8224         33.8925         2.19883 
        4.83809         33.6094         2.18075 
        4.85379         33.3339         2.16286 
         4.8695          33.081         2.14516 
        4.88521         32.7997         2.12767 
        4.90093         32.6082         2.11036 
        4.91663         32.2546         2.09327 
        4.93234         32.0898         2.07635 
        4.94807         31.7622          2.0596 
        4.96377         31.5101         2.04307 
        4.97943          31.206         2.02675 
        4.99514         31.1019         2.01057 
        5.01086         30.8096         1.99455 
        5.02654         30.5345         1.97875 
        5.04227         30.3267         1.96308 
          5.058         30.0881         1.94757 
        5.07371         29.7725         1.93225 
        5.08942          29.651          1.9171 
        5.10513         29.2594         1.90211 
        5.12084         29.1279         1.88727 
        5.13656         28.9308         1.87259 
        5.15225         28.6567         1.85809 
        5.16796         28.4311         1.84373 
        5.18369         28.2512          1.8295 
         5.1994         27.9311         1.81545 
        5.21509         27.7457         1.80155 
        5.23079          27.565         1.78779 
        5.24649         27.2977         1.77418 
        5.26217         27.0829         1.76073 
        5.27788         26.9694         1.74739 
        5.29359         26.7268         1.73419 
        5.30933         26.4619         1.72111 
        5.32504         26.2955         1.70818 
        5.34073         26.0712          1.6954 
        5.35646         25.8673         1.68272 
        5.37218         25.7311         1.67018 
        5.38789         25.4143         1.65778 
        5.40357         25.3059         1.64552 
        5.41929         25.1263         1.63335 
        5.43502         24.9767         1.62131 
         5.4507         24.7273         1.60942 
        5.46639         24.4736         1.59765 
        5.48212         24.4076         1.58597 
        5.49786         24.2043         1.57438 
        5.51353         24.0641         1.56298 
        5.52921         23.8243         1.55167 
        5.54495         23.6506         1.54044 
        5.56066         23.4816         1.52934 
        5.57637         23.2982         1.51835 
        5.59207         23.1201         1.50747 
        5.60778         22.9209          1.4967 
        5.62346         22.7788         1.48605 
        5.63916         22.5974         1.47549 
        5.65487         22.4864         1.46502 
         5.6706          22.291         1.45465 
        5.68633         22.1171         1.44438 
        5.70203         21.9897         1.43422 
        5.71773         21.8638         1.42416 
        5.73344         21.6008          1.4142 
        5.74916         21.5061         1.40432 
        5.76486         21.3643         1.39455 
        5.78054         21.1857         1.38488 
        5.79626         21.0203         1.37528 
          5.812         20.8284         1.36577 
         5.8277         20.6932         1.35637 
        5.84339         20.6106         1.34706 
        5.85911         20.4524         1.33781 
        5.87484         20.3029         1.32866 
        5.89053         20.1677         1.31961 
        5.90623         19.9687         1.31064 
        5.92195         19.8672         1.30174 
        5.93767         19.6863         1.29292 
        5.95336         19.5811         1.28421 
        5.96905          19.393         1.27557 
        5.98476         19.2718           1.267 
        6.00048         19.1662         1.25851 
        6.01617         19.0214         1.25011 
        6.03185         18.9045          1.2418 
        6.04756         18.7599         1.23354 
        6.06331         18.6023         1.22533 
        6.07903         18.4907         1.21722 
        6.09473         18.3476         1.20919 
        6.11044         18.2289         1.20123 
        6.12616         18.1083         1.19334 
        6.14186         17.9857         1.18552 
        6.15755         17.8675         1.17778 
        6.17326         17.7097          1.1701 
        6.18898         17.6126         1.16249 
        6.20467         17.4918         1.15496 
        6.22036         17.3659         1.14749 
         6.2361         17.2595         1.14007 
         6.2518         17.1318         1.13273 
        6.26748         17.0046         1.12547 
        6.28319         16.9117         1.11825 
        6.29893          16.771         1.11109 
        6.31463         16.6288           1.104 
        6.33033         16.5577         1.09698 
        6.34604         16.4362         1.09001 
        6.36177         16.3224          1.0831 
        6.37747         16.2373         1.07626 
