# k  (h/Mpc)    Pcb(k)  (Mpc/h)^3    Pcb_linear(k) (Mpc/h)^3   ShotnoiseSubtracted = true
      0.0200456         8687.41         8843.36 
      0.0350414         6222.18          6376.4 
      0.0492313         4740.51         4775.31 
      0.0637834         4053.55         3991.38 
      0.0800726         3089.99         3025.68 
       0.096163         2176.22         2210.33 
       0.111083         1805.04         1859.93 
       0.126058         1646.26         1630.05 
       0.142273         1361.09         1302.93 
       0.158546         1137.96         1048.57 
        0.17375         948.828         931.517 
       0.188953         899.552         828.994 
       0.204907         821.431         699.043 
       0.220756         698.373             600 
        0.23588         622.883         543.292 
         0.2514         545.309         489.063 
       0.267535         517.781         428.019 
       0.283568         470.261         380.134 
       0.299022         438.631         347.107 
       0.314451         406.962         316.315 
       0.330372         374.838         284.747 
       0.346141          338.18         258.776 
       0.361624         324.511         238.301 
       0.377134         303.105         219.438 
       0.392932         282.394         201.197 
       0.408854         270.685         185.248 
       0.424564         258.815         171.794 
       0.440253         246.708         159.499 
       0.455999         231.951         148.049 
       0.471626         214.845         137.892 
        0.48727         208.788         128.862 
       0.502856         200.955         120.612 
       0.518488         197.255         112.972 
       0.534347         186.747         105.918 
       0.550082         173.989         99.5703 
       0.565732         169.559         93.7599 
       0.581496          161.61         88.3521 
       0.597222         156.863         83.3833 
       0.612804         150.267         78.8566 
       0.628434         146.213         74.6574 
       0.644267         141.163         70.7128 
       0.660051         138.867         67.0625 
       0.675724         134.985         63.6916 
       0.691403         130.753         60.5506 
       0.707174         125.303         57.6047 
       0.722871         123.821         54.8674 
        0.73838         121.221          52.338 
       0.754018         116.116         49.9496 
       0.769845          113.66          47.685 
        0.78569         111.062         45.5595 
       0.801365         107.865          43.585 
       0.817031         104.034         41.7295 
       0.832809         102.621         39.9707 
       0.848511         99.4692         38.3216 
       0.864097          96.856         36.7773 
       0.879701         95.4474          35.317 
       0.895507         93.2087         33.9192 
       0.911279         91.7405         32.6002 
        0.92691          89.816         31.3626 
       0.942635         87.2241         30.1826 
       0.958396         86.8613         29.0612 
       0.974128         84.5004          27.999 
       0.989692         82.3526         27.0006 
        1.00528         80.7635         26.0496 
        1.02113         79.5832         25.1297 
        1.03692         76.9091         24.2579 
        1.05264         76.7475         23.4316 
        1.06832         74.6387         22.6453 
        1.08405         73.6311         21.8931 
        1.09979         73.0627         21.1748 
        1.11537         70.3974          20.496 
        1.13105         70.6502          19.843 
        1.14679         69.2233         19.2161 
        1.16256         68.1131         18.6151 
        1.17828         66.2472          18.042 
        1.19395         65.7016          17.495 
         1.2097         63.9797         16.9679 
        1.22537         64.1098         16.4653 
          1.241         62.3865         15.9846 
        1.25666         61.1878         15.5219 
        1.27241          60.575         15.0755 
        1.28819         59.3734         14.6459 
        1.30392          58.502         14.2344 
        1.31957         57.8687         13.8406 
        1.33529         56.8925         13.4602 
        1.35108         56.5442         13.0928 
        1.36674         55.7069         12.7417 
         1.3824         54.3946         12.4038 
        1.39811         53.9987         12.0771 
        1.41389         53.0843          11.761 
        1.42964         52.3837         11.4568 
        1.44531         51.5521         11.1648 
        1.46101         50.5729         10.8824 
        1.47667         50.5352         10.6107 
        1.49229         49.7391          10.349 
        1.50793         49.0247         10.0959 
        1.52367          48.238         9.84959 
        1.53953           47.81          9.6099 
        1.55526         47.1433         9.38012 
        1.57092         46.7545         9.15883 
        1.58662         46.0709         8.94417 
        1.60235         45.5237         8.73599 
        1.61809         44.8056         8.53435 
        1.63369         44.0544         8.34089 
        1.64941         43.5538         8.15205 
        1.66519         42.8846          7.9684 
        1.68085         42.5676         7.79172 
        1.69652          41.918         7.62036 
        1.71228         41.6653          7.4532 
        1.72806         41.1629         7.29093 
        1.74368          40.491         7.13513 
        1.75933         40.0682         6.98358 
        1.77505         39.6599         6.83574 
        1.79081         39.0611         6.69192 
         1.8065         38.6849         6.55287 
        1.82218         38.2213          6.4179 
        1.83797         37.6568         6.28582 
        1.85367         37.1201         6.15818 
        1.86928         36.8765         6.03487 
        1.88497         36.4989         5.91427 
        1.90073         36.0999         5.79653 
        1.91647         35.6638          5.6821 
        1.93218         35.2741         5.57101 
        1.94787         34.8613         5.46306 
        1.96363         34.5106         5.35755 
        1.97935         34.0686         5.25504 
        1.99499         33.6514          5.1558 
        2.01064         33.3939         5.05899 
         2.0264         32.8532         4.96406 
        2.04216         32.4629         4.87161 
        2.05781         32.0824         4.78211 
        2.07353         31.8033         4.69454 
        2.08928         31.6653         4.60898 
        2.10499         31.2164         4.52578 
        2.12065         30.7855         4.44489 
        2.13633         30.6471          4.3659 
        2.15211         30.0847         4.28834 
        2.16785         29.6491         4.21287 
        2.18349         29.5386          4.1397 
        2.19916         29.2642         4.06811 
        2.21489         28.7893         3.99798 
        2.23063         28.6119         3.92946 
         2.2463         28.2548         3.86286 
        2.26194         27.9873         3.79797 
        2.27765         27.6955         3.73423 
        2.29341         27.4034          3.6718 
        2.30914         27.2028         3.61092 
        2.32486         26.7551         3.55146 
        2.34061         26.6165         3.49325 
        2.35635         26.3052         3.43639 
        2.37203         26.0837         3.38099 
        2.38768          25.721         3.32693 
        2.40339         25.6156         3.27386 
        2.41914         25.3248         3.22183 
        2.43483         24.9464         3.17111 
         2.4505         24.7341         3.12157 
        2.46622         24.5177         3.07292 
        2.48195         24.2518          3.0253 
        2.49759         24.0162         2.97895 
        2.51328         23.7167         2.93344 
        2.52906         23.6164         2.88861 
        2.54479          23.266         2.84487 
        2.56049         23.0032         2.80213 
        2.57618         22.7399         2.76031 
        2.59189         22.6667         2.71927 
        2.60758         22.4103         2.67914 
        2.62325         22.1013         2.63986 
        2.63898         22.0297         2.60124 
        2.65468         21.6884         2.56347 
        2.67044         21.5112         2.52629 
        2.68618         21.2469         2.48993 
        2.70184         21.0966         2.45444 
        2.71755         20.9371         2.41955 
        2.73329         20.6785         2.38528 
        2.74897         20.4036         2.35179 
        2.76462         20.3503         2.31902 
        2.78034         20.1428         2.28674 
        2.79607         19.9232         2.25503 
        2.81179         19.7425         2.22397 
        2.82749         19.5475         2.19353 
        2.84321         19.3854         2.16362 
        2.85893         19.1303         2.13428 
        2.87462         18.9412         2.10553 
        2.89033         18.8611         2.07729 
        2.90605          18.683         2.04954 
        2.92176         18.4373         2.02231 
        2.93747         18.3512         1.99559 
        2.95318         18.0871         1.96935 
        2.96891         17.9687         1.94357 
        2.98456         17.7607         1.91837 
        3.00023         17.6022         1.89357 
        3.01596          17.489         1.86914 
        3.03164         17.3023         1.84521 
        3.04738         17.1186         1.82162 
         3.0631         16.9605         1.79846 
        3.07883         16.8121          1.7757 
        3.09456         16.6709         1.75334 
        3.11026         16.5258          1.7314 
        3.12596         16.3535         1.70983 
        3.14163         16.2361         1.68868 
        3.15734         16.0321         1.66784 
        3.17308         15.9167         1.64731 
        3.18879         15.7656         1.62717 
        3.20447         15.6346          1.6074 
         3.2202         15.4694          1.5879 
         3.2359         15.3308         1.56875 
        3.25157         15.2304         1.54997 
        3.26729         15.1242         1.53144 
        3.28304         14.9374         1.51318 
        3.29877         14.7361         1.49523 
        3.31446         14.6476         1.47762 
        3.33014         14.5166         1.46031 
        3.34585         14.3364         1.44324 
        3.36158         14.2567         1.42643 
        3.37727         14.0943         1.40993 
        3.39294         13.9458         1.39371 
        3.40867         13.8533         1.37769 
        3.42439         13.7238         1.36193 
        3.44008         13.6232         1.34645 
        3.45578         13.4918         1.33119 
        3.47153         13.3912         1.31614 
        3.48724         13.2688         1.30135 
        3.50292         13.1213         1.28682 
        3.51859         13.0554         1.27251 
        3.53431         12.9451         1.25838 
        3.55007          12.805         1.24444 
        3.56577         12.7104         1.23075 
        3.58146         12.6036         1.21728 
        3.59719         12.4547         1.20398 
        3.61292         12.3687         1.19088 
        3.62859         12.2285         1.17803 
        3.64429         12.1332         1.16534 
        3.66003         12.0468          1.1528 
        3.67578         11.9751         1.14045 
        3.69146         11.8498         1.12833 
        3.70712         11.7171         1.11641 
        3.72284         11.6534         1.10461 
        3.73853         11.5047           1.093 
        3.75422         11.4325         1.08156 
        3.76993         11.3601         1.07027 
        3.78564         11.2152         1.05915 
        3.80137         11.1329         1.04816 
        3.81707         11.0399         1.03736 
        3.83279         10.9204          1.0267 
        3.84853         10.8596         1.01617 
        3.86424          10.705         1.00581 
        3.87992         10.6798        0.995609 
        3.89561         10.5908         0.98555 
        3.91134         10.5178        0.975609 
        3.92704         10.3799        0.965816 
        3.94273         10.3177        0.956168 
        3.95845         10.2383        0.946633 
        3.97418         10.1651        0.937227 
        3.98988         10.0525        0.927961 
        4.00554         9.98753        0.918846 
        4.02125         9.84643        0.909827 
        4.03698         9.82171        0.900915 
        4.05268         9.71314        0.892143 
        4.06839         9.64816        0.883481 
         4.0841         9.55655        0.874937 
        4.09983         9.48046        0.866494 
        4.11555         9.38756        0.858165 
        4.13124         9.31828        0.849969 
        4.14693         9.24499        0.841873 
        4.16266         9.17687        0.833864 
        4.17839         9.08752        0.825964 
        4.19408         9.01811        0.818184 
        4.20977         8.94133          0.8105 
        4.22551         8.89251        0.802897 
        4.24123         8.81443          0.7954 
        4.25691         8.74163        0.788018 
        4.27259         8.63992        0.780728 
        4.28831         8.59184        0.773516 
        4.30404         8.51676        0.766387 
        4.31974         8.46752        0.759364 
        4.33543         8.37402        0.752433 
        4.35116         8.31313        0.745572 
        4.36688         8.24045        0.738799 
        4.38255         8.18619        0.732135 
        4.39825         8.11865         0.72554 
        4.41398          8.0524        0.719012 
         4.4297         7.98889        0.712571 
        4.44541         7.92041        0.706211 
        4.46111          7.8722        0.699933 
        4.47683         7.81008        0.693726 
        4.49251         7.74372        0.687608 
        4.50819         7.67454        0.681565 
         4.5239         7.62595        0.675586 
        4.53962          7.5723        0.669671 
        4.55535         7.49771        0.663824 
        4.57106         7.43679        0.658055 
        4.58678         7.37134        0.652354 
         4.6025         7.30282        0.646719 
        4.61821         7.26759        0.641151 
        4.63391         7.21497        0.635656 
         4.6496         7.15571        0.630228 
        4.66532          7.0936        0.624855 
        4.68103         7.03707        0.619546 
        4.69673         6.99131        0.614305 
        4.71241         6.94268        0.609129 
        4.72811           6.868        0.604004 
        4.74384         6.83907        0.598932 
        4.75955          6.7841        0.593926 
        4.77525         6.72615        0.588979 
        4.79096         6.68488        0.584083 
        4.80669         6.62724         0.57924 
         4.8224         6.58047        0.574458 
        4.83809         6.51228        0.569735 
        4.85379         6.46188        0.565062 
         4.8695         6.42436        0.560437 
        4.88521         6.38041        0.555866 
        4.90093         6.33062        0.551346 
        4.91663         6.26919         0.54688 
        4.93234         6.23148        0.542458 
        4.94807         6.17414        0.538083 
        4.96377         6.14354        0.533764 
        4.97943         6.10115        0.529501 
        4.99514         6.04456        0.525274 
        5.01086         5.99695         0.52109 
        5.02654         5.95486        0.516962 
        5.04227           5.919        0.512866 
          5.058         5.87944        0.508814 
        5.07371         5.83889        0.504812 
        5.08942         5.78663        0.500854 
        5.10513          5.7368        0.496937 
        5.12084         5.69593         0.49306 
        5.13656         5.65931        0.489226 
        5.15225         5.61752        0.485438 
        5.16796         5.58534        0.481685 
        5.18369         5.54264        0.477968 
         5.1994         5.49938        0.474297 
        5.21509         5.45576        0.470667 
        5.23079          5.4198        0.467072 
        5.24649         5.39423        0.463517 
        5.26217         5.34149        0.460001 
        5.27788          5.3056        0.456516 
        5.29359         5.26783        0.453068 
        5.30933         5.23399        0.449649 
        5.32504         5.20082        0.446272 
        5.34073          5.1539        0.442933 
        5.35646         5.11948        0.439622 
        5.37218         5.08338        0.436344 
        5.38789         5.06299        0.433104 
        5.40357         5.01536        0.429902 
        5.41929           4.985        0.426724 
        5.43502         4.95158        0.423578 
         5.4507         4.91636        0.420472 
        5.46639         4.87025        0.417396 
        5.48212          4.8351        0.414343 
        5.49786         4.82074        0.411318 
        5.51353         4.77314        0.408338 
        5.52921         4.74865        0.405384 
        5.54495         4.71219        0.402451 
        5.56066         4.68337         0.39955 
        5.57637         4.64559        0.396678 
        5.59207         4.61385        0.393836 
        5.60778         4.58291        0.391022 
        5.62346         4.55772        0.388239 
        5.63916         4.52236         0.38548 
        5.65487          4.4846        0.382747 
         5.6706         4.46988        0.380037 
        5.68633         4.43224        0.377352 
        5.70203         4.39413        0.374699 
        5.71773         4.38039        0.372072 
        5.73344         4.34202        0.369468 
        5.74916         4.31975        0.366887 
        5.76486         4.28785        0.364334 
        5.78054         4.26087        0.361809 
        5.79626         4.22731        0.359302 
          5.812         4.20142        0.356815 
         5.8277         4.16718        0.354359 
        5.84339         4.14951        0.351927 
        5.85911         4.12877        0.349512 
        5.87484         4.09295        0.347121 
        5.89053         4.06867        0.344756 
        5.90623         4.04865        0.342413 
        5.92195          4.0102        0.340087 
        5.93767         3.98376        0.337785 
        5.95336         3.96565        0.335507 
        5.96905         3.94141        0.333251 
        5.98476         3.91347        0.331013 
        6.00048          3.8834        0.328794 
        6.01617         3.87011        0.326599 
        6.03185         3.83393        0.324427 
        6.04756         3.81536        0.322269 
        6.06331         3.79034        0.320126 
        6.07903         3.76484        0.318007 
        6.09473          3.7356        0.315909 
        6.11044         3.71188        0.313828 
        6.12616         3.70109        0.311767 
        6.14186         3.67332        0.309726 
        6.15755         3.65493        0.307703 
        6.17326         3.63254        0.305697 
        6.18898         3.60329        0.303707 
        6.20467         3.58286        0.301739 
        6.22036         3.56462        0.299789 
         6.2361         3.53872         0.29785 
         6.2518         3.52117        0.295932 
        6.26748         3.49476        0.294035 
        6.28319         3.47385        0.292149 
        6.29893         3.45117        0.290278 
        6.31463         3.43452        0.288427 
        6.33033         3.40612        0.286593 
        6.34604           3.391        0.284773 
        6.36177         3.36849        0.282967 
        6.37747         3.35767         0.28118 
