# k  (h/Mpc)    Pcb(k)  (Mpc/h)^3    Pcb_linear(k) (Mpc/h)^3   ShotnoiseSubtracted = true
      0.0200456         30783.7         31389.4 
      0.0350414         23428.5         22632.9 
      0.0492313         16384.2         16949.9 
      0.0637834         13238.5         14167.4 
      0.0800726         10011.6         10739.6 
       0.096163         8207.39         7845.55 
       0.111083         6907.61          6601.8 
       0.126058         5676.48         5785.84 
       0.142273          4887.6         4624.73 
       0.158546         4030.34          3721.9 
        0.17375          3719.3         3306.41 
       0.188953         3573.58          2942.5 
       0.204907         3054.36         2481.24 
       0.220756          2790.2         2129.69 
        0.23588         2507.94         1928.41 
         0.2514         2292.45         1735.92 
       0.267535         2189.03         1519.25 
       0.283568         1983.73         1349.28 
       0.299022         1885.35         1232.05 
       0.314451         1961.72         1122.75 
       0.330372         1790.09         1010.71 
       0.346141         1654.64         918.521 
       0.361624         1577.63         845.845 
       0.377134         1532.01         778.891 
       0.392932         1435.95         714.145 
       0.408854         1395.16         657.533 
       0.424564         1365.72         609.779 
       0.440253         1294.15         566.138 
       0.455999         1233.73         525.498 
       0.471626          1231.7         489.445 
        0.48727         1175.34         457.394 
       0.502856         1157.52         428.111 
       0.518488         1102.32         400.992 
       0.534347         1071.99         375.953 
       0.550082         1036.62         353.423 
       0.565732         1006.12           332.8 
       0.581496         981.464         313.605 
       0.597222          973.45         295.968 
       0.612804         941.226           279.9 
       0.628434         909.231         264.995 
       0.644267         888.708         250.994 
       0.660051         871.463         238.038 
       0.675724         859.518         226.072 
       0.691403         821.954         214.924 
       0.707174         805.535         204.467 
       0.722871         803.781         194.751 
        0.73838         770.612         185.773 
       0.754018         766.739         177.296 
       0.769845         745.164         169.257 
        0.78569         727.653         161.713 
       0.801365         711.443         154.704 
       0.817031         697.949         148.118 
       0.832809         683.482         141.875 
       0.848511         660.953         136.022 
       0.864097         655.545         130.541 
       0.879701         654.078         125.357 
       0.895507         636.222         120.396 
       0.911279         628.755         115.714 
        0.92691         614.826         111.321 
       0.942635         600.324         107.133 
       0.958396          595.32         103.152 
       0.974128         578.448          99.382 
       0.989692         570.841         95.8381 
        1.00528         557.051         92.4627 
        1.02113         545.755         89.1976 
        1.03692         536.558          86.103 
        1.05264         530.208         83.1701 
        1.06832         520.963         80.3791 
        1.08405         512.093         77.7092 
        1.09979         501.226         75.1596 
        1.11537         488.399         72.7502 
        1.13105         482.687         70.4325 
        1.14679         475.054         68.2072 
        1.16256         468.265         66.0741 
        1.17828         461.554         64.0397 
        1.19395         451.715         62.0981 
         1.2097          440.81         60.2275 
        1.22537         435.816         58.4433 
          1.241         426.669          56.737 
        1.25666         417.186         55.0948 
        1.27241           416.3         53.5102 
        1.28819         407.599         51.9854 
        1.30392         400.838         50.5247 
        1.31957          392.45         49.1269 
        1.33529         388.162         47.7769 
        1.35108          387.14         46.4726 
        1.36674          378.18         45.2264 
         1.3824         369.803         44.0272 
        1.39811         366.223         42.8677 
        1.41389         362.139         41.7456 
        1.42964         352.348         40.6657 
        1.44531         349.724         39.6294 
        1.46101          339.61         38.6271 
        1.47667         336.337         37.6626 
        1.49229          334.06         36.7337 
        1.50793         323.878         35.8352 
        1.52367         321.766          34.961 
        1.53953         315.149         34.1102 
        1.55526         308.488         33.2946 
        1.57092         305.086         32.5091 
        1.58662         301.904         31.7472 
        1.60235         296.002         31.0083 
        1.61809         290.508         30.2926 
        1.63369         286.497         29.6059 
        1.64941         282.744         28.9356 
        1.66519         279.212         28.2837 
        1.68085         271.956         27.6566 
        1.69652         269.189         27.0484 
        1.71228         265.515          26.455 
        1.72806         260.637         25.8791 
        1.74368         257.762          25.326 
        1.75933         255.091         24.7881 
        1.77505         250.516         24.2634 
        1.79081         247.515         23.7529 
         1.8065         244.116         23.2593 
        1.82218         238.217         22.7802 
        1.83797          236.27         22.3114 
        1.85367         231.957         21.8584 
        1.86928          228.89         21.4207 
        1.88497         225.895         20.9926 
        1.90073         222.332         20.5747 
        1.91647         219.224         20.1685 
        1.93218         215.994         19.7742 
        1.94787         212.839          19.391 
        1.96363         211.114         19.0165 
        1.97935         204.781         18.6527 
        1.99499         204.448         18.3005 
        2.01064         200.083         17.9568 
         2.0264         197.699         17.6199 
        2.04216         195.291         17.2917 
        2.05781         191.708          16.974 
        2.07353         190.149         16.6632 
        2.08928         186.642         16.3595 
        2.10499         185.314         16.0642 
        2.12065         182.035         15.7771 
        2.13633         179.249         15.4967 
        2.15211         177.235         15.2214 
        2.16785         175.127         14.9535 
        2.18349         171.336         14.6938 
        2.19916           170.7         14.4397 
        2.21489         167.974         14.1908 
        2.23063         165.507         13.9476 
         2.2463         162.803         13.7112 
        2.26194          160.45         13.4808 
        2.27765         159.334         13.2546 
        2.29341         157.299          13.033 
        2.30914         155.055         12.8169 
        2.32486         153.571         12.6059 
        2.34061          150.29         12.3992 
        2.35635         148.676         12.1974 
        2.37203         148.017         12.0008 
        2.38768           145.3         11.8089 
        2.40339         142.683         11.6205 
        2.41914         141.957         11.4358 
        2.43483         139.648         11.2558 
         2.4505         138.082           11.08 
        2.46622         136.298         10.9073 
        2.48195         134.318         10.7383 
        2.49759         133.105         10.5737 
        2.51328         130.847         10.4122 
        2.52906         129.137         10.2531 
        2.54479         127.779         10.0978 
        2.56049         126.092         9.94613 
        2.57618         124.791         9.79767 
        2.59189         123.476         9.65203 
        2.60758          122.51         9.50957 
        2.62325         120.178         9.37016 
        2.63898         118.741         9.23307 
        2.65468          117.55         9.09901 
        2.67044         116.303         8.96703 
        2.68618         114.792         8.83799 
        2.70184         113.677           8.712 
        2.71755         111.897         8.58815 
        2.73329         110.884         8.46652 
        2.74897         109.347         8.34765 
        2.76462         107.965         8.23132 
        2.78034         106.827         8.11674 
        2.79607         105.713         8.00421 
        2.81179         103.917         7.89395 
        2.82749         103.004         7.78589 
        2.84321         102.001         7.67973 
        2.85893         100.958         7.57559 
        2.87462         99.2102         7.47355 
        2.89033         98.5472         7.37331 
        2.90605          96.975         7.27481 
        2.92176         96.3603         7.17817 
        2.93747         94.8641         7.08334 
        2.95318         93.9942         6.99019 
        2.96891         92.9256         6.89868 
        2.98456         92.1406         6.80922 
        3.00023         90.8199         6.72121 
        3.01596         89.9295         6.63449 
        3.03164         88.9692         6.54954 
        3.04738         87.9983         6.46583 
         3.0631         87.0446         6.38362 
        3.07883          86.214         6.30283 
        3.09456         85.3628         6.22345 
        3.11026         84.1135         6.14557 
        3.12596          83.209         6.06902 
        3.14163         82.0929         5.99396 
        3.15734         81.1285         5.91999 
        3.17308         80.4379         5.84709 
        3.18879         79.1579         5.77562 
        3.20447         78.6544         5.70545 
         3.2202         77.7509         5.63622 
         3.2359         77.2847         5.56827 
        3.25157         76.2783          5.5016 
        3.26729         75.3951         5.43583 
        3.28304         74.7992         5.37099 
        3.29877         73.9435          5.3073 
        3.31446         72.9731         5.24479 
        3.33014         72.6578         5.18333 
        3.34585         71.5751         5.12277 
        3.36158         70.7449         5.06308 
        3.37727         70.0796         5.00453 
        3.39294         69.4436         4.94697 
        3.40867         68.6448          4.8901 
        3.42439         67.9361         4.83415 
        3.44008         67.1429         4.77919 
        3.45578         66.6134         4.72504 
        3.47153         65.7897         4.67162 
        3.48724         65.0048         4.61911 
        3.50292         64.6085         4.56753 
        3.51859          64.103         4.51677 
        3.53431         63.3021         4.46662 
        3.55007         62.6007         4.41711 
        3.56577         62.0947         4.36854 
        3.58146         61.3214         4.32073 
        3.59719         60.7731         4.27352 
        3.61292         60.3123         4.22703 
        3.62859         59.5803         4.18141 
        3.64429         59.0971         4.13637 
        3.66003         58.5224         4.09186 
        3.67578         57.6913         4.04803 
        3.69146         57.2922         4.00499 
        3.70712         56.8887         3.96267 
        3.72284         56.0702          3.9208 
        3.73853          55.585          3.8796 
        3.75422         55.1603         3.83898 
        3.76993         54.5311         3.79891 
        3.78564         53.8778         3.75943 
        3.80137         53.5707         3.72045 
        3.81707         53.0435         3.68209 
        3.83279         52.4827         3.64425 
        3.84853         52.2141         3.60688 
        3.86424         51.6018         3.57011 
        3.87992         51.0547          3.5339 
        3.89561         50.6075         3.49819 
        3.91134         50.1904         3.46291 
        3.92704         49.7302         3.42815 
        3.94273         49.0277          3.3939 
        3.95845         48.6591         3.36006 
        3.97418         48.1939         3.32667 
        3.98988         47.7981         3.29379 
        4.00554         47.2634         3.26143 
        4.02125          46.877         3.22942 
        4.03698         46.4997         3.19779 
        4.05268         46.1207         3.16665 
        4.06839         45.6297          3.1359 
         4.0841         45.3085         3.10558 
        4.09983         44.8753         3.07561 
        4.11555         44.4311         3.04605 
        4.13124         44.1058         3.01695 
        4.14693         43.4819         2.98822 
        4.16266         43.2284         2.95979 
        4.17839         42.8033         2.93175 
        4.19408         42.4393         2.90413 
        4.20977         41.9779         2.87686 
        4.22551         41.6127         2.84987 
        4.24123           41.22         2.82326 
        4.25691         40.9662         2.79706 
        4.27259         40.5962         2.77118 
        4.28831         40.2334         2.74558 
        4.30404          39.854         2.72028 
        4.31974         39.5696         2.69535 
        4.33543         39.2295         2.67075 
        4.35116         38.7905          2.6464 
        4.36688         38.4949         2.62236 
        4.38255         38.2341          2.5987 
        4.39825          37.833         2.57529 
        4.41398         37.4726         2.55212 
         4.4297         37.2387         2.52926 
        4.44541         36.8961         2.50668 
        4.46111         36.4344          2.4844 
        4.47683         36.2073         2.46237 
        4.49251          35.838         2.44065 
        4.50819          35.573          2.4192 
         4.5239         35.3345         2.39798 
        4.53962         35.0734         2.37699 
        4.55535         34.7414         2.35623 
        4.57106         34.4451         2.33576 
        4.58678         34.1012         2.31552 
         4.6025         33.7928         2.29552 
        4.61821         33.4593         2.27576 
        4.63391          33.262         2.25625 
         4.6496         32.9945         2.23699 
        4.66532         32.6931         2.21791 
        4.68103          32.401         2.19907 
        4.69673         32.1882         2.18047 
        4.71241         31.8905         2.16209 
        4.72811         31.6082          2.1439 
        4.74384         31.3324          2.1259 
        4.75955          31.205         2.10813 
        4.77525         30.8024         2.09057 
        4.79096         30.5603          2.0732 
        4.80669         30.3582         2.05601 
         4.8224         30.0905         2.03903 
        4.83809         29.8304         2.02227 
        4.85379         29.6267         2.00568 
         4.8695         29.3847         1.98926 
        4.88521         29.0986         1.97304 
        4.90093         28.8909         1.95699 
        4.91663         28.6443         1.94114 
        4.93234         28.4248         1.92545 
        4.94807         28.2184         1.90992 
        4.96377         27.9655         1.89459 
        4.97943         27.7045         1.87946 
        4.99514         27.5157         1.86445 
        5.01086         27.2927          1.8496 
        5.02654         27.0665         1.83495 
        5.04227         26.8536         1.82041 
          5.058         26.6435         1.80603 
        5.07371         26.4014         1.79182 
        5.08942         26.2466         1.77777 
        5.10513         26.0235         1.76387 
        5.12084         25.8548         1.75011 
        5.13656         25.6251          1.7365 
        5.15225         25.3892         1.72306 
        5.16796         25.2176         1.70973 
        5.18369         25.0184         1.69654 
         5.1994          24.787         1.68351 
        5.21509         24.6585         1.67063 
        5.23079          24.411         1.65786 
        5.24649          24.254         1.64525 
        5.26217         24.0774         1.63277 
        5.27788         23.8907          1.6204 
        5.29359         23.7155         1.60816 
        5.30933         23.4795         1.59602 
        5.32504         23.2891         1.58404 
        5.34073         23.1172         1.57219 
        5.35646         22.9476         1.56043 
        5.37218         22.7823          1.5488 
        5.38789         22.5882          1.5373 
        5.40357          22.464         1.52593 
        5.41929         22.2933         1.51465 
        5.43502         22.1175         1.50348 
         5.4507         21.9267         1.49246 
        5.46639         21.7615         1.48154 
        5.48212          21.623         1.47071 
        5.49786         21.4482         1.45997 
        5.51353         21.2901         1.44939 
        5.52921         21.1478          1.4389 
        5.54495         20.9695         1.42849 
        5.56066         20.8413          1.4182 
        5.57637         20.6441           1.408 
        5.59207         20.4931         1.39792 
        5.60778         20.3491         1.38793 
        5.62346         20.1564         1.37805 
        5.63916         20.0444         1.36826 
        5.65487         19.8889         1.35855 
         5.6706         19.7921         1.34894 
        5.68633         19.5958         1.33941 
        5.70203         19.4692         1.32999 
        5.71773          19.293         1.32066 
        5.73344         19.1933         1.31142 
        5.74916         19.0501         1.30226 
        5.76486         18.8864          1.2932 
        5.78054         18.7763         1.28424 
        5.79626         18.6405         1.27534 
          5.812         18.5082         1.26651 
         5.8277         18.3682         1.25779 
        5.84339         18.2176         1.24916 
        5.85911         18.0791         1.24059 
        5.87484         17.9446          1.2321 
        5.89053         17.8806         1.22371 
        5.90623         17.6888         1.21539 
        5.92195         17.5797         1.20714 
        5.93767         17.4202         1.19896 
        5.95336         17.3202         1.19088 
        5.96905         17.1582         1.18287 
        5.98476         17.0562         1.17493 
        6.00048         16.9447         1.16705 
        6.01617         16.8445         1.15926 
        6.03185         16.7216         1.15155 
        6.04756         16.6155         1.14389 
        6.06331         16.4903         1.13628 
        6.07903         16.3925         1.12876 
        6.09473          16.241         1.12132 
        6.11044         16.1214         1.11393 
        6.12616         16.0479         1.10661 
        6.14186         15.9232         1.09937 
        6.15755         15.8112         1.09219 
        6.17326         15.6817         1.08507 
        6.18898         15.5968           1.078 
        6.20467         15.4743         1.07102 
        6.22036         15.3958          1.0641 
         6.2361         15.2728         1.05722 
         6.2518          15.143         1.05041 
        6.26748         15.0332         1.04367 
        6.28319         14.9373         1.03698 
        6.29893         14.8555         1.03034 
        6.31463         14.7241         1.02377 
        6.33033         14.6803         1.01726 
        6.34604         14.5691          1.0108 
        6.36177         14.4519         1.00439 
        6.37747         14.3557        0.998045 
