# k  (h/Mpc)    Pcb(k)  (Mpc/h)^3    Pcb_linear(k) (Mpc/h)^3   ShotnoiseSubtracted = true
      0.0200456         29127.4         29688.7 
      0.0350414         22148.8         21406.7 
      0.0492313         15524.4         16031.5 
      0.0637834         12545.2         13399.7 
      0.0800726         9487.86         10157.7 
       0.096163         7756.39         7420.47 
       0.111083          6533.9         6244.11 
       0.126058         5366.55         5472.36 
       0.142273         4610.44         4374.16 
       0.158546         3804.29         3520.24 
        0.17375         3502.19         3127.26 
       0.188953         3353.31         2783.07 
       0.204907         2864.58         2346.81 
       0.220756         2612.18          2014.3 
        0.23588         2348.17         1823.93 
         0.2514            2143         1641.87 
       0.267535         2048.06         1436.93 
       0.283568         1850.98         1276.17 
       0.299022         1760.31          1165.3 
       0.314451         1833.64         1061.92 
       0.330372         1664.27         955.946 
       0.346141         1534.17         868.754 
       0.361624         1465.53         800.016 
       0.377134         1418.68          736.69 
       0.392932         1333.93         675.451 
       0.408854         1292.69         621.907 
       0.424564         1266.23         576.741 
       0.440253         1194.51         535.464 
       0.455999         1139.58         497.026 
       0.471626         1142.14         462.927 
        0.48727         1086.94         432.611 
       0.502856         1066.69         404.915 
       0.518488         1018.13         379.266 
       0.534347         989.325         355.583 
       0.550082         952.719         334.275 
       0.565732         926.848         314.768 
       0.581496         904.052         296.613 
       0.597222         895.368         279.932 
       0.612804         867.565         264.735 
       0.628434         835.997         250.638 
       0.644267         815.478         237.395 
       0.660051         802.101          225.14 
       0.675724         790.038         213.824 
       0.691403         756.001         203.279 
       0.707174         740.176         193.389 
       0.722871         737.894         184.199 
        0.73838         709.425         175.708 
       0.754018         703.084         167.689 
       0.769845         685.836         160.087 
        0.78569         669.613         152.951 
       0.801365         652.728         146.322 
       0.817031          641.09         140.093 
       0.832809         627.665         134.188 
       0.848511         610.292         128.652 
       0.864097         603.806         123.468 
       0.879701         604.662         118.565 
       0.895507         584.885         113.872 
       0.911279         579.026         109.444 
        0.92691          565.79         105.289 
       0.942635         554.145         101.328 
       0.958396         546.719         97.5633 
       0.974128         532.857         93.9973 
       0.989692          524.31         90.6455 
        1.00528         512.926         87.4529 
        1.02113         502.747         84.3648 
        1.03692         494.828         81.4378 
        1.05264         488.773         78.6639 
        1.06832         479.137          76.024 
        1.08405         472.592         73.4989 
        1.09979         461.695         71.0874 
        1.11537         450.726         68.8085 
        1.13105         445.114         66.6163 
        1.14679         437.597         64.5116 
        1.16256          432.54         62.4942 
        1.17828         425.503         60.5699 
        1.19395         416.674         58.7336 
         1.2097         407.115         56.9643 
        1.22537         402.683         55.2767 
          1.241         394.147         53.6629 
        1.25666         386.887         52.1097 
        1.27241         385.853         50.6109 
        1.28819         376.603         49.1688 
        1.30392         370.871         47.7872 
        1.31957          363.88         46.4651 
        1.33529         359.557         45.1883 
        1.35108         359.077         43.9546 
        1.36674         350.123          42.776 
         1.3824         341.582         41.6418 
        1.39811         338.893          40.545 
        1.41389         334.594         39.4837 
        1.42964         326.812         38.4624 
        1.44531         322.736         37.4822 
        1.46101         313.013         36.5342 
        1.47667         311.442          35.622 
        1.49229         309.072         34.7434 
        1.50793         300.301         33.8936 
        1.52367         297.174         33.0668 
        1.53953          291.84         32.2621 
        1.55526         285.542         31.4907 
        1.57092         283.033         30.7477 
        1.58662         279.263         30.0271 
        1.60235         273.845         29.3282 
        1.61809         269.658         28.6513 
        1.63369         265.208         28.0018 
        1.64941          262.24         27.3678 
        1.66519         258.454         26.7513 
        1.68085          252.48         26.1581 
        1.69652         249.597         25.5829 
        1.71228         246.276         25.0217 
        1.72806         241.967         24.4769 
        1.74368         239.005         23.9539 
        1.75933         236.617         23.4451 
        1.77505         232.083         22.9487 
        1.79081         228.937         22.4659 
         1.8065         226.514         21.9991 
        1.82218         220.823          21.546 
        1.83797         219.226         21.1026 
        1.85367         215.068         20.6741 
        1.86928         211.764         20.2601 
        1.88497         209.028         19.8552 
        1.90073          206.57         19.4599 
        1.91647         203.419         19.0758 
        1.93218         200.048         18.7028 
        1.94787         196.702         18.3404 
        1.96363          195.44         17.9862 
        1.97935         190.055         17.6421 
        1.99499         189.607         17.3089 
        2.01064         184.951         16.9839 
         2.0264         183.663         16.6652 
        2.04216         180.534         16.3548 
        2.05781         177.823         16.0544 
        2.07353         176.153         15.7604 
        2.08928         173.504         15.4731 
        2.10499         171.413         15.1938 
        2.12065         168.694         14.9222 
        2.13633         166.251         14.6571 
        2.15211         164.219         14.3967 
        2.16785         162.202         14.1433 
        2.18349         158.813         13.8977 
        2.19916         158.712         13.6573 
        2.21489         155.448         13.4219 
        2.23063         153.437         13.1919 
         2.2463         151.348         12.9683 
        2.26194         149.255         12.7504 
        2.27765         147.971         12.5365 
        2.29341          145.71         12.3269 
        2.30914         143.815         12.1225 
        2.32486         142.082         11.9229 
        2.34061          139.28         11.7274 
        2.35635         137.617         11.5365 
        2.37203         137.215         11.3506 
        2.38768         134.245         11.1691 
        2.40339         132.254         10.9909 
        2.41914         131.287         10.8162 
        2.43483          129.37          10.646 
         2.4505         127.915         10.4796 
        2.46622         126.138         10.3163 
        2.48195         124.282         10.1564 
        2.49759         123.037         10.0008 
        2.51328         120.961         9.84808 
        2.52906         119.531         9.69755 
        2.54479         118.401         9.55073 
        2.56049         116.763         9.40724 
        2.57618          115.42         9.26682 
        2.59189         113.965         9.12907 
        2.60758         113.532         8.99433 
        2.62325         111.241         8.86248 
        2.63898         109.562         8.73281 
        2.65468         108.637         8.60601 
        2.67044         107.444         8.48119 
        2.68618         105.839         8.35913 
        2.70184         104.934         8.23997 
        2.71755         103.352         8.12283 
        2.73329         102.338          8.0078 
        2.74897         100.503         7.89536 
        2.76462         99.6533         7.78534 
        2.78034         98.4784         7.67696 
        2.79607         97.4471         7.57053 
        2.81179         96.1978         7.46624 
        2.82749         94.9054         7.36404 
        2.84321         94.0343         7.26364 
        2.85893         93.0641         7.16513 
        2.87462         91.2726         7.06863 
        2.89033         90.7329         6.97381 
        2.90605         89.4524         6.88066 
        2.92176         88.4118         6.78925 
        2.93747         87.4044         6.69955 
        2.95318         86.6545         6.61146 
        2.96891         85.5437          6.5249 
        2.98456         84.6756         6.44029 
        3.00023         83.7713         6.35705 
        3.01596         82.7066         6.27502 
        3.03164         81.9894         6.19468 
        3.04738         80.9968         6.11551 
         3.0631         80.1038         6.03775 
        3.07883         79.0982         5.96133 
        3.09456          78.476         5.88626 
        3.11026          77.557         5.81259 
        3.12596         76.5927         5.74019 
        3.14163         75.6512          5.6692 
        3.15734         74.7802         5.59924 
        3.17308         73.9915         5.53029 
        3.18879         73.1745         5.46269 
        3.20447         72.2071         5.39632 
         3.2202          71.587         5.33085 
         3.2359         71.0845         5.26658 
        3.25157         70.2644         5.20352 
        3.26729         69.5031         5.14131 
        3.28304         68.7027         5.07999 
        3.29877         68.1065         5.01975 
        3.31446          67.301         4.96062 
        3.33014         66.7487         4.90249 
        3.34585         66.1059         4.84521 
        3.36158         65.2618         4.78876 
        3.37727         64.5272         4.73338 
        3.39294          63.972         4.67893 
        3.40867         63.2608         4.62514 
        3.42439         62.4798         4.57223 
        3.44008         61.9021         4.52025 
        3.45578         61.4168         4.46904 
        3.47153         60.6502          4.4185 
        3.48724          59.948         4.36884 
        3.50292         59.6616         4.32006 
        3.51859         59.0661         4.27205 
        3.53431         58.2202         4.22461 
        3.55007         57.7722         4.17778 
        3.56577         57.2216         4.13185 
        3.58146         56.4467         4.08662 
        3.59719         56.0461         4.04197 
        3.61292         55.5223           3.998 
        3.62859         54.9697         3.95485 
        3.64429          54.413         3.91226 
        3.66003         53.9469         3.87016 
        3.67578         53.2098          3.8287 
        3.69146          52.825           3.788 
        3.70712         52.2065         3.74797 
        3.72284         51.7255         3.70836 
        3.73853         51.2452          3.6694 
        3.75422         50.7907         3.63098 
        3.76993         50.2431         3.59308 
        3.78564         49.8196         3.55574 
        3.80137         49.4425         3.51887 
        3.81707         48.9387         3.48259 
        3.83279         48.2359          3.4468 
        3.84853         48.0531         3.41146 
        3.86424         47.5943         3.37668 
        3.87992         47.0842         3.34243 
        3.89561          46.758         3.30866 
        3.91134         46.2913         3.27528 
        3.92704         45.7629         3.24241 
        3.94273         45.1326         3.21002 
        3.95845         44.8547         3.17801 
        3.97418         44.4649         3.14643 
        3.98988         43.9994         3.11532 
        4.00554         43.6668         3.08472 
        4.02125          43.221         3.05444 
        4.03698         42.9098         3.02453 
        4.05268         42.4793         2.99508 
        4.06839         42.0994           2.966 
         4.0841         41.6328         2.93731 
        4.09983         41.3094         2.90897 
        4.11555         40.9088         2.88101 
        4.13124         40.5997         2.85349 
        4.14693         39.9421         2.82631 
        4.16266         39.9388         2.79942 
        4.17839         39.5115          2.7729 
        4.19408         39.1811         2.74678 
        4.20977         38.8218         2.72099 
        4.22551         38.3509         2.69546 
        4.24123         38.0709         2.67029 
        4.25691         37.6836         2.64551 
        4.27259         37.3351         2.62104 
        4.28831         37.1062         2.59682 
        4.30404         36.7711         2.57289 
        4.31974         36.4131         2.54932 
        4.33543         36.0304         2.52605 
        4.35116         35.7225         2.50301 
        4.36688         35.4415         2.48027 
        4.38255         35.1763          2.4579 
        4.39825         34.8118         2.43576 
        4.41398         34.5471         2.41384 
         4.4297         34.1771         2.39222 
        4.44541         33.9207         2.37087 
        4.46111         33.6475         2.34979 
        4.47683         33.2991         2.32896 
        4.49251         33.0655         2.30842 
        4.50819         32.7899         2.28813 
         4.5239         32.5917         2.26806 
        4.53962         32.2784          2.2482 
        4.55535         32.0188         2.22857 
        4.57106         31.6778          2.2092 
        4.58678         31.4229         2.19006 
         4.6025         31.0996         2.17115 
        4.61821         30.7997         2.15245 
        4.63391         30.6233         2.13401 
         4.6496         30.4032         2.11578 
        4.66532         30.0978         2.09774 
        4.68103         29.8667         2.07992 
        4.69673         29.5788         2.06233 
        4.71241         29.3568         2.04495 
        4.72811         29.1785         2.02775 
        4.74384         28.7998         2.01072 
        4.75955         28.7095         1.99391 
        4.77525         28.4034          1.9773 
        4.79096         28.2034         1.96087 
        4.80669         27.9683         1.94461 
         4.8224         27.7119         1.92855 
        4.83809         27.4906          1.9127 
        4.85379         27.2738         1.89701 
         4.8695         27.0428         1.88148 
        4.88521         26.7825         1.86614 
        4.90093         26.6231         1.85096 
        4.91663         26.3553         1.83597 
        4.93234         26.1856         1.82112 
        4.94807         25.9543         1.80644 
        4.96377         25.8094         1.79194 
        4.97943         25.4958         1.77762 
        4.99514         25.3328         1.76343 
        5.01086          25.127         1.74939 
        5.02654         24.9052         1.73553 
        5.04227         24.7021         1.72178 
          5.058         24.5705         1.70817 
        5.07371          24.321         1.69474 
        5.08942         24.1858         1.68145 
        5.10513          23.939          1.6683 
        5.12084         23.8392         1.65529 
        5.13656         23.5686         1.64241 
        5.15225         23.4425          1.6297 
        5.16796         23.2093          1.6171 
        5.18369         23.0424         1.60462 
         5.1994         22.8498         1.59229 
        5.21509         22.7124         1.58011 
        5.23079         22.5077         1.56804 
        5.24649         22.2841          1.5561 
        5.26217         22.1855          1.5443 
        5.27788         21.9421          1.5326 
        5.29359          21.771         1.52103 
        5.30933         21.6193         1.50955 
        5.32504         21.4621         1.49821 
        5.34073          21.361           1.487 
        5.35646         21.1598         1.47589 
        5.37218         20.9873         1.46488 
        5.38789         20.8579         1.45401 
        5.40357         20.7192         1.44325 
        5.41929         20.5466         1.43259 
        5.43502         20.3721         1.42202 
         5.4507         20.2123         1.41159 
        5.46639          20.063         1.40127 
        5.48212         19.9318         1.39102 
        5.49786         19.7387         1.38086 
        5.51353         19.6262         1.37086 
        5.52921         19.4572         1.36094 
        5.54495         19.2837          1.3511 
        5.56066         19.1815         1.34136 
        5.57637         19.0465         1.33171 
        5.59207          18.917         1.32218 
        5.60778         18.7208         1.31273 
        5.62346         18.6174         1.30338 
        5.63916         18.4736         1.29412 
        5.65487         18.3163         1.28495 
         5.6706         18.2086         1.27585 
        5.68633         18.0578         1.26684 
        5.70203         17.9353         1.25793 
        5.71773         17.8213         1.24911 
        5.73344         17.6703         1.24037 
        5.74916         17.5322          1.2317 
        5.76486         17.4294         1.22313 
        5.78054         17.2623         1.21466 
        5.79626         17.1721         1.20624 
          5.812         17.0149         1.19789 
         5.8277         16.9444         1.18964 
        5.84339         16.7568         1.18148 
        5.85911         16.6503         1.17337 
        5.87484         16.5298         1.16534 
        5.89053         16.4478         1.15741 
        5.90623         16.2975         1.14954 
        5.92195         16.1879         1.14173 
        5.93767          16.036           1.134 
        5.95336         15.9641         1.12635 
        5.96905          15.841         1.11878 
        5.98476         15.7189         1.11127 
        6.00048         15.6102         1.10382 
        6.01617         15.5217         1.09645 
        6.03185         15.3975         1.08916 
        6.04756          15.294         1.08191 
        6.06331         15.1874         1.07472 
        6.07903         15.0578          1.0676 
        6.09473         14.9304         1.06056 
        6.11044         14.8493         1.05358 
        6.12616         14.7751         1.04665 
        6.14186         14.6576          1.0398 
        6.15755         14.5517         1.03301 
        6.17326         14.4427         1.02628 
        6.18898         14.3535          1.0196 
        6.20467         14.2429         1.01299 
        6.22036         14.1664         1.00644 
         6.2361          14.072        0.999934 
         6.2518           13.95        0.993495 
        6.26748         13.8333        0.987126 
        6.28319         13.7514        0.980795 
        6.29893         13.6923        0.974514 
        6.31463         13.5829        0.968299 
        6.33033         13.4696        0.962141 
        6.34604         13.4032        0.956031 
        6.36177         13.3235        0.949969 
        6.37747         13.2291         0.94397 
