# k  (h/Mpc)    Pcb(k)  (Mpc/h)^3    Pcb_linear(k) (Mpc/h)^3   ShotnoiseSubtracted = true
      0.0200456         212.948         215.356 
      0.0350414         152.053         150.635 
      0.0492313         109.862         109.461 
      0.0637834         89.0467         89.4984 
      0.0800726         67.4695         67.6983 
       0.096163         49.3377         48.7879 
       0.111083         40.3905         39.9957 
       0.126058         34.7332         34.8959 
       0.142273         28.0319         28.0977 
       0.158546         22.3355         22.2368 
        0.17375         19.4753         19.3611 
       0.188953         17.2717         17.2773 
       0.204907         14.5082         14.6489 
       0.220756         12.4187         12.3901 
        0.23588         11.0588         11.0625 
         0.2514         9.97795         9.98198 
       0.267535         8.78713         8.75988 
       0.283568         7.71572         7.69332 
       0.299022         6.97447         6.95942 
       0.314451         6.41674         6.34811 
       0.330372         5.74609         5.71507 
       0.346141         5.18487         5.15513 
       0.361624         4.73019         4.71777 
       0.377134         4.34029         4.34067 
       0.392932         4.04335         3.97505 
       0.408854         3.65206         3.64161 
       0.424564         3.41147         3.36206 
       0.440253         3.13812         3.11603 
       0.455999         2.88542         2.88693 
       0.471626         2.67974         2.67964 
        0.48727         2.52533          2.4956 
       0.502856          2.3616         2.33087 
       0.518488         2.17832         2.17885 
       0.534347         2.02787         2.03719 
       0.550082         1.92526         1.90996 
       0.565732         1.82434         1.79464 
       0.581496         1.70231         1.68768 
       0.597222         1.60056         1.58917 
       0.612804         1.50712         1.49945 
       0.628434         1.42491         1.41663 
       0.644267         1.35256         1.33905 
       0.660051         1.28045          1.2674 
       0.675724         1.20586         1.20137 
       0.691403         1.14554         1.13997 
       0.707174         1.08754         1.08249 
       0.722871         1.04936         1.02917 
        0.73838        0.982171        0.979998 
       0.754018        0.935493        0.933644 
       0.769845        0.885228        0.889767 
        0.78569        0.852661        0.848654 
       0.801365        0.816027        0.810529 
       0.817031        0.780909         0.77476 
       0.832809        0.741631        0.740913 
       0.848511        0.711977        0.709229 
       0.864097        0.684792        0.679605 
       0.879701          0.6599        0.651637 
       0.895507        0.624641        0.624906 
       0.911279        0.603732        0.599722 
        0.92691        0.583709        0.576127 
       0.942635        0.553824        0.553665 
       0.958396        0.534676        0.532347 
       0.974128        0.514616        0.512184 
       0.989692        0.495014        0.493258 
        1.00528        0.474433        0.475256 
        1.02113        0.461645        0.457867 
        1.03692        0.446061        0.441407 
        1.05264        0.426544        0.425828 
        1.06832        0.412825        0.411022 
        1.08405          0.3963        0.396876 
        1.09979        0.384625        0.383385 
        1.11537        0.369214        0.370651 
        1.13105         0.35543        0.358416 
        1.14679        0.346327        0.346684 
        1.16256        0.335769        0.335451 
        1.17828        0.325341        0.324751 
        1.19395        0.314759         0.31455 
         1.2097         0.30382        0.304734 
        1.22537        0.293212        0.295381 
          1.241        0.284743        0.286447 
        1.25666          0.2777        0.277859 
        1.27241        0.268177         0.26958 
        1.28819        0.259311        0.261623 
        1.30392        0.252858        0.254008 
        1.31957         0.24483        0.246728 
        1.33529        0.238481        0.239706 
        1.35108        0.230503        0.232927 
        1.36674        0.224435        0.226457 
         1.3824        0.218514        0.220238 
        1.39811        0.211093         0.21423 
        1.41389        0.206637        0.208422 
        1.42964        0.200657        0.202838 
        1.44531        0.194593        0.197484 
        1.46101        0.188931        0.192311 
        1.47667        0.184458        0.187337 
        1.49229        0.179479        0.182552 
        1.50793        0.175228        0.177927 
        1.52367        0.170086        0.173432 
        1.53953        0.165297        0.169061 
        1.55526        0.161385        0.164875 
        1.57092        0.158341        0.160847 
        1.58662        0.154146        0.156942 
        1.60235        0.150181         0.15316 
        1.61809        0.145871        0.149499 
        1.63369         0.14222        0.145989 
        1.64941        0.139153        0.142566 
        1.66519        0.136098         0.13924 
        1.68085        0.132204        0.136043 
        1.69652        0.129437        0.132945 
        1.71228        0.125856        0.129925 
        1.72806        0.123623        0.126996 
        1.74368        0.120405        0.124186 
        1.75933        0.117965        0.121454 
        1.77505        0.115467        0.118792 
        1.79081         0.11224        0.116204 
         1.8065        0.110245        0.113703 
        1.82218        0.107129        0.111278 
        1.83797        0.104624        0.108907 
        1.85367        0.102577        0.106617 
        1.86928       0.0999614        0.104407 
        1.88497       0.0979038        0.102246 
        1.90073       0.0957094        0.100138 
        1.91647       0.0942056       0.0980916 
        1.93218       0.0926271       0.0961059 
        1.94787       0.0897348       0.0941777 
        1.96363       0.0881641       0.0922943 
        1.97935       0.0861624        0.090466 
        1.99499       0.0844019       0.0886971 
        2.01064       0.0827031       0.0869727 
         2.0264       0.0813495       0.0852829 
        2.04216       0.0792195       0.0836385 
        2.05781       0.0776086       0.0820475 
        2.07353        0.076197        0.080492 
        2.08928       0.0748744        0.078973 
        2.10499       0.0730848       0.0774971 
        2.12065       0.0718203        0.076063 
        2.13633        0.070411       0.0746637 
        2.15211       0.0692055       0.0732903 
        2.16785       0.0674451        0.071955 
        2.18349       0.0663214       0.0706611 
        2.19916       0.0648406        0.069396 
        2.21489       0.0636308       0.0681575 
        2.23063       0.0626773       0.0669482 
         2.2463       0.0614654       0.0657734 
        2.26194       0.0603056       0.0646295 
        2.27765        0.059254       0.0635068 
        2.29341       0.0578716       0.0624076 
        2.30914       0.0569189       0.0613364 
        2.32486       0.0558473       0.0602908 
        2.34061       0.0547893       0.0592677 
        2.35635       0.0539064        0.058269 
        2.37203       0.0532876       0.0572967 
        2.38768       0.0521881       0.0563483 
        2.40339       0.0511613       0.0554178 
        2.41914       0.0502119        0.054506 
        2.43483       0.0494811       0.0536178 
         2.4505       0.0484874       0.0527507 
        2.46622       0.0476385       0.0518996 
        2.48195       0.0467902       0.0510671 
        2.49759       0.0460295       0.0502572 
        2.51328       0.0449697       0.0494626 
        2.52906       0.0444745         0.04868 
        2.54479       0.0437152       0.0479171 
        2.56049       0.0428774       0.0471719 
        2.57618       0.0422974       0.0464431 
        2.59189       0.0413648       0.0457284 
        2.60758        0.040948       0.0450298 
        2.62325       0.0400738       0.0443465 
        2.63898       0.0395705       0.0436749 
        2.65468       0.0388079       0.0430185 
        2.67044       0.0381706       0.0423727 
        2.68618       0.0375563       0.0417415 
        2.70184       0.0371207       0.0411256 
        2.71755       0.0364369       0.0405205 
        2.73329        0.035907       0.0399265 
        2.74897       0.0353533       0.0393463 
        2.76462       0.0346802       0.0387788 
        2.78034        0.034247         0.03822 
        2.79607       0.0337494       0.0376716 
        2.81179       0.0330953       0.0371345 
        2.82749       0.0326881       0.0366083 
        2.84321       0.0321438       0.0360917 
        2.85893       0.0316337       0.0355852 
        2.87462        0.031194       0.0350891 
        2.89033       0.0306948        0.034602 
        2.90605       0.0302509       0.0341236 
        2.92176       0.0299124       0.0336544 
        2.93747       0.0293586       0.0331942 
        2.95318       0.0290395       0.0327424 
        2.96891        0.028533       0.0322988 
        2.98456       0.0281146       0.0318653 
        3.00023       0.0278273        0.031439 
        3.01596       0.0272543       0.0310192 
        3.03164       0.0269499       0.0306081 
        3.04738       0.0265588       0.0302033 
         3.0631       0.0260521       0.0298058 
        3.07883       0.0258259       0.0294154 
        3.09456       0.0254813        0.029032 
        3.11026       0.0250664        0.028656 
        3.12596        0.024883       0.0282866 
        3.14163       0.0244461       0.0279245 
        3.15734       0.0241998       0.0275679 
        3.17308       0.0238337       0.0272165 
        3.18879       0.0234767       0.0268722 
        3.20447        0.023098       0.0265343 
         3.2202       0.0228863       0.0262012 
         3.2359       0.0225906       0.0258742 
        3.25157       0.0222827       0.0255536 
        3.26729       0.0220131       0.0252374 
        3.28304       0.0217788       0.0249259 
        3.29877       0.0214864       0.0246201 
        3.31446       0.0211304       0.0243199 
        3.33014       0.0209767        0.024025 
        3.34585       0.0206595       0.0237345 
        3.36158       0.0204031       0.0234483 
        3.37727       0.0201043       0.0231677 
        3.39294       0.0198923       0.0228919 
        3.40867       0.0197182       0.0226196 
        3.42439       0.0194645       0.0223518 
        3.44008       0.0192669       0.0220888 
        3.45578       0.0190393       0.0218298 
        3.47153       0.0188433       0.0215744 
        3.48724       0.0186147       0.0213234 
        3.50292       0.0184797       0.0210771 
        3.51859       0.0182176       0.0208346 
        3.53431        0.017927       0.0205952 
        3.55007       0.0178049        0.020359 
        3.56577       0.0176309       0.0201274 
        3.58146        0.017431       0.0198994 
        3.59719       0.0172694       0.0196744 
        3.61292       0.0170245       0.0194529 
        3.62859       0.0168386       0.0192357 
        3.64429       0.0167396       0.0190213 
        3.66003        0.016552       0.0188095 
        3.67578        0.016385       0.0186009 
        3.69146        0.016253       0.0183963 
        3.70712       0.0160711       0.0181951 
        3.72284       0.0158989       0.0179962 
        3.73853       0.0157688       0.0178005 
        3.75422       0.0155591       0.0176077 
        3.76993       0.0154956       0.0174175 
        3.78564       0.0153108       0.0172302 
        3.80137       0.0151868       0.0170453 
        3.81707       0.0150118       0.0168635 
        3.83279       0.0148753       0.0166841 
        3.84853       0.0147557       0.0165071 
        3.86424       0.0146514        0.016333 
        3.87992       0.0145317       0.0161616 
        3.89561       0.0143441       0.0159926 
        3.91134       0.0142512       0.0158257 
        3.92704       0.0141021       0.0156613 
        3.94273       0.0139688       0.0154994 
        3.95845       0.0138204       0.0153395 
        3.97418       0.0137342       0.0151818 
        3.98988       0.0135319       0.0150265 
        4.00554       0.0134503       0.0148737 
        4.02125        0.013265       0.0147227 
        4.03698       0.0130732       0.0145735 
        4.05268       0.0129054       0.0144266 
        4.06839       0.0127177       0.0142817 
         4.0841       0.0125019       0.0141388 
        4.09983        0.012331       0.0139976 
        4.11555       0.0121752       0.0138584 
        4.13124        0.011987       0.0137215 
        4.14693       0.0118289       0.0135862 
        4.16266       0.0116643       0.0134525 
        4.17839       0.0115157       0.0133206 
        4.19408       0.0113392       0.0131908 
        4.20977        0.011197       0.0130626 
        4.22551       0.0110673       0.0129358 
        4.24123       0.0109473       0.0128109 
        4.25691        0.010825       0.0126878 
        4.27259       0.0106786       0.0125664 
        4.28831       0.0106099       0.0124463 
        4.30404       0.0104562       0.0123276 
        4.31974       0.0103826       0.0122107 
        4.33543       0.0102852       0.0120954 
        4.35116       0.0101638       0.0119813 
        4.36688       0.0101352       0.0118687 
        4.38255       0.0100183       0.0117579 
        4.39825      0.00999821       0.0116483 
        4.41398       0.0099232       0.0115399 
         4.4297      0.00984378       0.0114329 
        4.44541      0.00977708       0.0113274 
        4.46111      0.00970452       0.0112232 
        4.47683      0.00970905       0.0111202 
        4.49251       0.0096394       0.0110187 
        4.50819      0.00963839       0.0109185 
         4.5239      0.00956178       0.0108194 
        4.53962      0.00954609       0.0107214 
        4.55535      0.00950966       0.0106246 
        4.57106      0.00954227       0.0105291 
        4.58678      0.00948902       0.0104347 
         4.6025      0.00949962       0.0103414 
        4.61821      0.00950307       0.0102493 
        4.63391      0.00949821       0.0101584 
         4.6496      0.00949244       0.0100687 
        4.66532      0.00949011      0.00997987 
        4.68103      0.00952686      0.00989215 
        4.69673      0.00953725      0.00980557 
        4.71241      0.00959397      0.00972009 
        4.72811      0.00960083      0.00963549 
        4.74384      0.00965165      0.00955177 
        4.75955      0.00967384      0.00946917 
        4.77525      0.00974373      0.00938758 
        4.79096      0.00978578      0.00930685 
        4.80669        0.009861      0.00922702 
         4.8224      0.00989987       0.0091482 
        4.83809      0.00997999      0.00907039 
        4.85379       0.0101174      0.00899342 
         4.8695       0.0101417      0.00891727 
        4.88521       0.0102063      0.00884203 
        4.90093       0.0102772      0.00876764 
        4.91663       0.0103939      0.00869416 
        4.93234       0.0104911      0.00862144 
        4.94807       0.0105827       0.0085495 
        4.96377       0.0107097       0.0084785 
        4.97943       0.0109037      0.00840845 
        4.99514       0.0109514      0.00833901 
        5.01086       0.0110976      0.00827029 
        5.02654       0.0112275      0.00820251 
        5.04227        0.011322      0.00813529 
          5.058       0.0115022      0.00806878 
        5.07371       0.0116163      0.00800314 
        5.08942       0.0118208      0.00793821 
        5.10513         0.01196      0.00787399 
        5.12084       0.0121243      0.00781044 
        5.13656       0.0123215      0.00774761 
        5.15225       0.0125246      0.00768556 
        5.16796       0.0127061      0.00762408 
        5.18369       0.0128548      0.00756322 
         5.1994       0.0131063      0.00750312 
        5.21509       0.0132893      0.00744373 
        5.23079       0.0135425       0.0073849 
        5.24649       0.0137689      0.00732675 
        5.26217       0.0139792      0.00726926 
        5.27788       0.0142716       0.0072123 
        5.29359       0.0144355      0.00715593 
        5.30933       0.0147176      0.00710008 
        5.32504         0.01499      0.00704491 
        5.34073       0.0152702      0.00699039 
        5.35646       0.0155894      0.00693633 
        5.37218       0.0158455      0.00688282 
        5.38789       0.0160872      0.00682996 
        5.40357       0.0165233      0.00677771 
        5.41929       0.0168286      0.00672589 
        5.43502       0.0171174      0.00667459 
         5.4507       0.0174306      0.00662395 
        5.46639       0.0178197      0.00657383 
        5.48212       0.0181772       0.0065241 
        5.49786       0.0186042      0.00647482 
        5.51353       0.0190959      0.00642629 
        5.52921       0.0192784       0.0063782 
        5.54495       0.0198024      0.00633046 
        5.56066       0.0202733      0.00628325 
        5.57637       0.0206869      0.00623653 
        5.59207       0.0211218      0.00619033 
        5.60778       0.0215003      0.00614456 
        5.62346       0.0220615      0.00609932 
        5.63916       0.0225295      0.00605449 
        5.65487       0.0230421      0.00601008 
         5.6706       0.0235224      0.00596606 
        5.68633       0.0241984      0.00592247 
        5.70203       0.0246485      0.00587939 
        5.71773       0.0253382      0.00583674 
        5.73344       0.0256923       0.0057945 
        5.74916       0.0263691      0.00575262 
        5.76486        0.027113      0.00571122 
        5.78054        0.027824      0.00567028 
        5.79626       0.0282998      0.00562962 
          5.812       0.0291631      0.00558932 
         5.8277       0.0296622      0.00554953 
        5.84339       0.0304824      0.00551012 
        5.85911        0.031303      0.00547102 
        5.87484       0.0319602      0.00543229 
        5.89053       0.0329155      0.00539402 
        5.90623       0.0335752      0.00535609 
        5.92195       0.0345913      0.00531846 
        5.93767       0.0355834      0.00528121 
        5.95336       0.0361315      0.00524438 
        5.96905       0.0372079       0.0052079 
        5.98476       0.0378363      0.00517172 
        6.00048       0.0392376      0.00513587 
        6.01617       0.0400691       0.0051004 
        6.03185        0.040986       0.0050653 
        6.04756       0.0422503      0.00503045 
        6.06331       0.0436493      0.00499585 
        6.07903       0.0444885      0.00496165 
        6.09473       0.0457388      0.00492779 
        6.11044        0.047122      0.00489422 
        6.12616       0.0481839      0.00486096 
        6.14186       0.0494691      0.00482804 
        6.15755       0.0507026      0.00479543 
        6.17326       0.0521331      0.00476309 
        6.18898       0.0539202      0.00473102 
        6.20467       0.0555679      0.00469931 
        6.22036       0.0568381      0.00466789 
         6.2361       0.0584317      0.00463667 
         6.2518       0.0604565      0.00460578 
        6.26748       0.0611946      0.00457524 
        6.28319       0.0635745      0.00454489 
        6.29893        0.064957      0.00451479 
        6.31463       0.0673032      0.00448501 
        6.33033       0.0689177       0.0044555 
        6.34604       0.0712734      0.00442624 
        6.36177       0.0725516       0.0043972 
        6.37747       0.0749231      0.00436848 
