# k  (h/Mpc)    Pcb(k)  (Mpc/h)^3    Pcb_linear(k) (Mpc/h)^3   ShotnoiseSubtracted = true
      0.0200456         10353.6         10526.2 
      0.0350414         7173.79         7362.75 
      0.0492313         5315.03         5350.23 
      0.0637834         4468.31         4374.51 
      0.0800726         3394.66         3308.96 
       0.096163         2354.95         2384.66 
       0.111083         1914.15         1954.91 
       0.126058          1738.8         1705.64 
       0.142273         1448.66         1373.36 
       0.158546         1203.45         1086.89 
        0.17375         984.685         946.333 
       0.188953         938.175         844.481 
       0.204907         859.613         716.009 
       0.220756         726.578         605.604 
        0.23588         643.428         540.714 
         0.2514         561.128           487.9 
       0.267535         535.912         428.166 
       0.283568         483.957         376.035 
       0.299022         450.885         340.163 
       0.314451         419.736         310.283 
       0.330372         385.486         279.341 
       0.346141         346.788         251.973 
       0.361624         333.084         230.596 
       0.377134         309.315         212.163 
       0.392932          289.64         194.293 
       0.408854         277.048         177.995 
       0.424564         263.635         164.331 
       0.440253         252.542         152.306 
       0.455999         236.853         141.108 
       0.471626         220.027         130.975 
        0.48727         212.648          121.98 
       0.502856         204.942         113.928 
       0.518488         201.473         106.498 
       0.534347         189.983         99.5741 
       0.550082         177.344         93.3551 
       0.565732         173.056         87.7186 
       0.581496         164.403         82.4904 
       0.597222          159.76         77.6758 
       0.612804         153.455         73.2903 
       0.628434         148.442          69.242 
       0.644267          143.38           65.45 
       0.660051         141.281         61.9482 
       0.675724         137.419         58.7209 
       0.691403         133.003         55.7195 
       0.707174         127.372         52.9099 
       0.722871         126.015          50.304 
        0.73838         123.085         47.9004 
       0.754018         118.592         45.6347 
       0.769845         115.528         43.4901 
        0.78569         113.166         41.4806 
       0.801365         109.729         39.6171 
       0.817031         105.856         37.8688 
       0.832809         104.379         36.2144 
       0.848511         101.304         34.6657 
       0.864097         98.9851         33.2178 
       0.879701         97.0723         31.8508 
       0.895507         94.8399         30.5442 
       0.911279         93.0062         29.3132 
        0.92691         91.5834           28.16 
       0.942635         88.8599         27.0621 
       0.958396         88.5576         26.0201 
       0.974128         86.0803         25.0345 
       0.989692         83.9277         24.1095 
        1.00528           82.14         23.2296 
        1.02113         81.3213         22.3796 
        1.03692          78.319         21.5751 
        1.05264         78.1936         20.8137 
        1.06832         75.9835         20.0899 
        1.08405         74.9202         19.3985 
        1.09979         74.5305         18.7391 
        1.11537         71.8625         18.1167 
        1.13105         71.9224         17.5187 
        1.14679         70.6111         16.9452 
        1.16256         69.5483         16.3962 
        1.17828         67.7826         15.8732 
        1.19395         66.8859         15.3746 
         1.2097         65.2893         14.8948 
        1.22537         65.4495         14.4377 
          1.241         63.8212          14.001 
        1.25666         62.4509         13.5812 
        1.27241         61.7114         13.1765 
        1.28819         60.6495         12.7876 
        1.30392         59.8396         12.4154 
        1.31957         59.1112         12.0596 
        1.33529         57.9237         11.7163 
        1.35108         57.6583          11.385 
        1.36674         56.9117         11.0688 
         1.3824         55.6894         10.7648 
        1.39811         55.1168         10.4711 
        1.41389         54.2907         10.1873 
        1.42964         53.6478         9.91431 
        1.44531         52.5906         9.65263 
        1.46101         51.7999         9.39978 
        1.47667         51.7734         9.15669 
        1.49229         50.8196         8.92279 
        1.50793         50.3517         8.69675 
        1.52367         49.3742         8.47703 
        1.53953          48.827         8.26339 
        1.55526          48.339         8.05877 
        1.57092         47.9801         7.86187 
        1.58662         47.1533         7.67104 
        1.60235         46.6486         7.48614 
        1.61809         46.0668          7.3072 
        1.63369         45.2597         7.13566 
        1.64941         44.8792         6.96836 
        1.66519         44.0198         6.80579 
        1.68085         43.7566         6.64953 
        1.69652         43.0193         6.49809 
        1.71228         42.7235         6.35048 
        1.72806         42.3148          6.2073 
        1.74368         41.6061         6.06995 
        1.75933         41.2557         5.93645 
        1.77505         40.7694         5.80631 
        1.79081          40.263         5.67982 
         1.8065         39.9231          5.5576 
        1.82218         39.3656         5.43907 
        1.83797         38.7814         5.32316 
        1.85367          38.348         5.21124 
        1.86928         37.9001         5.10319 
        1.88497          37.692         4.99759 
        1.90073         37.1619         4.89457 
        1.91647         36.7565         4.79453 
        1.93218         36.4183         4.69747 
        1.94787         35.9759         4.60322 
        1.96363          35.586         4.51117 
        1.97935         35.1201          4.4218 
        1.99499         34.7885         4.33534 
        2.01064         34.5065         4.25106 
         2.0264         33.8668         4.16846 
        2.04216         33.6529         4.08809 
        2.05781          33.205         4.01033 
        2.07353         32.8747         3.93429 
        2.08928         32.6945         3.86005 
        2.10499         32.2018         3.78791 
        2.12065         31.7994         3.71781 
        2.13633         31.7026         3.64942 
        2.15211         31.2579         3.58229 
        2.16785         30.6977         3.51702 
        2.18349         30.5161         3.45378 
        2.19916          30.301         3.39194 
        2.21489         29.8793         3.33141 
        2.23063         29.5766          3.2723 
         2.2463         29.1682         3.21488 
        2.26194         28.9002         3.15897 
        2.27765         28.6133         3.10409 
        2.29341         28.3481         3.05036 
        2.30914          28.089         2.99801 
        2.32486         27.6987          2.9469 
        2.34061         27.5181         2.89689 
        2.35635          27.261         2.84808 
        2.37203         27.0029         2.80055 
        2.38768         26.6465          2.7542 
        2.40339         26.5032         2.70872 
        2.41914          26.233         2.66415 
        2.43483         25.8343         2.62073 
         2.4505         25.6563         2.57835 
        2.46622         25.4142         2.53675 
        2.48195          25.176         2.49606 
        2.49759         24.9226         2.45647 
        2.51328         24.5678         2.41763 
        2.52906         24.4766         2.37938 
        2.54479         24.1212         2.34209 
        2.56049         23.9079         2.30567 
        2.57618         23.6448         2.27005 
        2.59189         23.5459         2.23512 
        2.60758         23.2852         2.20097 
        2.62325         22.9513         2.16757 
        2.63898         22.8682         2.13475 
        2.65468         22.5481         2.10266 
        2.67044         22.3843          2.0711 
        2.68618         22.1023         2.04025 
        2.70184         21.9004         2.01014 
        2.71755         21.7663         1.98056 
        2.73329          21.512         1.95153 
        2.74897          21.262         1.92317 
        2.76462         21.0888         1.89543 
        2.78034         20.9854         1.86812 
        2.79607         20.7755         1.84132 
        2.81179         20.5105         1.81506 
        2.82749         20.3791         1.78935 
        2.84321         20.1183         1.76409 
        2.85893         19.8773         1.73933 
        2.87462         19.7475         1.71509 
        2.89033         19.6304         1.69128 
        2.90605         19.4333         1.66789 
        2.92176         19.2792         1.64496 
        2.93747         19.1133         1.62247 
        2.95318         18.8511         1.60039 
        2.96891         18.7337          1.5787 
        2.98456          18.536         1.55751 
        3.00023         18.3173         1.53668 
        3.01596         18.1908         1.51616 
        3.03164         18.0212         1.49607 
        3.04738         17.8643         1.47628 
         3.0631         17.7197         1.45685 
        3.07883          17.567         1.43777 
        3.09456         17.3586         1.41903 
        3.11026         17.2012         1.40065 
        3.12596         17.0756         1.38259 
        3.14163         16.9412          1.3649 
        3.15734         16.7729         1.34746 
        3.17308         16.6104         1.33029 
        3.18879         16.4628         1.31346 
        3.20447         16.3081         1.29695 
         3.2202         16.1864         1.28066 
         3.2359         15.9751         1.26468 
        3.25157         15.9265         1.24901 
        3.26729         15.7899         1.23356 
        3.28304         15.6391         1.21833 
        3.29877         15.4008         1.20338 
        3.31446         15.3065         1.18871 
        3.33014         15.1719          1.1743 
        3.34585         15.0099          1.1601 
        3.36158         14.9144         1.14611 
        3.37727         14.7591         1.13239 
        3.39294         14.6147         1.11891 
        3.40867         14.4901          1.1056 
        3.42439         14.3904         1.09251 
        3.44008         14.2441         1.07966 
        3.45578         14.1045           1.067 
        3.47153         14.0085         1.05451 
        3.48724         13.8485         1.04225 
        3.50292         13.7786         1.03021 
        3.51859         13.6324         1.01836 
        3.53431         13.5377         1.00666 
        3.55007          13.411        0.995109 
        3.56577         13.2807        0.983786 
        3.58146         13.1966        0.972643 
        3.59719         13.0398        0.961646 
        3.61292         12.9374        0.950821 
        3.62859         12.8217        0.940202 
        3.64429         12.7273        0.929723 
        3.66003         12.6175         0.91937 
        3.67578         12.5328        0.909178 
        3.69146         12.4443        0.899177 
        3.70712         12.2799        0.889343 
        3.72284         12.2286        0.879619 
        3.73853         12.0927        0.870056 
        3.75422         11.9384         0.86063 
        3.76993         11.8898        0.851334 
        3.78564         11.7589        0.842178 
        3.80137         11.6858        0.833141 
        3.81707         11.5919        0.824254 
        3.83279          11.475        0.815489 
        3.84853         11.3804        0.806835 
        3.86424         11.2553        0.798324 
        3.87992         11.1644        0.789946 
        3.89561         11.0813        0.781687 
        3.91134         10.9916        0.773528 
        3.92704         10.9112        0.765494 
        3.94273         10.8165        0.757581 
        3.95845         10.7142        0.749765 
        3.97418         10.6648        0.742056 
        3.98988         10.5321        0.734465 
        4.00554          10.483           0.727 
        4.02125         10.3868        0.719616 
        4.03698         10.2785        0.712323 
        4.05268         10.2104        0.705146 
        4.06839         10.1292        0.698062 
         4.0841         10.0061        0.691077 
        4.09983          9.9255        0.684176 
        4.11555         9.87372        0.677372 
        4.13124         9.78667        0.670678 
        4.14693         9.72892        0.664068 
        4.16266         9.61588        0.657531 
        4.17839         9.55301        0.651086 
        4.19408          9.4791         0.64474 
        4.20977         9.39728        0.638476 
        4.22551         9.31308        0.632279 
        4.24123         9.25413         0.62617 
        4.25691         9.17843        0.620157 
        4.27259          9.1004        0.614221 
        4.28831         9.02424         0.60835 
        4.30404         8.94201        0.602549 
        4.31974         8.88491        0.596836 
        4.33543         8.81992          0.5912 
        4.35116         8.74004        0.585622 
        4.36688         8.67462        0.580118 
        4.38255         8.60185        0.574704 
        4.39825         8.54505        0.569347 
        4.41398          8.4605        0.564047 
         4.4297         8.37881         0.55882 
        4.44541          8.3181        0.553659 
        4.46111         8.27285        0.548567 
        4.47683         8.20804        0.543534 
        4.49251         8.15983        0.538574 
        4.50819          8.0621        0.533677 
         4.5239         8.00507        0.528833 
        4.53962         7.96451        0.524043 
        4.55535         7.88733        0.519309 
        4.57106         7.82303         0.51464 
        4.58678         7.75554        0.510027 
         4.6025         7.69577        0.505469 
        4.61821         7.62484        0.500967 
        4.63391          7.5854        0.496525 
         4.6496         7.53785        0.492138 
        4.66532         7.46627        0.487797 
        4.68103         7.41264        0.483509 
        4.69673          7.3489        0.479277 
        4.71241          7.2961        0.475099 
        4.72811          7.2186        0.470964 
        4.74384         7.19529        0.466872 
        4.75955         7.13046        0.462835 
        4.77525         7.08817        0.458847 
        4.79096         7.03492        0.454901 
        4.80669         6.96233        0.450999 
         4.8224         6.90397        0.447147 
        4.83809         6.86812        0.443343 
        4.85379         6.80959        0.439581 
         4.8695         6.75701        0.435859 
        4.88521         6.72032        0.432181 
        4.90093           6.651        0.428545 
        4.91663          6.6015        0.424954 
        4.93234         6.56015        0.421399 
        4.94807          6.5013        0.417883 
        4.96377         6.45671        0.414413 
        4.97943         6.43548        0.410989 
        4.99514         6.36427        0.407595 
        5.01086         6.30898        0.404236 
        5.02654         6.26277        0.400923 
        5.04227         6.23689        0.397637 
          5.058         6.18262        0.394386 
        5.07371         6.14365        0.391178 
        5.08942            6.09        0.388004 
        5.10513         6.04686        0.384866 
        5.12084         6.01034        0.381759 
        5.13656          5.9656        0.378688 
        5.15225         5.90937        0.375655 
        5.16796          5.8834         0.37265 
        5.18369         5.83368        0.369675 
         5.1994         5.78333        0.366738 
        5.21509          5.7571        0.363835 
        5.23079         5.70043         0.36096 
        5.24649         5.67456        0.358117 
        5.26217         5.63364        0.355307 
        5.27788         5.58766        0.352523 
        5.29359         5.56577        0.349768 
        5.30933         5.51993        0.347038 
        5.32504         5.47832        0.344342 
        5.34073         5.43722        0.341677 
        5.35646         5.39612        0.339034 
        5.37218         5.37515        0.336419 
        5.38789         5.33271        0.333835 
        5.40357         5.28752        0.331281 
        5.41929         5.25396        0.328748 
        5.43502         5.22245        0.326241 
         5.4507         5.18737        0.323766 
        5.46639         5.13865        0.321316 
        5.48212         5.10593        0.318885 
        5.49786         5.07988        0.316477 
        5.51353         5.02929        0.314104 
        5.52921         5.02066        0.311754 
        5.54495         4.97968        0.309421 
        5.56066         4.94552        0.307113 
        5.57637         4.90441         0.30483 
        5.59207          4.8809        0.302571 
        5.60778         4.83765        0.300334 
        5.62346         4.80439        0.298123 
        5.63916         4.77361        0.295932 
        5.65487         4.73916        0.293761 
         5.6706         4.72076         0.29161 
        5.68633         4.68422        0.289479 
        5.70203         4.65275        0.287373 
        5.71773         4.62486        0.285289 
        5.73344         4.59127        0.283224 
        5.74916         4.55166        0.281177 
        5.76486         4.53836        0.279153 
        5.78054         4.50239        0.277152 
        5.79626         4.46685        0.275165 
          5.812         4.44837        0.273195 
         5.8277         4.41175         0.27125 
        5.84339         4.38418        0.269324 
        5.85911         4.35353        0.267413 
        5.87484         4.33674         0.26552 
        5.89053         4.30459        0.263649 
        5.90623         4.26857        0.261796 
        5.92195         4.24885        0.259956 
        5.93767         4.20931        0.258135 
        5.95336         4.18718        0.256335 
        5.96905         4.16501        0.254552 
        5.98476         4.13474        0.252784 
        6.00048         4.11899        0.251031 
        6.01617         4.08603        0.249298 
        6.03185         4.05334        0.247582 
        6.04756          4.0387        0.245879 
        6.06331         4.00489        0.244188 
        6.07903         3.98305        0.242516 
        6.09473         3.96239        0.240861 
        6.11044          3.9248         0.23922 
        6.12616         3.91054        0.237594 
        6.14186         3.88095        0.235985 
        6.15755         3.85603        0.234391 
        6.17326         3.84269         0.23281 
        6.18898         3.81687        0.231243 
        6.20467         3.78656        0.229693 
        6.22036         3.76671        0.228158 
         6.2361         3.74402        0.226632 
         6.2518         3.71861        0.225122 
        6.26748         3.69509        0.223629 
        6.28319         3.67535        0.222146 
        6.29893         3.64729        0.220674 
        6.31463         3.62733        0.219218 
        6.33033         3.60815        0.217776 
        6.34604         3.59011        0.216346 
        6.36177         3.56346        0.214927 
        6.37747         3.54983        0.213523 
