# k  (h/Mpc)    Pcb(k)  (Mpc/h)^3    Pcb_linear(k) (Mpc/h)^3   ShotnoiseSubtracted = true
      0.0200456         13750.7         13999.1 
      0.0350414          9486.2         9791.94 
      0.0492313         7042.61         7115.44 
      0.0637834         5951.21          5817.8 
      0.0800726         4520.99          4400.7 
       0.096163          3124.8         3171.43 
       0.111083         2544.24          2599.9 
       0.126058          2316.8         2268.39 
       0.142273         1938.21         1826.48 
       0.158546         1635.64         1445.49 
        0.17375         1329.71         1258.56 
       0.188953          1277.7          1123.1 
       0.204907         1176.54         952.242 
       0.220756         1002.39         805.412 
        0.23588         890.107         719.113 
         0.2514         772.996         648.873 
       0.267535         749.963         569.431 
       0.283568         677.816           500.1 
       0.299022         635.022         452.394 
       0.314451         598.113         412.656 
       0.330372          548.97         371.505 
       0.346141         499.902         335.106 
       0.361624         480.934         306.676 
       0.377134         444.938         282.163 
       0.392932         423.643         258.396 
       0.408854         406.889         236.721 
       0.424564          383.67         218.549 
       0.440253         373.126         202.556 
       0.455999         350.534         187.663 
       0.471626         329.321         174.188 
        0.48727         317.506         162.225 
       0.502856         307.316         151.517 
       0.518488         303.764         141.635 
       0.534347         284.446         132.427 
       0.550082         269.024         124.156 
       0.565732         265.574          116.66 
       0.581496         250.466         109.707 
       0.597222         245.431         103.303 
       0.612804         237.623         97.4711 
       0.628434         227.981         92.0871 
       0.644267         221.037          87.044 
       0.660051         217.311         82.3868 
       0.675724         212.885         78.0947 
       0.691403         206.525         74.1031 
       0.707174         198.451         70.3665 
       0.722871         196.089         66.9009 
        0.73838         191.979         63.7042 
       0.754018         187.159          60.691 
       0.769845         180.653         57.8388 
        0.78569         179.505         55.1663 
       0.801365         173.092          52.688 
       0.817031         167.779         50.3629 
       0.832809         165.879         48.1626 
       0.848511         161.254          46.103 
       0.864097          159.08         44.1774 
       0.879701          155.57         42.3593 
       0.895507         151.562         40.6217 
       0.911279          147.33         38.9846 
        0.92691         147.114         37.4508 
       0.942635         142.881         35.9907 
       0.958396         142.476         34.6049 
       0.974128         138.758         33.2942 
       0.989692         135.444          32.064 
        1.00528         133.327         30.8938 
        1.02113         132.276         29.7634 
        1.03692         127.998         28.6934 
        1.05264         125.918         27.6807 
        1.06832         123.493         26.7182 
        1.08405          121.77         25.7987 
        1.09979         121.201         24.9217 
        1.11537         117.441         24.0939 
        1.13105         116.403         23.2987 
        1.14679         115.596          22.536 
        1.16256         113.878         21.8058 
        1.17828         111.347         21.1102 
        1.19395         109.535         20.4472 
         1.2097         108.102         19.8091 
        1.22537         106.993         19.2011 
          1.241         104.954         18.6204 
        1.25666         103.182          18.062 
        1.27241         101.531         17.5239 
        1.28819         100.223         17.0066 
        1.30392         98.5154         16.5116 
        1.31957          97.582         16.0384 
        1.33529         95.3081         15.5819 
        1.35108         94.4526         15.1413 
        1.36674         93.5941         14.7207 
         1.3824         91.6847         14.3164 
        1.39811         90.7392         13.9259 
        1.41389          89.499         13.5483 
        1.42964         87.7029         13.1853 
        1.44531         86.0894         12.8373 
        1.46101         85.1432         12.5011 
        1.47667         84.6848         12.1778 
        1.49229         83.1792         11.8667 
        1.50793         82.4816         11.5661 
        1.52367          81.171         11.2739 
        1.53953         79.8435         10.9897 
        1.55526         79.2636         10.7176 
        1.57092         78.4811         10.4557 
        1.58662         76.7022          10.202 
        1.60235         76.5324         9.95606 
        1.61809         75.1168         9.71808 
        1.63369         74.5161         9.48994 
        1.64941         73.8675         9.26744 
        1.66519          71.885         9.05123 
        1.68085         71.7476         8.84341 
        1.69652         70.0436         8.64201 
        1.71228         70.0324          8.4457 
        1.72806         69.0187         8.25529 
        1.74368         68.0814         8.07261 
        1.75933         66.9927         7.89507 
        1.77505         66.5778         7.72199 
        1.79081         65.4342         7.55376 
         1.8065         64.6496         7.39123 
        1.82218         63.7959         7.23359 
        1.83797          63.112         7.07944 
        1.85367         62.6037          6.9306 
        1.86928         62.1668         6.78689 
        1.88497         60.9822         6.64646 
        1.90073         60.1535         6.50945 
        1.91647         59.8908         6.37639 
        1.93218         58.9385         6.24731 
        1.94787          58.256         6.12197 
        1.96363         57.4689         5.99954 
        1.97935         57.1559         5.88069 
        1.99499         56.2158         5.76571 
        2.01064          55.835         5.65361 
         2.0264         54.6359         5.54377 
        2.04216         54.3495         5.43688 
        2.05781         53.6474         5.33346 
        2.07353          52.775         5.23234 
        2.08928         52.3034          5.1336 
        2.10499         51.7509         5.03766 
        2.12065          51.255         4.94443 
        2.13633         50.7865         4.85347 
        2.15211         50.3977         4.76419 
        2.16785         49.8398          4.6774 
        2.18349           49.41         4.59329 
        2.19916         48.6591         4.51105 
        2.21489         48.2763         4.43054 
        2.23063          47.826         4.35193 
         2.2463         47.1833         4.27557 
        2.26194         46.4581         4.20121 
        2.27765         46.2655         4.12822 
        2.29341         45.5922         4.05677 
        2.30914         44.9548         3.98714 
        2.32486         44.2768         3.91917 
        2.34061         44.0302         3.85267 
        2.35635          43.388         3.78775 
        2.37203         42.9955         3.72454 
        2.38768         42.5726         3.66289 
        2.40339         42.1487         3.60241 
        2.41914         41.7163         3.54313 
        2.43483         41.3665         3.48539 
         2.4505         41.0069         3.42903 
        2.46622         40.5037         3.37371 
        2.48195          40.053         3.31959 
        2.49759         39.5088         3.26694 
        2.51328         39.1036         3.21529 
        2.52906         38.7047         3.16441 
        2.54479          38.353         3.11482 
        2.56049         37.7953         3.06638 
        2.57618         37.5581         3.01901 
        2.59189         37.0611         2.97255 
        2.60758         36.8024         2.92714 
        2.62325         36.3102         2.88272 
        2.63898         35.9221         2.83907 
        2.65468         35.4826          2.7964 
        2.67044         34.9919         2.75442 
        2.68618         34.8206         2.71339 
        2.70184         34.4281         2.67335 
        2.71755         34.1569         2.63401 
        2.73329         33.7333          2.5954 
        2.74897         33.3623         2.55768 
        2.76462         32.9645         2.52079 
        2.78034         32.7851         2.48447 
        2.79607         32.3867         2.44882 
        2.81179         32.0871         2.41391 
        2.82749         31.5771         2.37971 
        2.84321         31.3934         2.34612 
        2.85893         31.0995         2.31319 
        2.87462         30.6763         2.28095 
        2.89033         30.3333         2.24928 
        2.90605         30.2263         2.21818 
        2.92176         29.8222         2.18769 
        2.93747         29.6028         2.15777 
        2.95318         29.1968          2.1284 
        2.96891         28.8777         2.09957 
        2.98456         28.7069         2.07139 
        3.00023         28.3165         2.04368 
        3.01596          28.027         2.01639 
        3.03164         27.8728         1.98967 
        3.04738         27.6076         1.96335 
         3.0631         27.2429         1.93751 
        3.07883         26.9865         1.91213 
        3.09456         26.7371         1.88721 
        3.11026         26.5103         1.86277 
        3.12596         26.2287         1.83875 
        3.14163         25.9902         1.81522 
        3.15734         25.7369         1.79203 
        3.17308          25.404          1.7692 
        3.18879         25.2937         1.74682 
        3.20447         24.9842         1.72485 
         3.2202         24.6938         1.70319 
         3.2359         24.5269         1.68194 
        3.25157         24.3172          1.6611 
        3.26729         24.1097         1.64055 
        3.28304         23.8086          1.6203 
        3.29877          23.514         1.60041 
        3.31446         23.3316          1.5809 
        3.33014          23.111         1.56173 
        3.34585         23.0135         1.54285 
        3.36158          22.676         1.52425 
        3.37727         22.4417         1.50601 
        3.39294         22.2827         1.48808 
        3.40867         22.0283         1.47037 
        3.42439         21.8534         1.45297 
        3.44008         21.6401         1.43587 
        3.45578         21.4146         1.41904 
        3.47153         21.2376         1.40243 
        3.48724         21.0158         1.38612 
        3.50292         20.9011          1.3701 
        3.51859         20.6313         1.35434 
        3.53431         20.4839         1.33878 
        3.55007         20.2157         1.32343 
        3.56577         20.0361         1.30837 
        3.58146         19.9293         1.29355 
        3.59719         19.6757         1.27892 
        3.61292         19.5633         1.26453 
        3.62859         19.3053          1.2504 
        3.64429          19.149         1.23647 
        3.66003         18.9998          1.2227 
        3.67578         18.7992         1.20914 
        3.69146          18.688         1.19584 
        3.70712         18.4614         1.18277 
        3.72284         18.3132         1.16983 
        3.73853         18.1502         1.15711 
        3.75422         18.0199         1.14458 
        3.76993         17.7887         1.13222 
        3.78564         17.6302         1.12004 
        3.80137         17.4898         1.10802 
        3.81707         17.3698          1.0962 
        3.83279         17.1923         1.08454 
        3.84853         17.0062         1.07304 
        3.86424         16.8794         1.06172 
        3.87992         16.7218         1.05057 
        3.89561         16.5632         1.03959 
        3.91134         16.4617         1.02874 
        3.92704         16.2806         1.01805 
        3.94273         16.1501         1.00753 
        3.95845         15.9651        0.997136 
        3.97418         15.8442        0.986883 
        3.98988          15.694        0.976788 
        4.00554         15.5969         0.96686 
        4.02125          15.447         0.95704 
        4.03698         15.2743         0.94734 
        4.05268         15.1821        0.937796 
        4.06839         14.9747        0.928375 
         4.0841         14.9628        0.919085 
        4.09983           14.75        0.909908 
        4.11555         14.6624        0.900858 
        4.13124         14.5379        0.891956 
        4.14693         14.3965        0.883165 
        4.16266         14.2594        0.874472 
        4.17839         14.1633        0.865899 
        4.19408         14.0153         0.85746 
        4.20977         13.9266        0.849129 
        4.22551         13.7688        0.840887 
        4.24123         13.6918        0.832763 
        4.25691         13.5896        0.824767 
        4.27259         13.4641        0.816872 
        4.28831         13.3146        0.809064 
        4.30404         13.2465        0.801349 
        4.31974          13.136        0.793751 
        4.33543         13.0137        0.786256 
        4.35116         12.8768        0.778837 
        4.36688         12.7884        0.771517 
        4.38255         12.6934        0.764317 
        4.39825         12.6035        0.757193 
        4.41398         12.4638        0.750144 
         4.4297         12.3517        0.743192 
        4.44541         12.2623        0.736328 
        4.46111         12.2013        0.729556 
        4.47683         12.0569        0.722863 
        4.49251         11.9839        0.716267 
        4.50819         11.8752        0.709754 
         4.5239         11.7968        0.703312 
        4.53962         11.6681        0.696941 
        4.55535         11.6021        0.690646 
        4.57106         11.5038        0.684436 
        4.58678          11.379        0.678301 
         4.6025          11.295        0.672239 
        4.61821         11.1879        0.666251 
        4.63391         11.1443        0.660344 
         4.6496         11.0523        0.654509 
        4.66532          10.918        0.648736 
        4.68103           10.84        0.643034 
        4.69673         10.7765        0.637406 
        4.71241         10.6669         0.63185 
        4.72811         10.5943         0.62635 
        4.74384         10.4981        0.620908 
        4.75955         10.4193        0.615539 
        4.77525          10.337        0.610235 
        4.79096         10.2699        0.604987 
        4.80669         10.1841        0.599797 
         4.8224         10.0956        0.594674 
        4.83809         10.0473        0.589616 
        4.85379         9.93868        0.584612 
         4.8695         9.91053        0.579662 
        4.88521         9.80003        0.574771 
        4.90093         9.72931        0.569936 
        4.91663         9.63565        0.565159 
        4.93234         9.56712        0.560432 
        4.94807          9.4982        0.555756 
        4.96377         9.42481        0.551141 
        4.97943         9.36303        0.546587 
        4.99514         9.30366        0.542073 
        5.01086         9.21138        0.537606 
        5.02654         9.14399          0.5332 
        5.04227         9.08265         0.52883 
          5.058         9.00012        0.524507 
        5.07371         8.96458         0.52024 
        5.08942         8.85488        0.516019 
        5.10513         8.81223        0.511845 
        5.12084         8.75706        0.507714 
        5.13656         8.67757        0.503629 
        5.15225         8.61759        0.499595 
        5.16796         8.56283        0.495599 
        5.18369         8.50085        0.491643 
         5.1994         8.43313        0.487736 
        5.21509         8.36456        0.483875 
        5.23079         8.30117        0.480051 
        5.24649         8.24331        0.476271 
        5.26217          8.1614        0.472534 
        5.27788         8.11853        0.468832 
        5.29359         8.05784        0.465168 
        5.30933         7.98847        0.461537 
        5.32504         7.93219        0.457951 
        5.34073         7.87593        0.454407 
        5.35646         7.81874        0.450892 
        5.37218         7.76554        0.447414 
        5.38789          7.7115        0.443978 
        5.40357         7.67106        0.440582 
        5.41929         7.59253        0.437213 
        5.43502         7.54965        0.433878 
         5.4507         7.49903        0.430587 
        5.46639         7.43785        0.427328 
        5.48212         7.38029        0.424095 
        5.49786         7.33212        0.420892 
        5.51353         7.29183        0.417737 
        5.52921         7.23068        0.414611 
        5.54495         7.18854        0.411508 
        5.56066         7.12695         0.40844 
        5.57637         7.08786        0.405403 
        5.59207         7.02743        0.402399 
        5.60778         6.98296        0.399424 
        5.62346         6.92572        0.396483 
        5.63916         6.87554        0.393569 
        5.65487         6.83251        0.390682 
         5.6706         6.78922        0.387821 
        5.68633         6.75359        0.384987 
        5.70203         6.69677        0.382187 
        5.71773          6.6396        0.379414 
        5.73344         6.60935        0.376668 
        5.74916         6.56517        0.373946 
        5.76486         6.51834        0.371255 
        5.78054         6.47433        0.368593 
        5.79626         6.42773        0.365951 
          5.812         6.38271        0.363331 
         5.8277         6.34196        0.360744 
        5.84339         6.29899        0.358183 
        5.85911         6.25464        0.355641 
        5.87484         6.21675        0.353123 
        5.89053         6.16826        0.350635 
        5.90623         6.11369         0.34817 
        5.92195          6.0822        0.345724 
        5.93767         6.04297        0.343302 
        5.95336         6.00641        0.340908 
        5.96905         5.95592        0.338537 
        5.98476         5.92513        0.336185 
        6.00048         5.89364        0.333854 
        6.01617         5.85353        0.331549 
        6.03185         5.81109        0.329267 
        6.04756         5.77064        0.327002 
        6.06331         5.73799        0.324753 
        6.07903         5.70354        0.322529 
        6.09473         5.65966        0.320328 
        6.11044         5.61447        0.318146 
        6.12616         5.58093        0.315984 
        6.14186         5.55122        0.313844 
        6.15755         5.51615        0.311724 
        6.17326         5.47136        0.309622 
        6.18898         5.43987        0.307538 
        6.20467         5.40611        0.305476 
        6.22036         5.36296        0.303434 
         6.2361          5.3411        0.301404 
         6.2518          5.2973        0.299397 
        6.26748         5.26476        0.297411 
        6.28319         5.21699        0.295438 
        6.29893         5.20724        0.293482 
        6.31463         5.16686        0.291546 
        6.33033           5.133        0.289627 
        6.34604         5.10346        0.287725 
        6.36177         5.07844        0.285838 
        6.37747         5.04179        0.283971 
