# k  (h/Mpc)    Pcb(k)  (Mpc/h)^3    Pcb_linear(k) (Mpc/h)^3   ShotnoiseSubtracted = true
      0.0200456         8670.12         8808.49 
      0.0350414         6021.77         6161.28 
      0.0492313         4455.79         4477.17 
      0.0637834         3735.18         3660.67 
      0.0800726         2837.62            2769 
       0.096163         1973.25         1995.53 
       0.111083         1602.97         1635.91 
       0.126058         1453.11         1427.31 
       0.142273         1207.63         1149.25 
       0.158546         995.044         909.531 
        0.17375         817.693         791.909 
       0.188953         774.652         706.677 
       0.204907         707.384         599.169 
       0.220756         595.402         506.781 
        0.23588         526.859          452.48 
         0.2514         460.816         408.284 
       0.267535         435.871         358.297 
       0.283568         393.314         314.673 
       0.299022         365.241         284.655 
       0.314451         337.269         259.651 
       0.330372          309.98         233.758 
       0.346141         277.918         210.855 
       0.361624         266.024         192.967 
       0.377134         247.832         177.542 
       0.392932         229.359         162.588 
       0.408854         219.262         148.949 
       0.424564         209.329         137.515 
       0.440253          198.68         127.452 
       0.455999         186.281         118.081 
       0.471626         172.381         109.603 
        0.48727          166.67         102.075 
       0.502856          160.09         95.3374 
       0.518488         156.466         89.1195 
       0.534347         148.305         83.3254 
       0.550082          137.59         78.1213 
       0.565732         133.261         73.4045 
       0.581496         127.191         69.0295 
       0.597222         123.118         65.0005 
       0.612804         117.692         61.3307 
       0.628434         114.439          57.943 
       0.644267         110.425         54.7698 
       0.660051         108.275         51.8394 
       0.675724         104.811         49.1387 
       0.691403          101.38         46.6271 
       0.707174         97.2447          44.276 
       0.722871         95.8231         42.0954 
        0.73838         93.6797         40.0839 
       0.754018         89.3972          38.188 
       0.769845         87.4835         36.3933 
        0.78569         85.3573         34.7117 
       0.801365          82.651         33.1523 
       0.817031         79.6548         31.6893 
       0.832809         78.6591         30.3049 
       0.848511         75.8744         29.0089 
       0.864097         73.9101         27.7973 
       0.879701         72.6613         26.6533 
       0.895507         71.2388         25.5599 
       0.911279          69.786         24.5299 
        0.92691          68.279         23.5648 
       0.942635          66.035          22.646 
       0.958396         65.7719         21.7741 
       0.974128         63.9779         20.9494 
       0.989692         62.4975         20.1753 
        1.00528         61.1778          19.439 
        1.02113         60.0953         18.7277 
        1.03692         58.1593         18.0545 
        1.05264         58.0405         17.4173 
        1.06832         56.2762         16.8116 
        1.08405          55.579         16.2331 
        1.09979         55.1211         15.6812 
        1.11537         52.9632         15.1604 
        1.13105         53.3231           14.66 
        1.14679         52.0408         14.1801 
        1.16256         51.2007         13.7207 
        1.17828         49.8905          13.283 
        1.19395         49.3294         12.8657 
         1.2097          48.256         12.4642 
        1.22537         48.2639         12.0817 
          1.241         46.8958         11.7163 
        1.25666         45.9593          11.365 
        1.27241         45.4934         11.0264 
        1.28819         44.5364         10.7009 
        1.30392         43.8759         10.3894 
        1.31957         43.4503         10.0917 
        1.33529         42.7009         9.80445 
        1.35108         42.4004         9.52719 
        1.36674         41.7517         9.26257 
         1.3824         40.6942         9.00818 
        1.39811         40.4804         8.76245 
        1.41389         39.8435         8.52488 
        1.42964         39.1992         8.29648 
        1.44531         38.6131          8.0775 
        1.46101          37.877         7.86591 
        1.47667         37.8075         7.66249 
        1.49229         37.2874         7.46676 
        1.50793         36.6942          7.2776 
        1.52367         36.1044         7.09374 
        1.53953         35.9024         6.91496 
        1.55526         35.2897         6.74372 
        1.57092         34.9158         6.57896 
        1.58662         34.4661         6.41927 
        1.60235         34.0447         6.26454 
        1.61809         33.5194          6.1148 
        1.63369         33.0346         5.97125 
        1.64941         32.6251         5.83125 
        1.66519         32.1387         5.69521 
        1.68085         31.9308         5.56445 
        1.69652         31.4425         5.43772 
        1.71228         31.2433          5.3142 
        1.72806         30.7807         5.19439 
        1.74368         30.2866         5.07944 
        1.75933         29.9654         4.96773 
        1.77505         29.7932         4.85883 
        1.79081         29.2924         4.75297 
         1.8065         28.9945         4.65071 
        1.82218         28.7191         4.55152 
        1.83797         28.2595         4.45452 
        1.85367         27.8943         4.36086 
        1.86928         27.7168         4.27045 
        1.88497         27.3863         4.18208 
        1.90073         27.1305         4.09587 
        1.91647         26.7762         4.01215 
        1.93218         26.5848         3.93093 
        1.94787          26.188         3.85206 
        1.96363         26.0096         3.77503 
        1.97935         25.6545         3.70025 
        1.99499         25.3691          3.6279 
        2.01064         25.2277         3.55736 
         2.0264         24.7609         3.48825 
        2.04216         24.5242         3.42099 
        2.05781          24.228         3.35591 
        2.07353         24.0166         3.29229 
        2.08928         23.9856         3.23016 
        2.10499         23.6791         3.16979 
        2.12065         23.2842         3.11113 
        2.13633         23.1868          3.0539 
        2.15211         22.7611         2.99772 
        2.16785          22.555         2.94311 
        2.18349         22.3783         2.89018 
        2.19916         22.2033         2.83844 
        2.21489          21.879         2.78778 
        2.23063         21.7147         2.73832 
         2.2463         21.5322         2.69027 
        2.26194         21.3596         2.64348 
        2.27765          21.085         2.59756 
        2.29341         20.8608          2.5526 
        2.30914         20.7321         2.50879 
        2.32486         20.4475         2.46602 
        2.34061         20.3124         2.42417 
        2.35635         20.0711         2.38332 
        2.37203         19.9294         2.34355 
        2.38768         19.6621         2.30476 
        2.40339         19.5524          2.2667 
        2.41914         19.3403         2.22941 
        2.43483         19.1568         2.19308 
         2.4505         18.9649         2.15761 
        2.46622         18.7566          2.1228 
        2.48195         18.5818         2.08875 
        2.49759         18.3763         2.05562 
        2.51328          18.166         2.02312 
        2.52906         18.1092         1.99111 
        2.54479         17.8613         1.95991 
        2.56049           17.66         1.92943 
        2.57618         17.4859         1.89962 
        2.59189         17.4218         1.87039 
        2.60758          17.237         1.84181 
        2.62325         17.0647         1.81386 
        2.63898         16.9584          1.7864 
        2.65468         16.7426         1.75955 
        2.67044         16.6042         1.73313 
        2.68618         16.4175         1.70731 
        2.70184         16.3385         1.68212 
        2.71755         16.1802         1.65737 
        2.73329         15.9949         1.63308 
        2.74897         15.7971         1.60934 
        2.76462         15.7908         1.58613 
        2.78034         15.5803         1.56328 
        2.79607         15.4695         1.54085 
        2.81179         15.3163         1.51888 
        2.82749         15.1737         1.49736 
        2.84321         15.1034         1.47623 
        2.85893         14.8922         1.45551 
        2.87462         14.7564         1.43522 
        2.89033         14.6543         1.41529 
        2.90605         14.5656         1.39572 
        2.92176         14.3382         1.37653 
        2.93747         14.2901         1.35771 
        2.95318         14.1184         1.33923 
        2.96891           14.02         1.32109 
        2.98456         13.8968         1.30336 
        3.00023         13.7169         1.28592 
        3.01596         13.7091         1.26875 
        3.03164         13.5594         1.25194 
        3.04738         13.3767         1.23538 
         3.0631         13.2652         1.21912 
        3.07883         13.1425         1.20315 
        3.09456         13.0487         1.18747 
        3.11026         12.9565         1.17209 
        3.12596         12.8143         1.15698 
        3.14163         12.7267         1.14217 
        3.15734         12.5917         1.12758 
        3.17308         12.5053         1.11321 
        3.18879         12.3925         1.09913 
        3.20447         12.3026         1.08531 
         3.2202         12.1512         1.07168 
         3.2359         12.0908         1.05831 
        3.25157         11.9834          1.0452 
        3.26729         11.8764         1.03226 
        3.28304         11.7743         1.01952 
        3.29877         11.6579         1.00701 
        3.31446         11.5538        0.994735 
        3.33014         11.4594        0.982673 
        3.34585         11.3616        0.970791 
        3.36158         11.2868        0.959085 
        3.37727         11.1495        0.947608 
        3.39294         11.0679        0.936327 
        3.40867         10.9863        0.925188 
        3.42439         10.8961        0.914234 
        3.44008         10.8214        0.903478 
        3.45578         10.7386        0.892885 
        3.47153         10.6702        0.882437 
        3.48724         10.5436        0.872173 
        3.50292         10.4658        0.862095 
        3.51859         10.3886         0.85218 
        3.53431         10.3051        0.842388 
        3.55007         10.2138        0.832725 
        3.56577         10.1298        0.823251 
        3.58146         10.0895        0.813926 
        3.59719         9.96808        0.804723 
        3.61292         9.87972        0.795664 
        3.62859         9.78756        0.786778 
        3.64429         9.73661        0.778009 
        3.66003         9.63733        0.769346 
        3.67578         9.57061        0.760817 
        3.69146         9.47857        0.752448 
        3.70712         9.42196        0.744219 
        3.72284         9.33487        0.736081 
        3.73853         9.22714        0.728079 
        3.75422         9.20694        0.720191 
        3.76993         9.14237        0.712412 
        3.78564         9.03071         0.70475 
        3.80137         8.96872        0.697188 
        3.81707         8.91261        0.689751 
        3.83279         8.81731        0.682416 
        3.84853         8.74823        0.675175 
        3.86424         8.66445        0.668052 
        3.87992         8.60835        0.661041 
        3.89561         8.54325         0.65413 
        3.91134         8.47532        0.647303 
        3.92704         8.39702         0.64058 
        3.94273         8.34858        0.633958 
        3.95845         8.28357        0.627417 
        3.97418          8.2124        0.620966 
        3.98988          8.1455        0.614614 
        4.00554         8.09246        0.608367 
        4.02125         8.00292        0.602188 
        4.03698          7.9613        0.596085 
        4.05268         7.90257        0.590079 
        4.06839           7.831        0.584151 
         4.0841         7.77607        0.578306 
        4.09983         7.71522        0.572531 
        4.11555         7.65106        0.566838 
        4.13124         7.58948        0.561236 
        4.14693         7.52238        0.555705 
        4.16266         7.49153        0.550234 
        4.17839         7.41017        0.544841 
        4.19408         7.36799         0.53953 
        4.20977         7.30343        0.534288 
        4.22551         7.25246        0.529102 
        4.24123         7.18606         0.52399 
        4.25691         7.14548        0.518959 
        4.27259         7.05414        0.513992 
        4.28831         7.00952        0.509079 
        4.30404         6.97534        0.504224 
        4.31974         6.92771        0.499444 
        4.33543         6.85786        0.494727 
        4.35116         6.80003         0.49006 
        4.36688         6.74748        0.485453 
        4.38255         6.70249        0.480923 
        4.39825         6.63731         0.47644 
        4.41398         6.60952        0.472005 
         4.4297         6.55047        0.467631 
        4.44541         6.51067        0.463312 
        4.46111          6.4563        0.459051 
        4.47683         6.40561        0.454839 
        4.49251         6.35197        0.450689 
        4.50819          6.3062        0.446591 
         4.5239          6.2612        0.442538 
        4.53962         6.21584        0.438529 
        4.55535         6.16023        0.434568 
        4.57106         6.12786        0.430661 
        4.58678         6.08209          0.4268 
         4.6025         6.03004        0.422986 
        4.61821         5.97851        0.419218 
        4.63391         5.95888        0.415501 
         4.6496         5.90276         0.41183 
        4.66532         5.86997        0.408197 
        4.68103         5.80134         0.40461 
        4.69673         5.77015        0.401068 
        4.71241         5.72724        0.397572 
        4.72811         5.66324        0.394111 
        4.74384         5.64746        0.390687 
        4.75955          5.5948        0.387309 
        4.77525          5.5646        0.383972 
        4.79096         5.51702        0.380669 
        4.80669         5.48168        0.377404 
         4.8224         5.44065         0.37418 
        4.83809         5.39746        0.370998 
        4.85379         5.35501        0.367849 
         4.8695         5.32622        0.364735 
        4.88521         5.28746        0.361657 
        4.90093         5.22911        0.358615 
        4.91663         5.20569        0.355609 
        4.93234         5.17667        0.352635 
        4.94807         5.13933        0.349692 
        4.96377         5.10995        0.346788 
        4.97943         5.05502        0.343923 
        4.99514         5.01534        0.341083 
        5.01086          4.9908        0.338272 
        5.02654         4.96022          0.3355 
        5.04227         4.92112         0.33275 
          5.058         4.88724         0.33003 
        5.07371         4.85916        0.327345 
        5.08942         4.81554        0.324689 
        5.10513         4.79205        0.322063 
        5.12084         4.75556        0.319463 
        5.13656         4.72195        0.316893 
        5.15225         4.70077        0.314355 
        5.16796         4.66129        0.311841 
        5.18369         4.62786        0.309351 
         5.1994         4.60156        0.306893 
        5.21509         4.56435        0.304464 
        5.23079         4.53537        0.302058 
        5.24649         4.50405        0.299679 
        5.26217         4.48171        0.297328 
        5.27788         4.44915        0.294998 
        5.29359         4.41465        0.292692 
        5.30933         4.38981        0.290408 
        5.32504         4.35659        0.288152 
        5.34073         4.32346        0.285921 
        5.35646          4.2933         0.28371 
        5.37218          4.2647        0.281522 
        5.38789          4.2486         0.27936 
        5.40357         4.21476        0.277222 
        5.41929         4.17963        0.275103 
        5.43502         4.15275        0.273005 
         5.4507         4.12909        0.270933 
        5.46639         4.09591        0.268883 
        5.48212         4.06479        0.266849 
        5.49786          4.0521        0.264833 
        5.51353         4.02066        0.262848 
        5.52921         3.99347        0.260882 
        5.54495         3.97494        0.258929 
        5.56066         3.94225        0.256998 
        5.57637          3.9149        0.255087 
        5.59207         3.89333        0.253197 
        5.60778         3.87291        0.251325 
        5.62346         3.84924        0.249475 
        5.63916         3.81647        0.247641 
        5.65487         3.79219        0.245825 
         5.6706         3.77357        0.244024 
        5.68633         3.74266        0.242241 
        5.70203         3.71985        0.240479 
        5.71773         3.69684        0.238735 
        5.73344          3.6786        0.237007 
        5.74916         3.65547        0.235294 
        5.76486         3.63664        0.233601 
        5.78054         3.60616        0.231926 
        5.79626         3.58226        0.230263 
          5.812         3.56813        0.228615 
         5.8277         3.53376        0.226987 
        5.84339         3.52168        0.225375 
        5.85911         3.50393        0.223776 
        5.87484         3.47908        0.222192 
        5.89053         3.45416        0.220627 
        5.90623         3.44212        0.219075 
        5.92195         3.41011        0.217536 
        5.93767         3.39243        0.216013 
        5.95336         3.37456        0.214506 
        5.96905         3.34481        0.213014 
        5.98476         3.32554        0.211534 
        6.00048         3.30828        0.210068 
        6.01617          3.2905        0.208617 
        6.03185         3.27247        0.207181 
        6.04756         3.25073        0.205756 
        6.06331         3.22966        0.204341 
        6.07903         3.20732        0.202942 
        6.09473         3.19531        0.201557 
        6.11044         3.16999        0.200184 
        6.12616         3.15841        0.198823 
        6.14186         3.13652        0.197477 
        6.15755         3.11932        0.196143 
        6.17326         3.09846         0.19482 
        6.18898         3.08172        0.193509 
        6.20467         3.06782        0.192212 
        6.22036         3.04587        0.190926 
         6.2361         3.03028        0.189649 
         6.2518         3.00894        0.188386 
        6.26748         2.99896        0.187137 
        6.28319         2.97318        0.185896 
        6.29893         2.95673        0.184664 
        6.31463         2.93704        0.183446 
        6.33033         2.92632        0.182239 
        6.34604         2.90543        0.181042 
        6.36177         2.88969        0.179855 
        6.37747         2.87485         0.17868 
