# k  (h/Mpc)    Pcb(k)  (Mpc/h)^3    Pcb_linear(k) (Mpc/h)^3   ShotnoiseSubtracted = true
      0.0200456         4586.79         4640.08 
      0.0350414         3316.18          3245.6 
      0.0492313         2356.97         2358.46 
      0.0637834         1888.73         1928.35 
      0.0800726         1428.98         1458.64 
       0.096163         1082.96         1051.19 
       0.111083          893.84         861.754 
       0.126058         748.016         751.872 
       0.142273          609.75         605.397 
       0.158546         495.633         479.117 
        0.17375         436.839         417.157 
       0.188953         391.991         372.259 
       0.204907         323.569         315.627 
       0.220756           286.2         266.959 
        0.23588         255.221         238.355 
         0.2514         228.666         215.073 
       0.267535         211.207         188.742 
       0.283568         183.734         165.761 
       0.299022         171.621         149.949 
       0.314451         163.861         136.777 
       0.330372         142.747         123.138 
       0.346141         130.721         111.073 
       0.361624         121.677          101.65 
       0.377134          111.11         93.5247 
       0.392932         107.216         85.6471 
       0.408854          99.386         78.4627 
       0.424564         94.4792         72.4394 
       0.440253         85.8341         67.1385 
       0.455999         78.8304         62.2022 
       0.471626         75.4142         57.7358 
        0.48727         72.9299         53.7706 
       0.502856         67.1685         50.2213 
       0.518488         64.2607         46.9458 
       0.534347         60.4361         43.8937 
       0.550082         58.3226         41.1523 
       0.565732         56.2987         38.6676 
       0.581496         52.0848         36.3629 
       0.597222         49.9894         34.2406 
       0.612804         47.9431         32.3074 
       0.628434         46.8768         30.5229 
       0.644267         44.2457         28.8513 
       0.660051         42.3688         27.3076 
       0.675724         40.7341          25.885 
       0.691403         39.9193         24.5619 
       0.707174         38.3896         23.3234 
       0.722871         37.1774         22.1747 
        0.73838         35.4573         21.1152 
       0.754018         33.5237         20.1164 
       0.769845         32.9734         19.1711 
        0.78569         31.7793         18.2852 
       0.801365         30.7914         17.4638 
       0.817031         29.5362         16.6931 
       0.832809         28.9281         15.9638 
       0.848511         27.9853         15.2811 
       0.864097         27.2615         14.6429 
       0.879701         26.7109         14.0403 
       0.895507         25.6631         13.4643 
       0.911279         24.8505         12.9217 
        0.92691         24.3778         12.4133 
       0.942635          23.799         11.9293 
       0.958396         23.2317           11.47 
       0.974128         22.5915         11.0356 
       0.989692         21.6448         10.6278 
        1.00528         21.4265         10.2399 
        1.02113         20.7936         9.86527 
        1.03692         20.4054         9.51063 
        1.05264         19.9575         9.17496 
        1.06832         19.5502         8.85593 
        1.08405         18.9699         8.55115 
        1.09979          18.685         8.26046 
        1.11537         18.0647         7.98609 
        1.13105         17.7955         7.72249 
        1.14679          17.325          7.4697 
        1.16256         17.0604         7.22768 
        1.17828         16.7476         6.99712 
        1.19395         16.4231         6.77734 
         1.2097          16.084         6.56584 
        1.22537         15.7597         6.36433 
          1.241         15.4164         6.17183 
        1.25666         15.2035         5.98678 
        1.27241         14.9457         5.80841 
        1.28819         14.3586         5.63696 
        1.30392          14.482         5.47289 
        1.31957         14.0765         5.31604 
        1.33529         13.8347         5.16473 
        1.35108         13.6561         5.01868 
        1.36674         13.3695         4.87928 
         1.3824         13.1045         4.74528 
        1.39811           12.86         4.61583 
        1.41389         12.6926         4.49069 
        1.42964         12.5263         4.37037 
        1.44531         12.3177         4.25502 
        1.46101         12.1485         4.14356 
        1.47667         11.9191          4.0364 
        1.49229          11.633         3.93329 
        1.50793         11.5483         3.83365 
        1.52367         11.3949          3.7368 
        1.53953         11.2124         3.64262 
        1.55526         10.9834         3.55242 
        1.57092         10.9503         3.46562 
        1.58662         10.7582         3.38151 
        1.60235         10.6008             3.3 
        1.61809         10.4408         3.22112 
        1.63369         10.2683          3.1455 
        1.64941         10.1341         3.07175 
        1.66519         10.0165         3.00009 
        1.68085         9.79878         2.93121 
        1.69652         9.80097         2.86445 
        1.71228         9.61293         2.79938 
        1.72806         9.46792         2.73627 
        1.74368         9.36595         2.67572 
        1.75933         9.26229         2.61687 
        1.77505         9.11626          2.5595 
        1.79081         9.00618         2.50374 
         1.8065         8.93565         2.44987 
        1.82218         8.84837         2.39762 
        1.83797         8.71633         2.34652 
        1.85367         8.62228         2.29719 
        1.86928         8.49467         2.24956 
        1.88497         8.41501         2.20301 
        1.90073         8.28611          2.1576 
        1.91647         8.10281          2.1135 
        1.93218         8.09789         2.07071 
        1.94787         7.95436         2.02917 
        1.96363         7.89603         1.98859 
        1.97935         7.81143         1.94919 
        1.99499         7.70974         1.91108 
        2.01064         7.62245         1.87393 
         2.0264         7.51664         1.83752 
        2.04216         7.51932         1.80209 
        2.05781         7.41877         1.76781 
        2.07353         7.31473         1.73429 
        2.08928         7.22443         1.70156 
        2.10499         7.14822         1.66976 
        2.12065         7.09375         1.63886 
        2.13633         6.99674         1.60871 
        2.15211         6.94154         1.57912 
        2.16785         6.83495         1.55035 
        2.18349         6.79873         1.52247 
        2.19916          6.7307         1.49522 
        2.21489         6.66687         1.46853 
        2.23063         6.61608         1.44248 
         2.2463         6.49963         1.41716 
        2.26194         6.43844         1.39252 
        2.27765         6.37586         1.36833 
        2.29341         6.28489         1.34464 
        2.30914         6.28572         1.32156 
        2.32486         6.19825         1.29904 
        2.34061         6.15951         1.27699 
        2.35635         6.08908         1.25547 
        2.37203         6.01677         1.23452 
        2.38768         5.95668         1.21409 
        2.40339         5.90882         1.19404 
        2.41914         5.85315         1.17439 
        2.43483         5.83454         1.15526 
         2.4505         5.75198         1.13657 
        2.46622          5.6814         1.11824 
        2.48195         5.67824          1.1003 
        2.49759         5.57469         1.08285 
        2.51328         5.54898         1.06573 
        2.52906          5.4837         1.04887 
        2.54479         5.44055         1.03243 
        2.56049         5.37968         1.01637 
        2.57618         5.35548         1.00067 
        2.59189         5.34884        0.985271 
        2.60758         5.25587        0.970219 
        2.62325         5.19397        0.955497 
        2.63898          5.2064        0.941026 
        2.65468          5.1317        0.926884 
        2.67044         5.09764        0.912969 
        2.68618         5.02461        0.899369 
        2.70184         5.01707        0.886099 
        2.71755         4.95659        0.873061 
        2.73329         4.89518        0.860263 
        2.74897         4.86999        0.847761 
        2.76462         4.84679        0.835533 
        2.78034         4.79931        0.823494 
        2.79607         4.77078        0.811678 
        2.81179         4.71789        0.800105 
        2.82749         4.67026        0.788769 
        2.84321          4.6456        0.777638 
        2.85893         4.60726        0.766723 
        2.87462         4.58391        0.756035 
        2.89033         4.53118        0.745539 
        2.90605         4.50387        0.735231 
        2.92176         4.45514        0.725122 
        2.93747         4.42411        0.715207 
        2.95318         4.38625        0.705473 
        2.96891         4.35194        0.695915 
        2.98456         4.32348        0.686574 
        3.00023         4.30384         0.67739 
        3.01596         4.24132        0.668344 
        3.03164          4.2195        0.659487 
        3.04738          4.1937        0.650764 
         3.0631         4.16812          0.6422 
        3.07883         4.12977        0.633789 
        3.09456         4.07793        0.625528 
        3.11026         4.06321        0.617426 
        3.12596         4.03803        0.609467 
        3.14163         4.00625        0.601665 
        3.15734         3.97285        0.593981 
        3.17308         3.96529        0.586411 
        3.18879         3.91866        0.578993 
        3.20447         3.89807        0.571713 
         3.2202         3.86186        0.564534 
         3.2359          3.8312         0.55749 
        3.25157         3.80824        0.550583 
        3.26729         3.78873         0.54377 
        3.28304         3.75172        0.537058 
        3.29877         3.73054        0.530467 
        3.31446         3.71674        0.524001 
        3.33014         3.67067        0.517647 
        3.34585         3.65353        0.511387 
        3.36158         3.62341        0.505221 
        3.37727         3.59674        0.499175 
        3.39294         3.57787        0.493233 
        3.40867         3.55807        0.487365 
        3.42439         3.52131        0.481595 
        3.44008         3.50473        0.475929 
        3.45578         3.47372        0.470349 
        3.47153         3.45028        0.464845 
        3.48724         3.42974        0.459438 
        3.50292         3.40362        0.454129 
        3.51859         3.37964        0.448906 
        3.53431         3.35875        0.443748 
        3.55007         3.34228        0.438658 
        3.56577         3.30526        0.433667 
        3.58146         3.29368        0.428755 
        3.59719         3.27678        0.423907 
        3.61292         3.24806        0.419135 
        3.62859         3.23107        0.414454 
        3.64429         3.20722        0.409835 
        3.66003          3.1911        0.405272 
        3.67578         3.17442        0.400779 
        3.69146          3.1474         0.39637 
        3.70712         3.13569        0.392035 
        3.72284         3.11202        0.387749 
        3.73853         3.08392        0.383533 
        3.75422         3.06033        0.379378 
        3.76993         3.04943         0.37528 
        3.78564         3.02782        0.371244 
        3.80137         3.00464        0.367261 
        3.81707         2.98871        0.363343 
        3.83279         2.96692        0.359479 
        3.84853         2.94145        0.355665 
        3.86424          2.9265        0.351912 
        3.87992         2.91315        0.348219 
        3.89561         2.89073        0.344579 
        3.91134         2.87049        0.340982 
        3.92704         2.84703        0.337441 
        3.94273         2.83672        0.333953 
        3.95845         2.81669        0.330507 
        3.97418         2.80081        0.327109 
        3.98988         2.78248        0.323763 
        4.00554         2.76187        0.320472 
        4.02125         2.73941        0.317217 
        4.03698          2.7237        0.314002 
        4.05268         2.70451        0.310838 
        4.06839         2.68567        0.307716 
         4.0841          2.6679        0.304636 
        4.09983         2.65613        0.301595 
        4.11555         2.63653        0.298595 
        4.13124         2.61851        0.295645 
        4.14693         2.60568        0.292731 
        4.16266         2.58455        0.289849 
        4.17839         2.56349        0.287008 
        4.19408         2.55335        0.284211 
        4.20977         2.54195        0.281449 
        4.22551         2.51545        0.278717 
        4.24123         2.50549        0.276024 
        4.25691         2.48721        0.273374 
        4.27259         2.46915        0.270757 
        4.28831         2.44965        0.268169 
        4.30404         2.44496        0.265612 
        4.31974         2.42422        0.263094 
        4.33543         2.41165        0.260609 
        4.35116          2.3967        0.258151 
        4.36688         2.38093        0.255724 
        4.38255         2.36854        0.253338 
        4.39825         2.35718        0.250976 
        4.41398          2.3397         0.24864 
         4.4297         2.32768        0.246336 
        4.44541         2.30586        0.244061 
        4.46111         2.29307        0.241816 
        4.47683         2.28064        0.239598 
        4.49251         2.26926        0.237411 
        4.50819         2.25136        0.235252 
         4.5239         2.24052        0.233117 
        4.53962         2.22634        0.231006 
        4.55535         2.21488        0.228919 
        4.57106         2.20027        0.226861 
        4.58678         2.18802        0.224827 
         4.6025         2.17823        0.222818 
        4.61821         2.16582        0.220833 
        4.63391         2.15175        0.218875 
         4.6496         2.13681        0.216941 
        4.66532         2.12754        0.215028 
        4.68103          2.1137        0.213138 
        4.69673         2.10218        0.211272 
        4.71241          2.0955        0.209431 
        4.72811         2.08262        0.207608 
        4.74384         2.07006        0.205804 
        4.75955         2.05623        0.204024 
        4.77525         2.04594        0.202266 
        4.79096         2.03563        0.200527 
        4.80669         2.02605        0.198807 
         4.8224         2.01093        0.197109 
        4.83809         2.00474        0.195432 
        4.85379         1.99523        0.193773 
         4.8695         1.98517        0.192133 
        4.88521         1.96619        0.190512 
        4.90093         1.96351        0.188909 
        4.91663         1.95124        0.187326 
        4.93234         1.94151        0.185759 
        4.94807         1.93038        0.184209 
        4.96377         1.92254        0.182679 
        4.97943         1.91163         0.18117 
        4.99514         1.90148        0.179674 
        5.01086         1.89343        0.178193 
        5.02654         1.88058        0.176733 
        5.04227         1.87273        0.175284 
          5.058         1.86464        0.173851 
        5.07371         1.85536        0.172437 
        5.08942         1.84532        0.171038 
        5.10513         1.83668        0.169654 
        5.12084         1.82465        0.168285 
        5.13656          1.8166        0.166931 
        5.15225         1.80507        0.165594 
        5.16796         1.79961         0.16427 
        5.18369         1.79038        0.162958 
         5.1994         1.77954        0.161663 
        5.21509         1.77109        0.160384 
        5.23079         1.76711        0.159116 
        5.24649         1.75767        0.157863 
        5.26217         1.74785        0.156624 
        5.27788         1.73829        0.155397 
        5.29359         1.73455        0.154183 
        5.30933         1.72112        0.152979 
        5.32504         1.71607        0.151791 
        5.34073         1.70869        0.150616 
        5.35646         1.69775        0.149451 
        5.37218         1.69237        0.148298 
        5.38789         1.68226        0.147159 
        5.40357         1.67662        0.146034 
        5.41929         1.67079        0.144917 
        5.43502         1.66199        0.143812 
         5.4507         1.65295        0.142721 
        5.46639         1.64306        0.141641 
        5.48212         1.63809        0.140569 
        5.49786         1.63036        0.139507 
        5.51353         1.62723        0.138462 
        5.52921         1.61575        0.137426 
        5.54495         1.60965        0.136397 
        5.56066         1.60395         0.13538 
        5.57637         1.59234        0.134373 
        5.59207         1.58748        0.133378 
        5.60778         1.58414        0.132392 
        5.62346         1.57325        0.131417 
        5.63916         1.56404        0.130451 
        5.65487         1.56044        0.129494 
         5.6706         1.55389        0.128546 
        5.68633         1.54712        0.127606 
        5.70203          1.5416        0.126678 
        5.71773         1.53401        0.125759 
        5.73344         1.52784        0.124849 
        5.74916         1.51945        0.123947 
        5.76486         1.51617        0.123055 
        5.78054         1.50932        0.122173 
        5.79626         1.50197        0.121297 
          5.812         1.48947        0.120428 
         5.8277         1.48841        0.119571 
        5.84339         1.48355        0.118722 
        5.85911         1.47684        0.117879 
        5.87484         1.46896        0.117045 
        5.89053         1.46663         0.11622 
        5.90623         1.46133        0.115403 
        5.92195         1.45112        0.114592 
        5.93767         1.44969         0.11379 
        5.95336          1.4398        0.112996 
        5.96905         1.43484         0.11221 
        5.98476         1.43134        0.111431 
        6.00048         1.42446        0.110658 
        6.01617         1.42011        0.109894 
        6.03185         1.41291        0.109138 
        6.04756         1.41024        0.108387 
        6.06331         1.40109        0.107641 
        6.07903         1.39611        0.106904 
        6.09473         1.39156        0.106175 
        6.11044         1.38803        0.105452 
        6.12616         1.38148        0.104735 
        6.14186         1.37547        0.104026 
        6.15755         1.36941        0.103323 
        6.17326         1.36357        0.102626 
        6.18898          1.3601        0.101935 
        6.20467         1.35612        0.101252 
        6.22036         1.35129        0.100575 
         6.2361         1.34594       0.0999024 
         6.2518         1.34041       0.0992369 
        6.26748         1.33536       0.0985789 
        6.28319         1.33009       0.0979249 
        6.29893         1.32355       0.0972763 
        6.31463         1.31927       0.0966346 
        6.33033         1.31422       0.0959989 
        6.34604         1.31009       0.0953683 
        6.36177         1.30701       0.0947428 
        6.37747         1.30295        0.094124 
