# k  (h/Mpc)    Pcb(k)  (Mpc/h)^3    Pcb_linear(k) (Mpc/h)^3   ShotnoiseSubtracted = true
      0.0200456         4575.22         4640.08 
      0.0350414         3199.69          3245.6 
      0.0492313          2357.3         2358.46 
      0.0637834          1959.3         1928.35 
      0.0800726         1487.94         1458.64 
       0.096163         1043.51         1051.19 
       0.111083         847.398         861.754 
       0.126058         761.396         751.872 
       0.142273         627.507         605.397 
       0.158546         506.487         479.117 
        0.17375         422.512         417.157 
       0.188953         392.575         372.259 
       0.204907         353.586         315.627 
       0.220756         294.812         266.959 
        0.23588         260.941         238.355 
         0.2514         230.355         215.073 
       0.267535         211.572         188.742 
       0.283568         189.711         165.761 
       0.299022         174.574         149.949 
       0.314451         157.426         136.777 
       0.330372         144.882         123.138 
       0.346141         130.045         111.073 
       0.361624          122.39          101.65 
       0.377134         114.843         93.5247 
       0.392932          102.66         85.6471 
       0.408854         98.3427         78.4627 
       0.424564           93.57         72.4394 
       0.440253         86.7358         67.1385 
       0.455999         81.2635         62.2022 
       0.471626            75.3         57.7358 
        0.48727         72.3727         53.7706 
       0.502856          68.487         50.2213 
       0.518488          65.627         46.9458 
       0.534347         62.8961         43.8937 
       0.550082          57.573         41.1523 
       0.565732         54.4004         38.6676 
       0.581496         52.6655         36.3629 
       0.597222         50.8125         34.2406 
       0.612804         47.7278         32.3074 
       0.628434         46.2718         30.5229 
       0.644267         44.8667         28.8513 
       0.660051         42.9674         27.3076 
       0.675724         40.8273          25.885 
       0.691403          39.535         24.5619 
       0.707174         38.2238         23.3234 
       0.722871         36.8018         22.1747 
        0.73838          35.629         21.1152 
       0.754018         33.9563         20.1164 
       0.769845         33.0561         19.1711 
        0.78569         32.0499         18.2852 
       0.801365         30.8289         17.4638 
       0.817031         30.0507         16.6931 
       0.832809         29.4375         15.9638 
       0.848511         27.7488         15.2811 
       0.864097         27.2311         14.6429 
       0.879701         26.5698         14.0403 
       0.895507         26.0425         13.4643 
       0.911279         25.1312         12.9217 
        0.92691         24.5484         12.4133 
       0.942635          23.569         11.9293 
       0.958396         23.2452           11.47 
       0.974128         22.4973         11.0356 
       0.989692         22.2058         10.6278 
        1.00528         21.6767         10.2399 
        1.02113         20.8242         9.86527 
        1.03692         20.3613         9.51063 
        1.05264         20.0513         9.17496 
        1.06832         19.4556         8.85593 
        1.08405         19.0256         8.55115 
        1.09979         18.6198         8.26046 
        1.11537         18.2033         7.98609 
        1.13105         17.9614         7.72249 
        1.14679         17.6795          7.4697 
        1.16256         17.0117         7.22768 
        1.17828         16.9045         6.99712 
        1.19395         16.3819         6.77734 
         1.2097         16.2389         6.56584 
        1.22537         15.8514         6.36433 
          1.241         15.5314         6.17183 
        1.25666         15.1291         5.98678 
        1.27241         14.8461         5.80841 
        1.28819         14.5312         5.63696 
        1.30392         14.3921         5.47289 
        1.31957         14.2083         5.31604 
        1.33529         13.9553         5.16473 
        1.35108         13.6241         5.01868 
        1.36674          13.441         4.87928 
         1.3824         13.1376         4.74528 
        1.39811         12.9493         4.61583 
        1.41389         12.7866         4.49069 
        1.42964         12.5707         4.37037 
        1.44531         12.4509         4.25502 
        1.46101         12.0872         4.14356 
        1.47667         11.9553          4.0364 
        1.49229         11.7939         3.93329 
        1.50793         11.6214         3.83365 
        1.52367          11.431          3.7368 
        1.53953         11.2818         3.64262 
        1.55526         11.0935         3.55242 
        1.57092         10.8953         3.46562 
        1.58662         10.8074         3.38151 
        1.60235         10.6234             3.3 
        1.61809         10.4873         3.22112 
        1.63369          10.337          3.1455 
        1.64941         10.1376         3.07175 
        1.66519         10.0758         3.00009 
        1.68085         9.89966         2.93121 
        1.69652         9.76696         2.86445 
        1.71228         9.62524         2.79938 
        1.72806         9.55627         2.73627 
        1.74368           9.382         2.67572 
        1.75933         9.29223         2.61687 
        1.77505         9.17376          2.5595 
        1.79081         9.01678         2.50374 
         1.8065         8.95354         2.44987 
        1.82218         8.77832         2.39762 
        1.83797         8.69111         2.34652 
        1.85367         8.57589         2.29719 
        1.86928          8.5572         2.24956 
        1.88497         8.35863         2.20301 
        1.90073         8.34287          2.1576 
        1.91647         8.23113          2.1135 
        1.93218         8.15467         2.07071 
        1.94787         8.02425         2.02917 
        1.96363          7.9644         1.98859 
        1.97935         7.82296         1.94919 
        1.99499         7.71907         1.91108 
        2.01064         7.65426         1.87393 
         2.0264         7.58293         1.83752 
        2.04216         7.48685         1.80209 
        2.05781         7.37544         1.76781 
        2.07353         7.33802         1.73429 
        2.08928         7.24444         1.70156 
        2.10499         7.20207         1.66976 
        2.12065         7.07844         1.63886 
        2.13633         7.06406         1.60871 
        2.15211         6.94084         1.57912 
        2.16785         6.89949         1.55035 
        2.18349         6.83869         1.52247 
        2.19916         6.75261         1.49522 
        2.21489         6.67846         1.46853 
        2.23063         6.60679         1.44248 
         2.2463         6.52834         1.41716 
        2.26194         6.46128         1.39252 
        2.27765           6.437         1.36833 
        2.29341          6.3611         1.34464 
        2.30914         6.25873         1.32156 
        2.32486         6.20371         1.29904 
        2.34061         6.15923         1.27699 
        2.35635         6.11901         1.25547 
        2.37203         6.06276         1.23452 
        2.38768         5.95323         1.21409 
        2.40339         5.94072         1.19404 
        2.41914         5.85081         1.17439 
        2.43483         5.83557         1.15526 
         2.4505          5.7769         1.13657 
        2.46622         5.71965         1.11824 
        2.48195          5.6506          1.1003 
        2.49759         5.62133         1.08285 
        2.51328         5.55991         1.06573 
        2.52906          5.5265         1.04887 
        2.54479         5.46476         1.03243 
        2.56049         5.43598         1.01637 
        2.57618         5.38533         1.00067 
        2.59189         5.30258        0.985271 
        2.60758         5.29635        0.970219 
        2.62325         5.23019        0.955497 
        2.63898         5.16469        0.941026 
        2.65468          5.1141        0.926884 
        2.67044         5.08908        0.912969 
        2.68618         5.04975        0.899369 
        2.70184         5.00193        0.886099 
        2.71755         4.95683        0.873061 
        2.73329         4.92245        0.860263 
        2.74897         4.89569        0.847761 
        2.76462         4.85738        0.835533 
        2.78034         4.79035        0.823494 
        2.79607         4.75907        0.811678 
        2.81179         4.73079        0.800105 
        2.82749         4.68214        0.788769 
        2.84321         4.67517        0.777638 
        2.85893          4.6292        0.766723 
        2.87462         4.56697        0.756035 
        2.89033         4.53733        0.745539 
        2.90605         4.49873        0.735231 
        2.92176         4.45712        0.725122 
        2.93747         4.42963        0.715207 
        2.95318         4.40247        0.705473 
        2.96891         4.35685        0.695915 
        2.98456         4.31687        0.686574 
        3.00023         4.27794         0.67739 
        3.01596         4.25381        0.668344 
        3.03164         4.23734        0.659487 
        3.04738         4.20494        0.650764 
         3.0631         4.15913          0.6422 
        3.07883         4.13026        0.633789 
        3.09456         4.09855        0.625528 
        3.11026         4.07624        0.617426 
        3.12596          4.0431        0.609467 
        3.14163         4.00159        0.601665 
        3.15734         3.97693        0.593981 
        3.17308         3.95038        0.586411 
        3.18879         3.91378        0.578993 
        3.20447         3.90134        0.571713 
         3.2202         3.84745        0.564534 
         3.2359         3.84006         0.55749 
        3.25157         3.80347        0.550583 
        3.26729         3.79271         0.54377 
        3.28304         3.75566        0.537058 
        3.29877         3.71977        0.530467 
        3.31446         3.69558        0.524001 
        3.33014         3.67743        0.517647 
        3.34585         3.65265        0.511387 
        3.36158         3.61982        0.505221 
        3.37727         3.60013        0.499175 
        3.39294         3.58867        0.493233 
        3.40867         3.54053        0.487365 
        3.42439         3.53261        0.481595 
        3.44008         3.49727        0.475929 
        3.45578         3.46963        0.470349 
        3.47153          3.4493        0.464845 
        3.48724         3.42597        0.459438 
        3.50292         3.40966        0.454129 
        3.51859         3.38587        0.448906 
        3.53431         3.34976        0.443748 
        3.55007         3.33998        0.438658 
        3.56577         3.31733        0.433667 
        3.58146         3.30173        0.428755 
        3.59719         3.27824        0.423907 
        3.61292         3.25553        0.419135 
        3.62859         3.22218        0.414454 
        3.64429         3.20343        0.409835 
        3.66003         3.18342        0.405272 
        3.67578         3.16794        0.400779 
        3.69146         3.13205         0.39637 
        3.70712         3.12633        0.392035 
        3.72284         3.10283        0.387749 
        3.73853         3.08242        0.383533 
        3.75422         3.05888        0.379378 
        3.76993         3.04196         0.37528 
        3.78564          3.0233        0.371244 
        3.80137         3.01213        0.367261 
        3.81707         2.98296        0.363343 
        3.83279         2.96116        0.359479 
        3.84853         2.93916        0.355665 
        3.86424         2.92097        0.351912 
        3.87992         2.90269        0.348219 
        3.89561         2.89981        0.344579 
        3.91134         2.86638        0.340982 
        3.92704         2.84847        0.337441 
        3.94273         2.83227        0.333953 
        3.95845         2.81316        0.330507 
        3.97418         2.79852        0.327109 
        3.98988         2.78399        0.323763 
        4.00554          2.7569        0.320472 
        4.02125         2.73649        0.317217 
        4.03698         2.72238        0.314002 
        4.05268           2.695        0.310838 
        4.06839         2.68942        0.307716 
         4.0841         2.66692        0.304636 
        4.09983         2.64689        0.301595 
        4.11555         2.63317        0.298595 
        4.13124          2.6135        0.295645 
        4.14693          2.5962        0.292731 
        4.16266          2.5813        0.289849 
        4.17839         2.56383        0.287008 
        4.19408          2.5431        0.284211 
        4.20977         2.53029        0.281449 
        4.22551         2.50754        0.278717 
        4.24123         2.49413        0.276024 
        4.25691         2.47833        0.273374 
        4.27259         2.47167        0.270757 
        4.28831         2.44942        0.268169 
        4.30404         2.43283        0.265612 
        4.31974         2.41828        0.263094 
        4.33543         2.40378        0.260609 
        4.35116          2.3849        0.258151 
        4.36688         2.37861        0.255724 
        4.38255         2.35852        0.253338 
        4.39825          2.3448        0.250976 
        4.41398         2.33695         0.24864 
         4.4297          2.3168        0.246336 
        4.44541         2.30567        0.244061 
        4.46111         2.29181        0.241816 
        4.47683           2.267        0.239598 
        4.49251         2.26485        0.237411 
        4.50819         2.24842        0.235252 
         4.5239          2.2341        0.233117 
        4.53962         2.22553        0.231006 
        4.55535         2.21113        0.228919 
        4.57106         2.20204        0.226861 
        4.58678         2.18757        0.224827 
         4.6025         2.17385        0.222818 
        4.61821         2.16275        0.220833 
        4.63391         2.15101        0.218875 
         4.6496         2.13874        0.216941 
        4.66532         2.12016        0.215028 
        4.68103         2.11235        0.213138 
        4.69673         2.09945        0.211272 
        4.71241         2.08517        0.209431 
        4.72811         2.07735        0.207608 
        4.74384         2.06751        0.205804 
        4.75955         2.05604        0.204024 
        4.77525         2.04868        0.202266 
        4.79096         2.03065        0.200527 
        4.80669         2.01861        0.198807 
         4.8224         2.01821        0.197109 
        4.83809         2.00161        0.195432 
        4.85379         1.99307        0.193773 
         4.8695         1.98104        0.192133 
        4.88521         1.96569        0.190512 
        4.90093          1.9589        0.188909 
        4.91663         1.94853        0.187326 
        4.93234         1.93587        0.185759 
        4.94807         1.92835        0.184209 
        4.96377         1.91802        0.182679 
        4.97943         1.90765         0.18117 
        4.99514         1.89589        0.179674 
        5.01086         1.88625        0.178193 
        5.02654         1.87434        0.176733 
        5.04227         1.86957        0.175284 
          5.058         1.86085        0.173851 
        5.07371          1.8526        0.172437 
        5.08942          1.8401        0.171038 
        5.10513         1.83144        0.169654 
        5.12084         1.82431        0.168285 
        5.13656         1.81477        0.166931 
        5.15225         1.80124        0.165594 
        5.16796         1.79318         0.16427 
        5.18369         1.78502        0.162958 
         5.1994         1.78311        0.161663 
        5.21509         1.76925        0.160384 
        5.23079         1.76351        0.159116 
        5.24649         1.75413        0.157863 
        5.26217         1.74588        0.156624 
        5.27788         1.73324        0.155397 
        5.29359         1.73021        0.154183 
        5.30933         1.72359        0.152979 
        5.32504         1.71086        0.151791 
        5.34073         1.70396        0.150616 
        5.35646         1.69578        0.149451 
        5.37218         1.68354        0.148298 
        5.38789         1.68549        0.147159 
        5.40357         1.67469        0.146034 
        5.41929         1.66698        0.144917 
        5.43502         1.65997        0.143812 
         5.4507         1.65448        0.142721 
        5.46639         1.64469        0.141641 
        5.48212         1.63772        0.140569 
        5.49786         1.63287        0.139507 
        5.51353         1.62067        0.138462 
        5.52921         1.61486        0.137426 
        5.54495         1.61073        0.136397 
        5.56066         1.60323         0.13538 
        5.57637         1.59447        0.134373 
        5.59207         1.58956        0.133378 
        5.60778         1.58497        0.132392 
        5.62346         1.57667        0.131417 
        5.63916         1.56678        0.130451 
        5.65487         1.55892        0.129494 
         5.6706         1.55589        0.128546 
        5.68633         1.54876        0.127606 
        5.70203         1.54033        0.126678 
        5.71773         1.53333        0.125759 
        5.73344         1.52913        0.124849 
        5.74916         1.51767        0.123947 
        5.76486         1.51635        0.123055 
        5.78054          1.5102        0.122173 
        5.79626         1.50135        0.121297 
          5.812         1.49611        0.120428 
         5.8277         1.48797        0.119571 
        5.84339         1.48469        0.118722 
        5.85911         1.47675        0.117879 
        5.87484         1.47382        0.117045 
        5.89053         1.46695         0.11622 
        5.90623         1.45944        0.115403 
        5.92195         1.45428        0.114592 
        5.93767         1.45052         0.11379 
        5.95336         1.44164        0.112996 
        5.96905          1.4375         0.11221 
        5.98476         1.42846        0.111431 
        6.00048         1.42312        0.110658 
        6.01617         1.42062        0.109894 
        6.03185         1.41421        0.109138 
        6.04756         1.40711        0.108387 
        6.06331         1.40442        0.107641 
        6.07903         1.39817        0.106904 
        6.09473         1.39632        0.106175 
        6.11044         1.38933        0.105452 
        6.12616         1.38218        0.104735 
        6.14186         1.37582        0.104026 
        6.15755         1.37103        0.103323 
        6.17326         1.36738        0.102626 
        6.18898          1.3606        0.101935 
        6.20467         1.35719        0.101252 
        6.22036          1.3506        0.100575 
         6.2361         1.34603       0.0999024 
         6.2518         1.34163       0.0992369 
        6.26748         1.33367       0.0985789 
        6.28319         1.33144       0.0979249 
        6.29893         1.32919       0.0972763 
        6.31463          1.3213       0.0966346 
        6.33033         1.31308       0.0959989 
        6.34604         1.30983       0.0953683 
        6.36177         1.30861       0.0947428 
        6.37747         1.30275        0.094124 
