# k  (h/Mpc)    Pcb(k)  (Mpc/h)^3    Pcb_linear(k) (Mpc/h)^3   ShotnoiseSubtracted = true
      0.0200456         5519.51         5600.09 
      0.0350414         3853.23          3917.1 
      0.0492313         2842.26         2846.41 
      0.0637834         2367.65         2327.31 
      0.0800726         1798.29         1760.42 
       0.096163         1258.12         1268.68 
       0.111083         1021.59         1040.04 
       0.126058         920.379          907.43 
       0.142273         760.285          730.65 
       0.158546         616.584         578.244 
        0.17375         512.232         503.464 
       0.188953         478.483         449.277 
       0.204907         432.764         380.928 
       0.220756         361.508         322.191 
        0.23588         319.864         287.669 
         0.2514         281.678          259.57 
       0.267535         260.677         227.791 
       0.283568         234.275         200.056 
       0.299022         216.046         180.972 
       0.314451          195.91         165.076 
       0.330372         180.293         148.614 
       0.346141         161.613         134.053 
       0.361624         152.857          122.68 
       0.377134         143.275         112.874 
       0.392932         129.111         103.367 
       0.408854         123.586         94.6962 
       0.424564         117.945         87.4267 
       0.440253         109.898         81.0291 
       0.455999         102.966         75.0715 
       0.471626         95.1956          69.681 
        0.48727         91.7835         64.8954 
       0.502856          87.235         60.6117 
       0.518488         83.9662         56.6586 
       0.534347         80.3642          52.975 
       0.550082         73.7894         49.6664 
       0.565732         70.1716         46.6677 
       0.581496         67.6938         43.8862 
       0.597222         65.3015         41.3248 
       0.612804         61.6394         38.9916 
       0.628434         59.9647         36.8379 
       0.644267         58.0101         34.8204 
       0.660051          55.927         32.9574 
       0.675724         53.3622         31.2404 
       0.691403         51.6839         29.6437 
       0.707174         49.9283         28.1489 
       0.722871          48.312         26.7626 
        0.73838         46.9743         25.4838 
       0.754018         44.6338         24.2784 
       0.769845         43.5621         23.1374 
        0.78569          42.339         22.0683 
       0.801365          40.741         21.0769 
       0.817031         39.6704         20.1468 
       0.832809         38.9579         19.2666 
       0.848511         36.8943         18.4427 
       0.864097         36.1318         17.6724 
       0.879701         35.3572         16.9451 
       0.895507         34.8099           16.25 
       0.911279         33.6477         15.5951 
        0.92691         32.8743         14.9815 
       0.942635         31.5909         14.3974 
       0.958396         31.3277         13.8431 
       0.974128           30.36         13.3188 
       0.989692         29.8943         12.8266 
        1.00528         29.1959         12.3585 
        1.02113         28.1869         11.9063 
        1.03692         27.5539         11.4783 
        1.05264         27.2131         11.0732 
        1.06832         26.3842         10.6882 
        1.08405         25.9307         10.3203 
        1.09979         25.4083          9.9695 
        1.11537         24.6791         9.63836 
        1.13105         24.5692         9.32022 
        1.14679          24.159         9.01514 
        1.16256         23.3583         8.72304 
        1.17828         23.0354         8.44478 
        1.19395         22.4977         8.17953 
         1.2097         22.3008         7.92427 
        1.22537         21.8962         7.68106 
          1.241         21.3761         7.44875 
        1.25666         20.8329         7.22541 
        1.27241         20.5614         7.01013 
        1.28819         20.0409         6.80321 
        1.30392          19.844          6.6052 
        1.31957         19.6752          6.4159 
        1.33529         19.4003         6.23328 
        1.35108         18.9303         6.05701 
        1.36674         18.6167         5.88877 
         1.3824         18.2394         5.72704 
        1.39811         18.0549         5.57081 
        1.41389         17.8421         5.41978 
        1.42964         17.4789         5.27457 
        1.44531         17.3839         5.13535 
        1.46101         16.9075         5.00083 
        1.47667         16.7136          4.8715 
        1.49229         16.5266         4.74707 
        1.50793         16.2961         4.62681 
        1.52367         16.0769         4.50992 
        1.53953         15.9044         4.39625 
        1.55526          15.594         4.28739 
        1.57092         15.3324         4.18264 
        1.58662         15.1893         4.08112 
        1.60235         14.9879         3.98275 
        1.61809         14.7902         3.88755 
        1.63369         14.6066         3.79628 
        1.64941          14.303         3.70728 
        1.66519         14.2386         3.62079 
        1.68085         13.9965         3.53765 
        1.69652         13.8134         3.45709 
        1.71228         13.6764         3.37855 
        1.72806         13.5094         3.30238 
        1.74368         13.3055         3.22931 
        1.75933         13.1776         3.15828 
        1.77505         13.0179         3.08905 
        1.79081         12.8186         3.02175 
         1.8065         12.7543         2.95673 
        1.82218         12.5087         2.89367 
        1.83797         12.3194         2.83201 
        1.85367         12.2076         2.77246 
        1.86928         12.1326         2.71498 
        1.88497         11.9212          2.6588 
        1.90073         11.9069         2.60399 
        1.91647         11.7052         2.55076 
        1.93218         11.5973         2.49913 
        1.94787         11.4765         2.44899 
        1.96363         11.3766         2.40001 
        1.97935         11.2247         2.35247 
        1.99499         11.0515         2.30647 
        2.01064         10.9666         2.26163 
         2.0264         10.8388         2.21769 
        2.04216         10.7164         2.17493 
        2.05781         10.5569         2.13356 
        2.07353         10.4858         2.09311 
        2.08928         10.3728         2.05361 
        2.10499         10.2772         2.01523 
        2.12065         10.1149         1.97793 
        2.13633         10.1045         1.94155 
        2.15211         9.93133         1.90583 
        2.16785         9.89616         1.87111 
        2.18349         9.82273         1.83746 
        2.19916          9.6798         1.80457 
        2.21489         9.59867         1.77236 
        2.23063         9.48361         1.74091 
         2.2463          9.3721         1.71037 
        2.26194         9.29164         1.68062 
        2.27765         9.25777         1.65142 
        2.29341          9.1305         1.62284 
        2.30914         8.99528         1.59499 
        2.32486         8.95834          1.5678 
        2.34061         8.87135         1.54119 
        2.35635         8.77491         1.51522 
        2.37203         8.73095         1.48994 
        2.38768         8.57482         1.46528 
        2.40339         8.50504         1.44108 
        2.41914         8.42369         1.41737 
        2.43483         8.39574         1.39427 
         2.4505         8.30216         1.37172 
        2.46622         8.22073         1.34959 
        2.48195         8.17228         1.32794 
        2.49759         8.07552         1.30688 
        2.51328         7.98931         1.28622 
        2.52906         7.93348         1.26587 
        2.54479         7.84401         1.24603 
        2.56049          7.8363         1.22665 
        2.57618         7.75548          1.2077 
        2.59189         7.63708         1.18912 
        2.60758         7.62553         1.17095 
        2.62325         7.56257         1.15318 
        2.63898         7.44393         1.13572 
        2.65468         7.36809         1.11865 
        2.67044         7.32848         1.10186 
        2.68618         7.24253         1.08544 
        2.70184         7.21296         1.06943 
        2.71755         7.14193         1.05369 
        2.73329         7.05274         1.03825 
        2.74897         7.02305         1.02316 
        2.76462         6.99515          1.0084 
        2.78034         6.87206         0.99387 
        2.79607         6.85159        0.979609 
        2.81179         6.78764        0.965642 
        2.82749         6.75658         0.95196 
        2.84321         6.69321        0.938526 
        2.85893          6.6411        0.925353 
        2.87462         6.57845        0.912454 
        2.89033         6.50601        0.899786 
        2.90605         6.45539        0.887346 
        2.92176         6.41745        0.875145 
        2.93747          6.3769        0.863179 
        2.95318         6.33466        0.851431 
        2.96891         6.26744        0.839895 
        2.98456         6.19208        0.828622 
        3.00023         6.15664        0.817538 
        3.01596         6.12511         0.80662 
        3.03164         6.08514        0.795931 
        3.04738         6.04863        0.785403 
         3.0631         5.96998        0.775067 
        3.07883         5.94395        0.764915 
        3.09456         5.88918        0.754945 
        3.11026         5.83464        0.745167 
        3.12596         5.80644        0.735561 
        3.14163         5.74165        0.726146 
        3.15734           5.713        0.716872 
        3.17308         5.66441        0.707736 
        3.18879         5.61252        0.698783 
        3.20447         5.58325        0.689996 
         3.2202         5.51777        0.681333 
         3.2359         5.49262        0.672832 
        3.25157         5.45342        0.664495 
        3.26729          5.4304        0.656272 
        3.28304         5.36292        0.648172 
        3.29877         5.32608        0.640218 
        3.31446         5.29291        0.632413 
        3.33014         5.24722        0.624744 
        3.34585         5.23736         0.61719 
        3.36158         5.17923        0.609748 
        3.37727         5.15334        0.602451 
        3.39294         5.12051        0.595279 
        3.40867         5.05878        0.588198 
        3.42439         5.03562        0.581234 
        3.44008         4.99239        0.574395 
        3.45578         4.95524        0.567661 
        3.47153         4.92677        0.561018 
        3.48724         4.89267        0.554493 
        3.50292         4.87036        0.548086 
        3.51859         4.82539        0.541782 
        3.53431         4.77962        0.535557 
        3.55007         4.76164        0.529414 
        3.56577         4.72808         0.52339 
        3.58146         4.70369        0.517462 
        3.59719         4.65249        0.511611 
        3.61292         4.63954        0.505852 
        3.62859         4.59996        0.500202 
        3.64429         4.56079        0.494627 
        3.66003         4.52255         0.48912 
        3.67578         4.50588        0.483697 
        3.69146         4.45482        0.478376 
        3.70712         4.44744        0.473145 
        3.72284         4.39866        0.467971 
        3.73853         4.37519        0.462883 
        3.75422         4.34042        0.457869 
        3.76993         4.32374        0.452923 
        3.78564          4.2781        0.448052 
        3.80137         4.26427        0.443244 
        3.81707          4.2289        0.438516 
        3.83279         4.20027        0.433853 
        3.84853         4.16546        0.429249 
        3.86424         4.13415        0.424721 
        3.87992         4.11097        0.420264 
        3.89561         4.09008         0.41587 
        3.91134         4.04907        0.411529 
        3.92704         4.02788        0.407255 
        3.94273          3.9993        0.403045 
        3.95845         3.97814        0.398887 
        3.97418         3.95156        0.394786 
        3.98988         3.92223        0.390747 
        4.00554         3.90098        0.386775 
        4.02125         3.87619        0.382847 
        4.03698         3.84072        0.378967 
        4.05268         3.81421        0.375149 
        4.06839         3.79642         0.37138 
         4.0841         3.76767        0.367664 
        4.09983         3.73707        0.363993 
        4.11555         3.70146        0.360373 
        4.13124          3.6856        0.356811 
        4.14693         3.65239        0.353295 
        4.16266          3.6226        0.349817 
        4.17839         3.60656        0.346388 
        4.19408         3.56954        0.343012 
        4.20977         3.55578        0.339679 
        4.22551         3.52207        0.336382 
        4.24123         3.50792        0.333132 
        4.25691         3.49224        0.329934 
        4.27259         3.47437        0.326775 
        4.28831         3.44389        0.323652 
        4.30404         3.41892        0.320566 
        4.31974         3.39618        0.317526 
        4.33543         3.36996        0.314528 
        4.35116         3.34696         0.31156 
        4.36688         3.31491        0.308632 
        4.38255         3.29821        0.305752 
        4.39825         3.28492        0.302902 
        4.41398         3.26682        0.300082 
         4.4297         3.24146        0.297301 
        4.44541         3.22491        0.294555 
        4.46111         3.20725        0.291846 
        4.47683         3.16692        0.289169 
        4.49251         3.16291         0.28653 
        4.50819         3.13575        0.283925 
         4.5239         3.11856        0.281348 
        4.53962         3.11125        0.278799 
        4.55535         3.08404        0.276281 
        4.57106         3.06686        0.273797 
        4.58678         3.04379        0.271343 
         4.6025         3.03026        0.268918 
        4.61821         3.00824        0.266522 
        4.63391         2.99036        0.264159 
         4.6496         2.97872        0.261825 
        4.66532         2.95212        0.259516 
        4.68103         2.92869        0.257235 
        4.69673         2.91431        0.254983 
        4.71241         2.89246         0.25276 
        4.72811         2.88296         0.25056 
        4.74384         2.87058        0.248383 
        4.75955         2.84489        0.246236 
        4.77525         2.82291        0.244114 
        4.79096         2.80631        0.242014 
        4.80669         2.79427        0.239939 
         4.8224         2.77905        0.237889 
        4.83809         2.76343        0.235865 
        4.85379         2.74836        0.233864 
         4.8695         2.72891        0.231884 
        4.88521         2.70671        0.229927 
        4.90093          2.7041        0.227993 
        4.91663         2.68219        0.226082 
        4.93234         2.66641        0.224191 
        4.94807         2.65695         0.22232 
        4.96377         2.62886        0.220474 
        4.97943         2.61566        0.218653 
        4.99514         2.60095        0.216847 
        5.01086         2.59135         0.21506 
        5.02654         2.57362        0.213297 
        5.04227         2.56071        0.211549 
          5.058         2.55103         0.20982 
        5.07371         2.53346        0.208113 
        5.08942         2.51865        0.206425 
        5.10513         2.50363        0.204755 
        5.12084         2.48726        0.203102 
        5.13656         2.47606        0.201468 
        5.15225         2.45978        0.199854 
        5.16796         2.45012        0.198256 
        5.18369          2.4342        0.196673 
         5.1994         2.42205         0.19511 
        5.21509         2.40956        0.193566 
        5.23079         2.39465        0.192036 
        5.24649         2.38173        0.190524 
        5.26217         2.37109        0.189029 
        5.27788         2.35392        0.187548 
        5.29359         2.34064        0.186082 
        5.30933         2.32747         0.18463 
        5.32504         2.31347        0.183195 
        5.34073         2.29849        0.181777 
        5.35646         2.28952        0.180372 
        5.37218         2.27396         0.17898 
        5.38789         2.26536        0.177606 
        5.40357         2.25358        0.176247 
        5.41929         2.24303        0.174899 
        5.43502         2.23128        0.173566 
         5.4507         2.21878        0.172249 
        5.46639         2.20767        0.170945 
        5.48212         2.19401        0.169652 
        5.49786         2.18205        0.168371 
        5.51353         2.16928        0.167109 
        5.52921          2.1642        0.165858 
        5.54495         2.14894        0.164617 
        5.56066         2.13834        0.163389 
        5.57637         2.12605        0.162174 
        5.59207         2.11504        0.160973 
        5.60778         2.10912        0.159783 
        5.62346         2.09342        0.158606 
        5.63916         2.08055         0.15744 
        5.65487           2.072        0.156286 
         5.6706         2.06091        0.155141 
        5.68633         2.05003        0.154007 
        5.70203         2.04096        0.152887 
        5.71773         2.02885        0.151778 
        5.73344         2.01685         0.15068 
        5.74916          2.0101        0.149591 
        5.76486         2.00183        0.148514 
        5.78054         1.98864        0.147449 
        5.79626         1.98447        0.146392 
          5.812         1.97068        0.145344 
         5.8277         1.96272        0.144309 
        5.84339         1.95191        0.143285 
        5.85911         1.94402        0.142268 
        5.87484         1.93397        0.141261 
        5.89053         1.92297        0.140266 
        5.90623         1.91362        0.139279 
        5.92195         1.90519        0.138301 
        5.93767         1.89286        0.137332 
        5.95336         1.88561        0.136374 
        5.96905         1.87698        0.135426 
        5.98476         1.86643        0.134485 
        6.00048         1.85757        0.133553 
        6.01617         1.85043         0.13263 
        6.03185         1.83805        0.131718 
        6.04756         1.83149        0.130811 
        6.06331         1.82129        0.129912 
        6.07903          1.8149        0.129022 
        6.09473          1.8079        0.128142 
        6.11044         1.79482        0.127269 
        6.12616         1.78652        0.126404 
        6.14186         1.78589        0.125548 
        6.15755          1.7759          0.1247 
        6.17326         1.76746        0.123859 
        6.18898         1.75739        0.123025 
        6.20467         1.74742        0.122201 
        6.22036         1.73911        0.121383 
         6.2361          1.7352        0.120572 
         6.2518         1.72517        0.119768 
        6.26748         1.71438        0.118974 
        6.28319         1.70759        0.118185 
        6.29893         1.70208        0.117402 
        6.31463         1.69605        0.116628 
        6.33033         1.68303         0.11586 
        6.34604         1.67795        0.115099 
        6.36177         1.66989        0.114344 
        6.37747         1.66447        0.113598 
