# k  (h/Mpc)    Pcb(k)  (Mpc/h)^3    Pcb_linear(k) (Mpc/h)^3   ShotnoiseSubtracted = true
      0.0200456         1585.12         1602.94 
      0.0350414         1138.66         1121.21 
      0.0492313         816.636         814.739 
      0.0637834          657.96         666.155 
      0.0800726         498.183         503.893 
       0.096163         370.372         363.138 
       0.111083         304.417         297.696 
       0.126058           258.2         259.737 
       0.142273         208.781         209.137 
       0.158546         167.887         165.513 
        0.17375         147.308         144.108 
       0.188953         130.842         128.598 
       0.204907         108.398         109.035 
       0.220756         94.4593         92.2221 
        0.23588         84.1065         82.3405 
         0.2514         75.7884         74.2979 
       0.267535         67.8771         65.2015 
       0.283568         59.3944         57.2629 
       0.299022         54.3155         51.8004 
       0.314451         50.7303         47.2503 
       0.330372         44.9679         42.5384 
       0.346141         40.7643         38.3706 
       0.361624         37.3255         35.1153 
       0.377134         34.1496         32.3085 
       0.392932         32.5515         29.5871 
       0.408854         29.3662         27.1053 
       0.424564         27.9115         25.0245 
       0.440253         25.4419         23.1933 
       0.455999         23.1514          21.488 
       0.471626         21.7218         19.9451 
        0.48727          20.913         18.5753 
       0.502856         19.5389         17.3491 
       0.518488           18.02         16.2176 
       0.534347         16.8373         15.1632 
       0.550082         16.1215         14.2162 
       0.565732         15.3932         13.3579 
       0.581496         14.4398         12.5617 
       0.597222         13.5688         11.8285 
       0.612804         12.7855         11.1607 
       0.628434         12.4098         10.5442 
       0.644267         11.7299          9.9668 
       0.660051         11.0768         9.43354 
       0.675724          10.478         8.94207 
       0.691403         10.1409         8.48502 
       0.707174         9.63889         8.05718 
       0.722871         9.34399         7.66035 
        0.73838         8.75631         7.29432 
       0.754018         8.31428          6.9493 
       0.769845          7.9674         6.62272 
        0.78569         7.73881          6.3167 
       0.801365         7.38324         6.03293 
       0.817031          7.1101          5.7667 
       0.832809         6.77401         5.51476 
       0.848511         6.57231         5.27893 
       0.864097         6.31657         5.05844 
       0.879701         6.15467         4.85027 
       0.895507         5.89776          4.6513 
       0.911279         5.65662         4.46385 
        0.92691         5.48584         4.28823 
       0.942635         5.27534         4.12104 
       0.958396         5.09487         3.96236 
       0.974128         4.95743         3.81229 
       0.989692         4.71056         3.67142 
        1.00528         4.63677         3.53743 
        1.02113         4.47267           3.408 
        1.03692         4.35677         3.28548 
        1.05264         4.19111         3.16953 
        1.06832         4.07755         3.05932 
        1.08405         3.95804         2.95403 
        1.09979          3.8493         2.85361 
        1.11537         3.73424         2.75883 
        1.13105         3.61796         2.66776 
        1.14679         3.52363         2.58044 
        1.16256         3.41052         2.49683 
        1.17828         3.35534         2.41718 
        1.19395         3.23142         2.34126 
         1.2097         3.13279         2.26819 
        1.22537         3.03944         2.19858 
          1.241          2.9678         2.13208 
        1.25666         2.93082         2.06816 
        1.27241         2.85932         2.00654 
        1.28819         2.73751         1.94731 
        1.30392          2.6751         1.89063 
        1.31957         2.62878         1.83645 
        1.33529         2.53676         1.78418 
        1.35108         2.48755         1.73372 
        1.36674         2.41775         1.68557 
         1.3824         2.38693         1.63927 
        1.39811         2.31925         1.59456 
        1.41389         2.25671         1.55133 
        1.42964         2.21097         1.50976 
        1.44531         2.16813         1.46991 
        1.46101         2.12481         1.43141 
        1.47667         2.07707         1.39439 
        1.49229         2.00462         1.35877 
        1.50793         1.95467         1.32435 
        1.52367          1.9209         1.29089 
        1.53953         1.87349         1.25836 
        1.55526          1.8697          1.2272 
        1.57092         1.81585         1.19721 
        1.58662         1.79213         1.16815 
        1.60235         1.73585            1.14 
        1.61809         1.70443         1.11275 
        1.63369         1.66802         1.08663 
        1.64941         1.63709         1.06115 
        1.66519          1.6136         1.03639 
        1.68085         1.57259          1.0126 
        1.69652           1.544        0.989536 
        1.71228         1.51232        0.967057 
        1.72806         1.48875        0.945255 
        1.74368         1.45903        0.924338 
        1.75933         1.43538        0.904008 
        1.77505         1.40757        0.884191 
        1.79081         1.37502        0.864928 
         1.8065         1.35784        0.846318 
        1.82218         1.32446        0.828267 
        1.83797         1.30098        0.810616 
        1.85367          1.2808        0.793573 
        1.86928         1.25822        0.777119 
        1.88497         1.23262        0.761039 
        1.90073         1.22181        0.745351 
        1.91647         1.19102        0.730116 
        1.93218         1.17412        0.715335 
        1.94787          1.1555        0.700983 
        1.96363         1.13695        0.686965 
        1.97935         1.11641        0.673357 
        1.99499          1.0981        0.660191 
        2.01064         1.08126        0.647355 
         2.0264         1.06024        0.634778 
        2.04216         1.04724        0.622538 
        2.05781         1.02577        0.610696 
        2.07353         1.01707        0.599118 
        2.08928         0.99714        0.587812 
        2.10499        0.979364        0.576826 
        2.12065        0.966552        0.566152 
        2.13633        0.951823        0.555737 
        2.15211        0.932334        0.545514 
        2.16785        0.922373        0.535575 
        2.18349        0.905291        0.525945 
        2.19916        0.897778        0.516529 
        2.21489        0.884821         0.50731 
        2.23063        0.864631        0.498309 
         2.2463        0.851191        0.489565 
        2.26194        0.843556        0.481051 
        2.27765        0.826594        0.472694 
        2.29341        0.817382        0.464512 
        2.30914        0.802764        0.456539 
        2.32486        0.796408        0.448757 
        2.34061        0.783499        0.441141 
        2.35635        0.771471        0.433708 
        2.37203        0.760996        0.426471 
        2.38768        0.750739        0.419412 
        2.40339        0.742424        0.412486 
        2.41914        0.733021        0.405699 
        2.43483        0.722826        0.399088 
         2.4505        0.711419        0.392634 
        2.46622        0.702076        0.386299 
        2.48195         0.69386        0.380103 
        2.49759        0.682495        0.374074 
        2.51328        0.672772         0.36816 
        2.52906        0.667786        0.362335 
        2.54479        0.656256        0.356656 
        2.56049        0.649595         0.35111 
        2.57618        0.640826        0.345685 
        2.59189        0.633579        0.340366 
        2.60758        0.624093        0.335166 
        2.62325        0.616871         0.33008 
        2.63898        0.609752        0.325081 
        2.65468        0.598548        0.320196 
        2.67044        0.595469        0.315389 
        2.68618        0.589178        0.310691 
        2.70184        0.580751        0.306106 
        2.71755        0.574902        0.301602 
        2.73329        0.565784        0.297181 
        2.74897        0.559146        0.292862 
        2.76462         0.55227        0.288638 
        2.78034        0.547856        0.284479 
        2.79607        0.540525        0.280397 
        2.81179        0.533441        0.276399 
        2.82749        0.527423        0.272483 
        2.84321        0.521229        0.268638 
        2.85893        0.514765        0.264868 
        2.87462        0.509732        0.261175 
        2.89033        0.505369        0.257549 
        2.90605        0.500364        0.253989 
        2.92176        0.494196        0.250496 
        2.93747        0.488856        0.247071 
        2.95318        0.482917        0.243709 
        2.96891        0.480588        0.240407 
        2.98456        0.470922         0.23718 
        3.00023        0.467679        0.234007 
        3.01596        0.462629        0.230882 
        3.03164        0.458535        0.227822 
        3.04738        0.453506        0.224809 
         3.0631        0.446948        0.221851 
        3.07883         0.44373        0.218945 
        3.09456        0.439851        0.216091 
        3.11026        0.435451        0.213292 
        3.12596        0.431092        0.210543 
        3.14163        0.428416        0.207848 
        3.15734        0.423024        0.205193 
        3.17308        0.418558        0.202578 
        3.18879        0.415617        0.200015 
        3.20447        0.411566          0.1975 
         3.2202        0.404604        0.195021 
         3.2359        0.402205        0.192587 
        3.25157        0.397513        0.190201 
        3.26729        0.395383        0.187847 
        3.28304        0.392307        0.185529 
        3.29877        0.387833        0.183252 
        3.31446        0.386294        0.181018 
        3.33014        0.379967        0.178823 
        3.34585        0.377687        0.176661 
        3.36158        0.374026        0.174531 
        3.37727        0.371804        0.172442 
        3.39294        0.368224        0.170389 
        3.40867        0.364672        0.168362 
        3.42439        0.362008        0.166369 
        3.44008        0.358314        0.164411 
        3.45578        0.355574        0.162484 
        3.47153        0.353509        0.160583 
        3.48724          0.3497        0.158715 
        3.50292        0.346307        0.156881 
        3.51859         0.34495        0.155076 
        3.53431        0.340681        0.153295 
        3.55007         0.33883        0.151536 
        3.56577        0.336175        0.149812 
        3.58146        0.333286        0.148115 
        3.59719        0.330701         0.14644 
        3.61292        0.327896        0.144792 
        3.62859         0.32545        0.143175 
        3.64429        0.322531        0.141579 
        3.66003        0.319836        0.140003 
        3.67578        0.318161        0.138451 
        3.69146        0.315897        0.136928 
        3.70712        0.313997         0.13543 
        3.72284        0.311129        0.133949 
        3.73853        0.308473        0.132493 
        3.75422        0.306686        0.131058 
        3.76993         0.30421        0.129642 
        3.78564        0.301323        0.128248 
        3.80137        0.299464        0.126872 
        3.81707        0.296885        0.125518 
        3.83279        0.295015        0.124183 
        3.84853         0.29264        0.122866 
        3.86424        0.290636         0.12157 
        3.87992        0.289435        0.120294 
        3.89561        0.287059        0.119036 
        3.91134         0.28391        0.117794 
        3.92704        0.282338         0.11657 
        3.94273        0.280672        0.115365 
        3.95845        0.278644        0.114175 
        3.97418        0.277035        0.113001 
        3.98988        0.274788        0.111845 
        4.00554        0.271613        0.110708 
        4.02125        0.270266        0.109584 
        4.03698        0.267293        0.108473 
        4.05268        0.264412         0.10738 
        4.06839        0.262255        0.106302 
         4.0841        0.258926        0.105238 
        4.09983        0.257618        0.104187 
        4.11555        0.254507        0.103151 
        4.13124        0.252746        0.102132 
        4.14693        0.251232        0.101125 
        4.16266        0.247034         0.10013 
        4.17839        0.245313        0.099148 
        4.19408        0.244086       0.0981817 
        4.20977        0.241569       0.0972277 
        4.22551        0.239842       0.0962841 
        4.24123        0.237909       0.0953538 
        4.25691        0.235994       0.0944382 
        4.27259        0.233823       0.0935342 
        4.28831        0.232561       0.0926402 
        4.30404         0.23074       0.0917568 
        4.31974        0.229321       0.0908869 
        4.33543        0.227088       0.0900286 
        4.35116        0.226189       0.0891792 
        4.36688        0.224424        0.088341 
        4.38255        0.222776       0.0875166 
        4.39825        0.221385       0.0867008 
        4.41398         0.22013       0.0858937 
         4.4297        0.219056       0.0850977 
        4.44541        0.217589       0.0843118 
        4.46111        0.216405       0.0835363 
        4.47683        0.215353       0.0827699 
        4.49251        0.214332       0.0820147 
        4.50819         0.21404       0.0812689 
         4.5239        0.212372       0.0805313 
        4.53962        0.211017       0.0798018 
        4.55535        0.210422        0.079081 
        4.57106        0.209785         0.07837 
        4.58678        0.208517       0.0776675 
         4.6025        0.208085       0.0769733 
        4.61821        0.207334       0.0762877 
        4.63391         0.20758       0.0756113 
         4.6496        0.205841       0.0749432 
        4.66532        0.205439       0.0742822 
        4.68103        0.204356       0.0736293 
        4.69673        0.204039       0.0729848 
        4.71241        0.203818       0.0723486 
        4.72811        0.203892       0.0717189 
        4.74384        0.202771       0.0710958 
        4.75955        0.202684        0.070481 
        4.77525        0.202288       0.0698737 
        4.79096        0.202087       0.0692728 
        4.80669        0.201767       0.0686786 
         4.8224        0.201457       0.0680919 
        4.83809        0.201067       0.0675127 
        4.85379        0.201544       0.0669398 
         4.8695        0.201994        0.066373 
        4.88521        0.201541        0.065813 
        4.90093        0.201443       0.0652593 
        4.91663          0.2017       0.0647124 
        4.93234        0.201087       0.0641711 
        4.94807        0.201949       0.0636356 
        4.96377        0.202524       0.0631072 
        4.97943        0.202185       0.0625858 
        4.99514        0.202345       0.0620689 
        5.01086        0.203343       0.0615574 
        5.02654        0.203717        0.061053 
        5.04227        0.203474       0.0605526 
          5.058        0.204486       0.0600576 
        5.07371        0.204655        0.059569 
        5.08942        0.205796       0.0590857 
        5.10513        0.206047       0.0586077 
        5.12084        0.206353       0.0581347 
        5.13656        0.207686        0.057667 
        5.15225        0.208144       0.0572051 
        5.16796        0.209217       0.0567476 
        5.18369        0.209274       0.0562946 
         5.1994        0.210825       0.0558473 
        5.21509        0.211498       0.0554052 
        5.23079        0.211807       0.0549673 
        5.24649        0.213583       0.0545345 
        5.26217        0.213829       0.0541066 
        5.27788        0.215515       0.0536826 
        5.29359         0.21651        0.053263 
        5.30933        0.217557       0.0528473 
        5.32504        0.219014       0.0524367 
        5.34073        0.220954       0.0520309 
        5.35646        0.221724       0.0516285 
        5.37218        0.222645       0.0512302 
        5.38789        0.223151       0.0508368 
        5.40357         0.22574       0.0504479 
        5.41929        0.226966       0.0500621 
        5.43502        0.228716       0.0496804 
         5.4507        0.230406       0.0493034 
        5.46639        0.231597       0.0489303 
        5.48212        0.232453       0.0485602 
        5.49786        0.234493       0.0481934 
        5.51353        0.236989       0.0478322 
        5.52921        0.237145       0.0474742 
        5.54495        0.240271       0.0471189 
        5.56066        0.241633       0.0467675 
        5.57637        0.243311       0.0464198 
        5.59207        0.245756       0.0460758 
        5.60778        0.247131       0.0457352 
        5.62346        0.249306       0.0453985 
        5.63916        0.250902       0.0450648 
        5.65487        0.252539       0.0447343 
         5.6706        0.254741       0.0444066 
        5.68633        0.257585       0.0440821 
        5.70203        0.259977       0.0437615 
        5.71773        0.260705       0.0434441 
        5.73344        0.263497       0.0431296 
        5.74916        0.266623       0.0428179 
        5.76486         0.26813       0.0425097 
        5.78054         0.27059        0.042205 
        5.79626        0.272095       0.0419024 
          5.812        0.275791       0.0416025 
         5.8277         0.27742       0.0413063 
        5.84339        0.279445       0.0410129 
        5.85911        0.282664       0.0407219 
        5.87484        0.284698       0.0404337 
        5.89053        0.287954       0.0401488 
        5.90623        0.289641       0.0398665 
        5.92195        0.291651       0.0395864 
        5.93767        0.294262       0.0393091 
        5.95336         0.29647       0.0390349 
        5.96905        0.298984       0.0387635 
        5.98476         0.30125       0.0384941 
        6.00048        0.303565       0.0382273 
        6.01617        0.307968       0.0379633 
        6.03185        0.309181       0.0377021 
        6.04756        0.311071       0.0374427 
        6.06331        0.314504       0.0371851 
        6.07903        0.316936       0.0369305 
        6.09473        0.319994       0.0366785 
        6.11044        0.321615       0.0364287 
        6.12616        0.324424       0.0361811 
        6.14186        0.326406       0.0359361 
        6.15755        0.331663       0.0356933 
        6.17326        0.332375       0.0354526 
        6.18898        0.334486        0.035214 
        6.20467        0.338208       0.0349779 
        6.22036        0.338838       0.0347441 
         6.2361        0.342717       0.0345117 
         6.2518        0.346025       0.0342818 
        6.26748        0.347685       0.0340545 
        6.28319        0.351807       0.0338286 
        6.29893        0.354106       0.0336045 
        6.31463        0.356627       0.0333828 
        6.33033         0.35926       0.0331632 
        6.34604        0.361772       0.0329454 
        6.36177        0.363719       0.0327293 
        6.37747        0.366604       0.0325155 
