# k  (h/Mpc)    Pcb(k)  (Mpc/h)^3    Pcb_linear(k) (Mpc/h)^3   ShotnoiseSubtracted = true
      0.0200456         16551.6         16787.4 
      0.0350414         12122.5         11742.3 
      0.0492313         8419.07          8532.7 
      0.0637834         6694.82         6976.59 
      0.0800726         5053.99         5277.23 
       0.096163         3989.97         3803.12 
       0.111083         3306.73         3117.75 
       0.126058         2714.52         2720.21 
       0.142273         2282.05         2190.28 
       0.158546         1872.89         1733.41 
        0.17375         1674.38         1509.24 
       0.188953         1556.63          1346.8 
       0.204907         1310.66         1141.91 
       0.220756         1176.23         965.835 
        0.23588         1053.96         862.347 
         0.2514         942.338         778.117 
       0.267535         907.534         682.851 
       0.283568         795.958         599.711 
       0.299022         759.794         542.502 
       0.314451         779.219         494.849 
       0.330372         669.754         445.502 
       0.346141         617.285         401.853 
       0.361624         590.376          367.76 
       0.377134         558.573         338.364 
       0.392932         536.215         309.864 
       0.408854         510.947         283.871 
       0.424564         496.011          262.08 
       0.440253         451.598         242.902 
       0.455999         431.873         225.042 
       0.471626         437.329         208.883 
        0.48727         411.971         194.537 
       0.502856         384.073         181.696 
       0.518488         381.193         169.846 
       0.534347         357.674         158.804 
       0.550082         343.308         148.885 
       0.565732         340.636         139.896 
       0.581496         328.668         131.558 
       0.597222         319.194          123.88 
       0.612804         310.758         116.885 
       0.628434         298.705         110.429 
       0.644267         286.759         104.382 
       0.660051         282.702         98.7967 
       0.675724         277.558         93.6497 
       0.691403         271.094          88.863 
       0.707174         260.483         84.3822 
       0.722871         256.233         80.2263 
        0.73838         253.246         76.3929 
       0.754018          242.83         72.7796 
       0.769845         242.358         69.3592 
        0.78569         235.655         66.1544 
       0.801365         228.709         63.1824 
       0.817031         226.018         60.3942 
       0.832809         221.312         57.7557 
       0.848511         215.665         55.2859 
       0.864097         210.097         52.9767 
       0.879701         209.346         50.7965 
       0.895507         204.154         48.7127 
       0.911279         198.847         46.7496 
        0.92691         195.973         44.9103 
       0.942635         194.513         43.1593 
       0.958396          189.56         41.4975 
       0.974128         186.837         39.9258 
       0.989692         180.171         38.4505 
        1.00528         179.947         37.0473 
        1.02113          176.78         35.6917 
        1.03692         172.903         34.4086 
        1.05264         169.912         33.1942 
        1.06832         169.531           32.04 
        1.08405         164.749         30.9373 
        1.09979         163.504         29.8857 
        1.11537         160.726          28.893 
        1.13105         157.901         27.9393 
        1.14679          156.26         27.0247 
        1.16256         153.358         26.1491 
        1.17828         151.913          25.315 
        1.19395          147.98         24.5199 
         1.2097         147.167         23.7546 
        1.22537         145.976         23.0256 
          1.241          142.19         22.3292 
        1.25666         140.728         21.6597 
        1.27241         137.525         21.0143 
        1.28819         136.365          20.394 
        1.30392         134.657         19.8004 
        1.31957          131.47          19.233 
        1.33529         129.905         18.6856 
        1.35108         128.475         18.1571 
        1.36674         126.132         17.6528 
         1.3824         125.535          17.168 
        1.39811         122.909         16.6997 
        1.41389         121.121         16.2469 
        1.42964         119.289         15.8116 
        1.44531         118.301         15.3943 
        1.46101         115.718          14.991 
        1.47667         115.637         14.6034 
        1.49229         113.858         14.2303 
        1.50793         111.711         13.8698 
        1.52367          110.27         13.5194 
        1.53953         108.567         13.1787 
        1.55526         107.911         12.8524 
        1.57092         106.629         12.5383 
        1.58662         104.786          12.234 
        1.60235         103.392         11.9391 
        1.61809         102.431         11.6537 
        1.63369         100.595         11.3802 
        1.64941         100.339         11.1133 
        1.66519         98.7544         10.8541 
        1.68085         96.8683         10.6049 
        1.69652         96.0148         10.3633 
        1.71228         94.9502         10.1279 
        1.72806         94.1025         9.89958 
        1.74368          92.381         9.68053 
        1.75933         91.7612         9.46761 
        1.77505         90.3492         9.26006 
        1.79081         89.0925         9.05833 
         1.8065         87.6719         8.86342 
        1.82218         86.8631         8.67439 
        1.83797         86.5307         8.48953 
        1.85367         84.7064         8.31104 
        1.86928         84.3773         8.13871 
        1.88497         82.9547          7.9703 
        1.90073         82.2948           7.806 
        1.91647         80.8801         7.64645 
        1.93218          79.965         7.49166 
        1.94787         78.8083         7.34135 
        1.96363         78.1124         7.19454 
        1.97935         77.4664         7.05202 
        1.99499         76.7172         6.91413 
        2.01064         74.9169         6.77971 
         2.0264         74.5307         6.64798 
        2.04216         73.1969          6.5198 
        2.05781         72.7338         6.39578 
        2.07353         71.9214         6.27452 
        2.08928         70.8697         6.15612 
        2.10499         70.0559         6.04106 
        2.12065         69.6583         5.92927 
        2.13633         68.7728         5.82019 
        2.15211         67.6569         5.71313 
        2.16785          66.618         5.60904 
        2.18349         66.0757         5.50818 
        2.19916         65.3174         5.40957 
        2.21489         64.4594         5.31302 
        2.23063          63.571         5.21875 
         2.2463         63.1932         5.12718 
        2.26194         62.4509         5.03801 
        2.27765          61.729         4.95049 
        2.29341         61.0221          4.8648 
        2.30914         60.2791          4.7813 
        2.32486         59.3073          4.6998 
        2.34061         58.7656         4.62004 
        2.35635         58.1977          4.5422 
        2.37203         57.3486          4.4664 
        2.38768         56.8859         4.39247 
        2.40339         56.3081         4.31994 
        2.41914         55.2806         4.24886 
        2.43483         55.1064         4.17962 
         2.4505         54.3997         4.11203 
        2.46622         53.9633         4.04568 
        2.48195         53.2379         3.98079 
        2.49759          52.713         3.91765 
        2.51328         52.2002         3.85571 
        2.52906         51.5417         3.79471 
        2.54479         50.9405         3.73524 
        2.56049         50.1626         3.67715 
        2.57618         49.7288         3.62034 
        2.59189         49.3448         3.56463 
        2.60758         48.6509         3.51017 
        2.62325         48.2257         3.45691 
        2.63898          47.827         3.40455 
        2.65468         47.1755         3.35339 
        2.67044         46.7706         3.30304 
        2.68618         46.3105         3.25384 
        2.70184         45.6626         3.20583 
        2.71755         45.0172         3.15866 
        2.73329         44.7448         3.11236 
        2.74897         44.4079         3.06713 
        2.76462         43.9257         3.02289 
        2.78034         43.3745         2.97933 
        2.79607         42.7484         2.93658 
        2.81179         42.3751         2.89471 
        2.82749         42.0439          2.8537 
        2.84321         41.7181         2.81343 
        2.85893         41.1677         2.77394 
        2.87462         40.4857         2.73527 
        2.89033         40.1975          2.6973 
        2.90605         39.7202            2.66 
        2.92176         39.4844         2.62343 
        2.93747         39.0099         2.58756 
        2.95318         38.6382         2.55234 
        2.96891         38.2018         2.51776 
        2.98456          37.919         2.48397 
        3.00023         37.4181         2.45074 
        3.01596         37.0923         2.41801 
        3.03164         36.7194         2.38597 
        3.04738         36.2923         2.35441 
         3.0631         36.1011         2.32343 
        3.07883         35.6344         2.29299 
        3.09456         35.2804         2.26311 
        3.11026          34.804         2.23379 
        3.12596         34.5371           2.205 
        3.14163          34.126         2.17677 
        3.15734         33.8611         2.14897 
        3.17308         33.5739         2.12159 
        3.18879         33.2201         2.09475 
        3.20447         32.7265         2.06841 
         3.2202         32.4713         2.04244 
         3.2359         32.3291         2.01695 
        3.25157         31.8247         1.99196 
        3.26729         31.6072         1.96731 
        3.28304         31.3471         1.94303 
        3.29877         30.8784         1.91919 
        3.31446         30.6529         1.89579 
        3.33014         30.2969          1.8728 
        3.34585         30.0033         1.85016 
        3.36158         29.7549         1.82785 
        3.37727         29.4097         1.80597 
        3.39294         29.1851         1.78447 
        3.40867          28.916         1.76324 
        3.42439         28.6564         1.74237 
        3.44008         28.3909         1.72187 
        3.45578         28.0554         1.70168 
        3.47153         27.8679         1.68177 
        3.48724         27.5109         1.66221 
        3.50292         27.3289           1.643 
        3.51859         27.0592          1.6241 
        3.53431         26.7977         1.60544 
        3.55007         26.4054         1.58703 
        3.56577         26.1952         1.56897 
        3.58146         25.9615          1.5512 
        3.59719          25.806         1.53366 
        3.61292         25.5428          1.5164 
        3.62859         25.2806         1.49946 
        3.64429          25.022         1.48275 
        3.66003         24.7765         1.46624 
        3.67578           24.59         1.44998 
        3.69146         24.3645         1.43403 
        3.70712         24.1582         1.41835 
        3.72284         23.9896         1.40284 
        3.73853          23.753         1.38759 
        3.75422         23.4861         1.37256 
        3.76993         23.3307         1.35773 
        3.78564         23.0276         1.34313 
        3.80137         22.8627         1.32872 
        3.81707         22.6268         1.31454 
        3.83279         22.4088         1.30056 
        3.84853         22.2778         1.28676 
        3.86424         21.9738         1.27319 
        3.87992          21.791         1.25983 
        3.89561          21.675         1.24666 
        3.91134         21.3961         1.23364 
        3.92704         21.2252         1.22083 
        3.94273         20.9886         1.20821 
        3.95845          20.866         1.19575 
        3.97418         20.6974         1.18345 
        3.98988         20.4725         1.17135 
        4.00554         20.2499         1.15944 
        4.02125         20.1086         1.14766 
        4.03698         19.9339         1.13603 
        4.05268         19.7875         1.12459 
        4.06839         19.6032         1.11329 
         4.0841         19.4215         1.10215 
        4.09983         19.2565         1.09114 
        4.11555         19.1011         1.08029 
        4.13124         18.9704         1.06962 
        4.14693         18.7701         1.05907 
        4.16266         18.5977         1.04865 
        4.17839         18.4403         1.03837 
        4.19408         18.3129         1.02825 
        4.20977         18.1558         1.01826 
        4.22551         18.0029         1.00838 
        4.24123          17.819        0.998633 
        4.25691         17.6603        0.989044 
        4.27259         17.5437        0.979577 
        4.28831         17.4032        0.970214 
        4.30404         17.1972        0.960963 
        4.31974         17.1062        0.951852 
        4.33543         16.9482        0.942863 
        4.35116         16.8062        0.933967 
        4.36688         16.6545        0.925189 
        4.38255         16.5147        0.916555 
        4.39825         16.3859        0.908011 
        4.41398         16.2309        0.899559 
         4.4297         16.1369        0.891222 
        4.44541         15.9742        0.882991 
        4.46111         15.7751         0.87487 
        4.47683         15.7102        0.866844 
        4.49251         15.5852        0.858934 
        4.50819         15.4524        0.851124 
         4.5239         15.3356        0.843399 
        4.53962         15.2256        0.835759 
        4.55535         15.0599        0.828209 
        4.57106         14.9533        0.820763 
        4.58678         14.8327        0.813406 
         4.6025         14.6895        0.806136 
        4.61821          14.572        0.798956 
        4.63391         14.4528        0.791872 
         4.6496         14.3231        0.784875 
        4.66532         14.2244        0.777952 
        4.68103         14.1253        0.771115 
        4.69673          13.992        0.764365 
        4.71241         13.9176        0.757702 
        4.72811         13.7742        0.751107 
        4.74384         13.6729        0.744581 
        4.75955         13.5512        0.738142 
        4.77525         13.4377        0.731782 
        4.79096         13.3255        0.725489 
        4.80669         13.2526        0.719266 
         4.8224          13.126        0.713122 
        4.83809         12.9989        0.707056 
        4.85379         12.9192        0.701056 
         4.8695         12.8362         0.69512 
        4.88521         12.7143        0.689255 
        4.90093         12.5965        0.683456 
        4.91663          12.532        0.677728 
        4.93234         12.4311         0.67206 
        4.94807         12.3359        0.666452 
        4.96377         12.2632        0.660917 
        4.97943         12.1465        0.655457 
        4.99514         12.0285        0.650044 
        5.01086         11.9516        0.644687 
        5.02654         11.8843        0.639403 
        5.04227         11.7641        0.634163 
          5.058         11.6614        0.628979 
        5.07371         11.6092        0.623862 
        5.08942         11.5148        0.618801 
        5.10513         11.4342        0.613795 
        5.12084         11.3175        0.608841 
        5.13656         11.2303        0.603942 
        5.15225         11.1721        0.599105 
        5.16796         11.0993        0.594313 
        5.18369         10.9848        0.589569 
         5.1994          10.921        0.584884 
        5.21509         10.8282        0.580254 
        5.23079         10.7617        0.575669 
        5.24649         10.6445        0.571136 
        5.26217         10.5866        0.566654 
        5.27788         10.5156        0.562214 
        5.29359         10.4384         0.55782 
        5.30933         10.3524        0.553466 
        5.32504         10.2721        0.549166 
        5.34073         10.2106        0.544916 
        5.35646         10.1377        0.540702 
        5.37218         10.0431        0.536531 
        5.38789         9.96867         0.53241 
        5.40357         9.89725        0.528337 
        5.41929         9.84239        0.524297 
        5.43502          9.7749        0.520299 
         5.4507         9.69419        0.516351 
        5.46639         9.60988        0.512444 
        5.48212         9.57216        0.508567 
        5.49786         9.48296        0.504726 
        5.51353         9.41873        0.500943 
        5.52921         9.36304        0.497194 
        5.54495          9.2861        0.493473 
        5.56066         9.21079        0.489793 
        5.57637         9.16106        0.486151 
        5.59207         9.06284        0.482549 
        5.60778         9.03193        0.478982 
        5.62346         8.96254        0.475455 
        5.63916         8.88829        0.471961 
        5.65487         8.84943        0.468499 
         5.6706         8.76169        0.465067 
        5.68633         8.69849        0.461669 
        5.70203         8.65395        0.458311 
        5.71773         8.58187        0.454987 
        5.73344         8.52431        0.451693 
        5.74916         8.46898        0.448429 
        5.76486         8.39712        0.445201 
        5.78054         8.35501         0.44201 
        5.79626         8.28347        0.438841 
          5.812         8.21585          0.4357 
         5.8277         8.17006        0.432598 
        5.84339         8.08999        0.429526 
        5.85911         8.07251        0.426477 
        5.87484         7.99626        0.423459 
        5.89053         7.95166        0.420475 
        5.90623         7.89416        0.417519 
        5.92195         7.83326        0.414586 
        5.93767         7.78856        0.411682 
        5.95336         7.72819         0.40881 
        5.96905         7.68494        0.405967 
        5.98476         7.62891        0.403146 
        6.00048         7.58591        0.400352 
        6.01617         7.52334        0.397587 
        6.03185         7.46942        0.394851 
        6.04756         7.42759        0.392134 
        6.06331         7.37857        0.389437 
        6.07903         7.32918        0.386771 
        6.09473         7.27962        0.384132 
        6.11044         7.23069        0.381515 
        6.12616         7.18291        0.378922 
        6.14186         7.13913        0.376356 
        6.15755         7.09464        0.373814 
        6.17326         7.05583        0.371293 
        6.18898         6.98736        0.368793 
        6.20467         6.94953        0.366322 
        6.22036         6.89273        0.363872 
         6.2361         6.85341        0.361438 
         6.2518         6.80895        0.359031 
        6.26748         6.77754         0.35665 
        6.28319         6.71986        0.354284 
        6.29893         6.67636        0.351937 
        6.31463         6.62918        0.349616 
        6.33033         6.59551        0.347316 
        6.34604         6.54949        0.345035 
        6.36177         6.49994        0.342771 
        6.37747          6.4693        0.340533 
