# k  (h/Mpc)    Pcb(k)  (Mpc/h)^3    Pcb_linear(k) (Mpc/h)^3   ShotnoiseSubtracted = true
      0.0200456         25359.6         25859.7 
      0.0350414         18441.6         17790.3 
      0.0492313           12314         12584.1 
      0.0637834         10100.5         10674.4 
      0.0800726         7929.39         8490.04 
       0.096163         6254.76         5953.09 
       0.111083         5073.64         4734.85 
       0.126058          4255.7         4313.93 
       0.142273         3737.52          3652.7 
       0.158546         3030.27         2817.35 
        0.17375          2724.1         2380.63 
       0.188953         2610.86         2198.04 
       0.204907         2244.75         1947.96 
       0.220756         2033.42         1625.81 
        0.23588         1813.92         1415.32 
         0.2514         1650.12         1301.96 
       0.267535         1589.72         1182.18 
       0.283568         1422.79         1035.66 
       0.299022         1354.04         922.575 
       0.314451         1415.63         849.436 
       0.330372         1260.46          781.93 
       0.346141         1157.73         708.194 
       0.361624         1110.88         643.573 
       0.377134         1069.88         594.598 
       0.392932         1014.16         551.901 
       0.408854          977.76          508.77 
       0.424564         957.052         469.084 
       0.440253         891.841         435.958 
       0.455999         852.281         407.163 
       0.471626         867.524         380.103 
        0.48727         818.589          354.67 
       0.502856         793.659         332.088 
       0.518488          764.36         312.038 
       0.534347         739.698         293.199 
       0.550082          705.33         275.736 
       0.565732         693.464         259.814 
       0.581496         679.767          245.28 
       0.597222         667.725         231.892 
       0.612804          650.29         219.535 
       0.628434         624.877         208.013 
       0.644267         608.524          197.25 
       0.660051         602.458         187.326 
       0.675724         590.493         178.148 
       0.691403         572.078         169.579 
       0.707174          556.88         161.528 
       0.722871         554.605         154.034 
        0.73838         538.613         147.099 
       0.754018         528.178         140.542 
       0.769845         520.987         134.316 
        0.78569         509.916         128.465 
       0.801365         494.012         123.025 
       0.817031         489.055         117.907 
       0.832809         481.457         113.053 
       0.848511         474.489         108.499 
       0.864097         464.011          104.23 
       0.879701         464.914         100.191 
       0.895507         446.764          96.321 
       0.911279         441.561         92.6667 
        0.92691         436.068          89.235 
       0.942635          430.09         85.9607 
       0.958396         418.067          82.846 
       0.974128         411.679         79.8935 
       0.989692         402.037         77.1159 
        1.00528         396.574         74.4681 
        1.02113         390.774         71.9046 
        1.03692         385.391         69.4729 
        1.05264         380.716         67.1662 
        1.06832         371.529         64.9693 
        1.08405         370.984          62.866 
        1.09979         362.422         60.8558 
        1.11537         353.634         58.9546 
        1.13105         349.685         57.1243 
        1.14679         343.804         55.3656 
        1.16256         342.386         53.6785 
        1.17828         336.736         52.0682 
        1.19395         328.969         50.5302 
         1.2097         325.743         49.0473 
        1.22537         321.831         47.6318 
          1.241         314.383         46.2772 
        1.25666         311.697         44.9726 
        1.27241         308.461         43.7128 
        1.28819         300.103         42.4998 
        1.30392         300.376         41.3369 
        1.31957         292.859         40.2232 
        1.33529         288.326          39.147 
        1.35108         287.673         38.1064 
        1.36674         280.108         37.1116 
         1.3824         276.418         36.1536 
        1.39811         273.094         35.2266 
        1.41389         268.261          34.329 
        1.42964         264.347         33.4646 
        1.44531         261.765         32.6345 
        1.46101         256.509         31.8312 
        1.47667         254.223         31.0576 
        1.49229          251.21         30.3121 
        1.50793         246.935         29.5905 
        1.52367         243.078          28.888 
        1.53953         240.022         28.2039 
        1.55526         236.522         27.5477 
        1.57092         235.027         26.9153 
        1.58662         229.847         26.3014 
        1.60235         227.126         25.7058 
        1.61809         225.175         25.1285 
        1.63369          220.98         24.5742 
        1.64941         218.173          24.033 
        1.66519         215.185         23.5062 
        1.68085         211.705         22.9991 
        1.69652         209.249         22.5071 
        1.71228         206.303         22.0268 
        1.72806         204.125         21.5602 
        1.74368         201.417         21.1121 
        1.75933         199.872         20.6759 
        1.77505         197.156         20.2501 
        1.79081         193.782         19.8357 
         1.8065         193.234         19.4348 
        1.82218         187.891         19.0455 
        1.83797         186.597         18.6642 
        1.85367         183.951         18.2957 
        1.86928         181.294         17.9394 
        1.88497         179.603         17.5907 
        1.90073         178.116         17.2501 
        1.91647         175.097          16.919 
        1.93218         171.805         16.5973 
        1.94787         170.079         16.2846 
        1.96363         168.898         15.9788 
        1.97935         167.177         15.6815 
        1.99499         164.522         15.3935 
        2.01064         161.293         15.1125 
         2.0264         160.863         14.8368 
        2.04216         157.874         14.5681 
        2.05781         155.481         14.3079 
        2.07353          154.89         14.0532 
        2.08928         152.731         13.8042 
        2.10499         150.883         13.5619 
        2.12065         149.505         13.3262 
        2.13633         147.356          13.096 
        2.15211         145.093         12.8699 
        2.16785         143.764         12.6497 
        2.18349         142.281         12.4361 
        2.19916         140.571         12.2271 
        2.21489         138.051         12.0222 
        2.23063         136.851         11.8219 
         2.2463         135.003         11.6271 
        2.26194         134.037         11.4373 
        2.27765         131.782         11.2507 
        2.29341         130.824         11.0679 
        2.30914         129.027         10.8896 
        2.32486         127.534         10.7153 
        2.34061         125.719         10.5446 
        2.35635         124.541         10.3778 
        2.37203         122.792         10.2152 
        2.38768         121.772         10.0564 
        2.40339         119.918         9.90054 
        2.41914          118.61         9.74762 
        2.43483         117.534          9.5985 
         2.4505         116.288         9.45277 
        2.46622          114.36          9.3096 
        2.48195          113.18         9.16942 
        2.49759         111.534          9.0329 
        2.51328         110.535         8.89883 
        2.52906          109.61         8.76666 
        2.54479         108.245         8.63769 
        2.56049           106.8         8.51159 
        2.57618         105.718         8.38815 
        2.59189         104.911         8.26698 
        2.60758         103.204         8.14843 
        2.62325         102.423         8.03237 
        2.63898         101.103         7.91818 
        2.65468         100.439         7.80648 
        2.67044         99.3479         7.69647 
        2.68618         97.8687         7.58886 
        2.70184         96.7871         7.48375 
        2.71755         95.9957         7.38039 
        2.73329          94.534         7.27884 
        2.74897         93.7331         7.17956 
        2.76462         93.2221         7.08236 
        2.78034         91.9114         6.98657 
        2.79607         90.6062         6.89248 
        2.81179         89.7295         6.80024 
        2.82749         89.0772         6.70981 
        2.84321         87.7308         6.62094 
        2.85893         86.3951         6.53372 
        2.87462         86.0623         6.44823 
        2.89033         84.9479         6.36421 
        2.90605         84.0213         6.28163 
        2.92176         83.4491         6.20057 
        2.93747         82.5157         6.12099 
        2.95318         81.2453         6.04281 
        2.96891         80.7902         5.96597 
        2.98456         79.4481         5.89081 
        3.00023         78.7488         5.81686 
        3.01596         78.2639         5.74395 
        3.03164         77.1583         5.67252 
        3.04738         76.8473          5.6021 
         3.0631         75.6922         5.53291 
        3.07883         74.8842          5.4649 
        3.09456         73.9998         5.39806 
        3.11026         73.7419         5.33244 
        3.12596         72.6283         5.26793 
        3.14163         72.0248         5.20465 
        3.15734         70.9293         5.14227 
        3.17308         70.6264         5.08077 
        3.18879         69.8162         5.02046 
        3.20447         69.2827         4.96122 
         3.2202         68.1582         4.90276 
         3.2359          67.547         4.84535 
        3.25157         67.0739         4.78901 
        3.26729         66.1584          4.7334 
        3.28304         65.5019         4.67858 
        3.29877         65.0539          4.6247 
        3.31446         64.0833          4.5718 
        3.33014         63.5927         4.51977 
        3.34585         62.9733         4.46849 
        3.36158         62.4722         4.41793 
        3.37727         61.9227         4.36832 
        3.39294         61.2219         4.31952 
        3.40867          60.779          4.2713 
        3.42439         59.9956         4.22385 
        3.44008         59.4734         4.17721 
        3.45578         58.8315         4.13126 
        3.47153         58.3121          4.0859 
        3.48724         57.6954          4.0413 
        3.50292         57.3185         3.99749 
        3.51859         56.7285         3.95434 
        3.53431         56.1418         3.91171 
        3.55007         55.4423         3.86961 
        3.56577         54.9185          3.8283 
        3.58146         54.3659         3.78761 
        3.59719         53.9512         3.74743 
        3.61292         53.2966         3.70784 
        3.62859         53.0132         3.66899 
        3.64429         52.4471         3.63062 
        3.66003         52.0043         3.59269 
        3.67578         51.4594         3.55532 
        3.69146          51.034         3.51862 
        3.70712         50.5449         3.48252 
        3.72284         50.0647         3.44679 
        3.73853         49.6239         3.41163 
        3.75422         49.1882         3.37695 
        3.76993         48.7492         3.34273 
        3.78564         48.2609         3.30899 
        3.80137         47.8717         3.27568 
        3.81707         47.3319          3.2429 
        3.83279         46.8877         3.21054 
        3.84853         46.5213         3.17857 
        3.86424         46.1108         3.14711 
        3.87992         45.5466         3.11613 
        3.89561         45.3178         3.08556 
        3.91134         44.8488         3.05534 
        3.92704         44.4651         3.02557 
        3.94273         44.1032         2.99623 
        3.95845         43.6386         2.96722 
        3.97418         43.2369          2.9386 
        3.98988         42.9064          2.9104 
        4.00554         42.4411         2.88264 
        4.02125         42.1167         2.85517 
        4.03698         41.7615         2.82802 
        4.05268         41.4045         2.80129 
        4.06839         41.0019         2.77489 
         4.0841         40.7374         2.74884 
        4.09983         40.3506         2.72309 
        4.11555         40.0558         2.69768 
        4.13124         39.5299         2.67267 
        4.14693         39.2832         2.64796 
        4.16266         38.9769          2.6235 
        4.17839         38.5588         2.59937 
        4.19408          38.258         2.57561 
        4.20977         37.9556         2.55213 
        4.22551         37.6262         2.52889 
        4.24123         37.2753         2.50597 
        4.25691         36.9518         2.48339 
        4.27259         36.6015         2.46109 
        4.28831         36.4398         2.43902 
        4.30404         36.0581          2.4172 
        4.31974         35.7635          2.3957 
        4.33543         35.4387         2.37448 
        4.35116         35.1184         2.35346 
        4.36688         34.8247         2.33271 
        4.38255         34.6193         2.31229 
        4.39825         34.3532         2.29207 
        4.41398          34.032         2.27205 
         4.4297         33.6994          2.2523 
        4.44541         33.4773         2.23278 
        4.46111         33.1089         2.21352 
        4.47683         32.9765         2.19447 
        4.49251         32.6901         2.17568 
        4.50819         32.4048         2.15712 
         4.5239         32.0734         2.13876 
        4.53962         31.8042         2.12058 
        4.55535         31.5936         2.10261 
        4.57106         31.2065         2.08488 
        4.58678         31.0357         2.06735 
         4.6025         30.8051         2.05001 
        4.61821         30.5532         2.03288 
        4.63391         30.3809         2.01597 
         4.6496         30.0542         1.99927 
        4.66532         29.8047         1.98272 
        4.68103         29.5642         1.96637 
        4.69673         29.3945         1.95023 
        4.71241         29.1001         1.93428 
        4.72811         28.9389         1.91849 
        4.74384         28.7211         1.90285 
        4.75955         28.5489         1.88742 
        4.77525         28.2636         1.87216 
        4.79096          28.007         1.85706 
        4.80669         27.7872         1.84211 
         4.8224         27.5556         1.82735 
        4.83809         27.3007         1.81277 
        4.85379         27.1333         1.79834 
         4.8695         26.8945         1.78406 
        4.88521         26.7285         1.76994 
        4.90093         26.4725         1.75597 
        4.91663         26.3123         1.74216 
        4.93234         26.0774         1.72849 
        4.94807         25.8736         1.71496 
        4.96377         25.6782         1.70161 
        4.97943         25.5092         1.68842 
        4.99514          25.337         1.67534 
        5.01086         25.1273         1.66239 
        5.02654         24.9366         1.64961 
        5.04227         24.6647         1.63693 
          5.058         24.4639         1.62437 
        5.07371         24.3661         1.61198 
        5.08942          24.149         1.59971 
        5.10513         23.9807         1.58757 
        5.12084         23.7896         1.57555 
        5.13656         23.6357         1.56366 
        5.15225         23.4652         1.55191 
        5.16796         23.2743         1.54027 
        5.18369         23.1227         1.52873 
         5.1994         22.8564         1.51734 
        5.21509         22.7538         1.50607 
        5.23079         22.6254         1.49491 
        5.24649         22.4458         1.48387 
        5.26217         22.2303         1.47294 
        5.27788         22.1035         1.46212 
        5.29359         21.8925          1.4514 
        5.30933         21.7187         1.44077 
        5.32504         21.5757         1.43027 
        5.34073         21.4121         1.41989 
        5.35646         21.2666         1.40959 
        5.37218         21.1087         1.39939 
        5.38789         20.9805         1.38931 
        5.40357         20.8392         1.37934 
        5.41929         20.6267         1.36945 
        5.43502         20.5145         1.35965 
         5.4507         20.3637         1.34997 
        5.46639         20.2206         1.34039 
        5.48212         20.0771         1.33088 
        5.49786         19.9181         1.32145 
        5.51353         19.7426         1.31216 
        5.52921          19.614         1.30295 
        5.54495         19.4961          1.2938 
        5.56066         19.3239         1.28475 
        5.57637         19.1823         1.27579 
        5.59207         19.0433         1.26692 
        5.60778         18.9924         1.25814 
        5.62346         18.7812         1.24945 
        5.63916         18.6776         1.24084 
        5.65487         18.5153          1.2323 
         5.6706         18.4118         1.22383 
        5.68633         18.3046         1.21544 
        5.70203         18.2019         1.20715 
        5.71773         18.0371         1.19894 
        5.73344          17.906          1.1908 
        5.74916         17.7568         1.18273 
        5.76486         17.6303         1.17474 
        5.78054         17.4691         1.16684 
        5.79626         17.4427           1.159 
          5.812         17.2939         1.15121 
         5.8277         17.1174         1.14353 
        5.84339         17.0527         1.13591 
        5.85911         16.9256         1.12835 
        5.87484         16.7857         1.12086 
        5.89053         16.6715         1.11345 
        5.90623          16.565         1.10611 
        5.92195         16.4028         1.09882 
        5.93767         16.3391          1.0916 
        5.95336         16.2332         1.08446 
        5.96905         16.1163         1.07738 
        5.98476          16.015         1.07036 
        6.00048          15.881          1.0634 
        6.01617         15.8003         1.05651 
        6.03185         15.6698         1.04969 
        6.04756         15.5813         1.04292 
        6.06331         15.4819         1.03619 
        6.07903          15.323         1.02954 
        6.09473         15.2392         1.02295 
        6.11044         15.1689         1.01641 
        6.12616         15.0666         1.00993 
        6.14186         14.9504         1.00352 
        6.15755          14.858        0.997159 
        6.17326         14.7536        0.990851 
        6.18898          14.636        0.984595 
        6.20467         14.5287        0.978405 
        6.22036         14.4339        0.972269 
         6.2361          14.344         0.96617 
         6.2518         14.2304        0.960133 
        6.26748         14.1695        0.954161 
        6.28319         14.0775        0.948225 
        6.29893         13.9833        0.942334 
        6.31463         13.8799        0.936503 
        6.33033         13.7758        0.930724 
        6.34604         13.6954         0.92499 
        6.36177         13.6119          0.9193 
        6.37747         13.5377        0.913668 
