# k  (h/Mpc)    Pcb(k)  (Mpc/h)^3    Pcb_linear(k) (Mpc/h)^3   ShotnoiseSubtracted = true
      0.0200456         20243.3         20616.9 
      0.0350414         14671.9         14183.5 
      0.0492313         9869.59         10032.8 
      0.0637834         8104.16         8510.25 
      0.0800726         6372.65         6768.76 
       0.096163         4969.73         4746.16 
       0.111083         4030.13          3774.9 
       0.126058         3391.23         3439.32 
       0.142273         2959.55         2912.15 
       0.158546         2398.92         2246.16 
        0.17375          2133.8         1897.98 
       0.188953         2027.08         1752.41 
       0.204907         1739.64         1553.03 
       0.220756         1566.34          1296.2 
        0.23588         1396.14         1128.38 
         0.2514         1261.13            1038 
       0.267535         1221.63         942.503 
       0.283568         1081.52         825.694 
       0.299022         1031.59         735.532 
       0.314451         1071.08         677.221 
       0.330372         935.405         623.401 
       0.346141         860.479         564.615 
       0.361624         825.619         513.095 
       0.377134         788.773         474.049 
       0.392932         754.426         440.009 
       0.408854         722.423         405.622 
       0.424564         704.558         373.982 
       0.440253         648.518         347.572 
       0.455999         620.158         324.615 
       0.471626         632.765         303.041 
        0.48727         596.182         282.764 
       0.502856         565.483         264.761 
       0.518488         553.967         248.775 
       0.534347         526.925         233.755 
       0.550082         503.068         219.833 
       0.565732         497.971         207.139 
       0.581496         486.552         195.552 
       0.597222         473.963         184.878 
       0.612804         462.607         175.027 
       0.628434          444.16          165.84 
       0.644267         429.828         157.259 
       0.660051         424.661         149.347 
       0.675724         415.627          142.03 
       0.691403         406.755         135.198 
       0.707174         392.105          128.78 
       0.722871         386.724         122.805 
        0.73838         379.674         117.276 
       0.754018         367.943         112.048 
       0.769845         365.276         107.085 
        0.78569         357.231          102.42 
       0.801365         345.131         98.0825 
       0.817031          343.01         94.0028 
       0.832809         336.686         90.1328 
       0.848511         330.252         86.5016 
       0.864097         321.342         83.0985 
       0.879701         319.741         79.8781 
       0.895507         309.354         76.7928 
       0.911279         303.442         73.8794 
        0.92691         300.931         71.1435 
       0.942635         297.612          68.533 
       0.958396          288.33         66.0498 
       0.974128         285.879         63.6958 
       0.989692         275.474         61.4814 
        1.00528         274.802         59.3704 
        1.02113         271.067         57.3267 
        1.03692         265.461         55.3879 
        1.05264         261.118         53.5489 
        1.06832         258.722         51.7974 
        1.08405         253.759         50.1205 
        1.09979         250.241         48.5179 
        1.11537         245.067         47.0021 
        1.13105         240.991         45.5429 
        1.14679         238.879         44.1408 
        1.16256         236.184         42.7957 
        1.17828         232.716         41.5119 
        1.19395         226.687         40.2857 
         1.2097         226.597         39.1034 
        1.22537         223.615         37.9749 
          1.241         217.033          36.895 
        1.25666         215.901         35.8549 
        1.27241         212.368         34.8505 
        1.28819         209.036         33.8834 
        1.30392         207.186         32.9562 
        1.31957         201.674         32.0684 
        1.33529         198.723         31.2103 
        1.35108         198.216         30.3807 
        1.36674         192.776         29.5876 
         1.3824         191.803         28.8238 
        1.39811         190.066         28.0848 
        1.41389         185.092         27.3692 
        1.42964         182.869           26.68 
        1.44531         181.616         26.0182 
        1.46101         178.058         25.3777 
        1.47667         176.487          24.761 
        1.49229         173.971         24.1666 
        1.50793         170.969         23.5913 
        1.52367         169.295         23.0313 
        1.53953         165.538         22.4858 
        1.55526         164.728         21.9627 
        1.57092          163.45         21.4585 
        1.58662         159.312         20.9691 
        1.60235         158.041         20.4942 
        1.61809         155.466         20.0339 
        1.63369         152.955         19.5921 
        1.64941         151.672         19.1605 
        1.66519         149.726         18.7405 
        1.68085         147.297         18.3363 
        1.69652         145.579          17.944 
        1.71228         143.349         17.5611 
        1.72806         142.517         17.1891 
        1.74368         140.483         16.8318 
        1.75933         139.223         16.4841 
        1.77505         137.252         16.1446 
        1.79081         134.451         15.8142 
         1.8065         132.792         15.4946 
        1.82218         130.855         15.1842 
        1.83797         130.117         14.8803 
        1.85367         128.411         14.5864 
        1.86928         127.073         14.3023 
        1.88497         125.297         14.0244 
        1.90073         124.269         13.7528 
        1.91647         122.075         13.4888 
        1.93218         120.803         13.2324 
        1.94787          118.79          12.983 
        1.96363         118.171         12.7392 
        1.97935         116.783         12.5022 
        1.99499          115.58         12.2727 
        2.01064         113.088         12.0486 
         2.0264         112.348         11.8288 
        2.04216         110.588         11.6146 
        2.05781         109.424         11.4071 
        2.07353         108.153          11.204 
        2.08928         106.721         11.0055 
        2.10499         105.819         10.8124 
        2.12065         104.652         10.6245 
        2.13633          103.81         10.4409 
        2.15211         102.033         10.2606 
        2.16785         100.691         10.0851 
        2.18349          99.193         9.91481 
        2.19916         98.3616         9.74815 
        2.21489         97.5665          9.5848 
        2.23063         95.8502         9.42513 
         2.2463         94.9256         9.26984 
        2.26194         93.9794         9.11848 
        2.27765         92.5528         8.96976 
        2.29341         91.6948           8.824 
        2.30914         90.5081         8.68181 
        2.32486         89.0429         8.54286 
        2.34061          88.406         8.40676 
        2.35635         87.3485         8.27377 
        2.37203          85.973         8.14415 
        2.38768         85.1833          8.0176 
        2.40339         84.5702         7.89331 
        2.41914         83.1562         7.77138 
        2.43483         82.4876         7.65249 
         2.4505         81.4244         7.53631 
        2.46622          80.632         7.42217 
        2.48195         79.6948         7.31041 
        2.49759         78.6162         7.20157 
        2.51328         77.6532         7.09468 
        2.52906         76.4117          6.9893 
        2.54479         75.8933         6.88648 
        2.56049         74.7989         6.78595 
        2.57618         74.0635         6.68753 
        2.59189         73.4662         6.59093 
        2.60758         72.0717         6.49642 
        2.62325         71.7134         6.40388 
        2.63898         70.9789         6.31285 
        2.65468         70.2049         6.22379 
        2.67044         69.2557         6.13609 
        2.68618         68.7427         6.05029 
        2.70184         67.7288         5.96649 
        2.71755         67.0061         5.88409 
        2.73329         65.9761         5.80313 
        2.74897         65.6392         5.72397 
        2.76462         64.8514         5.64648 
        2.78034          64.104         5.57011 
        2.79607         63.5009          5.4951 
        2.81179         62.9587         5.42156 
        2.82749         62.1994         5.34946 
        2.84321         61.5876         5.27861 
        2.85893         60.8496         5.20907 
        2.87462         60.1994         5.14091 
        2.89033         59.6048         5.07393 
        2.90605         58.9467         5.00809 
        2.92176         58.3254         4.94346 
        2.93747         57.7925         4.88002 
        2.95318         57.0395         4.81769 
        2.96891         56.4276         4.75642 
        2.98456         55.7885         4.69651 
        3.00023         55.2348         4.63755 
        3.01596         54.6834         4.57942 
        3.03164         54.1829         4.52247 
        3.04738         53.6487         4.46633 
         3.0631         52.8306         4.41117 
        3.07883         52.2645         4.35695 
        3.09456         51.7638         4.30365 
        3.11026         51.2597         4.25134 
        3.12596         50.7941         4.19991 
        3.14163         50.1057         4.14946 
        3.15734         49.6512         4.09973 
        3.17308         49.1273         4.05069 
        3.18879         48.6825         4.00261 
        3.20447         48.3663         3.95538 
         3.2202         47.5849         3.90877 
         3.2359         47.1853           3.863 
        3.25157         46.8479         3.81808 
        3.26729         46.2114         3.77375 
        3.28304         45.8954         3.73004 
        3.29877         45.2989         3.68709 
        3.31446         44.9113         3.64491 
        3.33014           44.47         3.60343 
        3.34585         43.9162         3.56254 
        3.36158         43.5224         3.52224 
        3.37727         43.1197         3.48268 
        3.39294         42.7662         3.44378 
        3.40867         42.3715         3.40533 
        3.42439         41.9299          3.3675 
        3.44008         41.3758         3.33032 
        3.45578         41.1191         3.29369 
        3.47153         40.5677         3.25752 
        3.48724          40.177         3.22197 
        3.50292          39.852         3.18703 
        3.51859          39.502         3.15264 
        3.53431         39.1368         3.11865 
        3.55007         38.6496         3.08508 
        3.56577         38.4831         3.05215 
        3.58146         37.9778         3.01971 
        3.59719         37.6136         2.98767 
        3.61292         37.3117         2.95611 
        3.62859         36.9594         2.92514 
        3.64429         36.6696         2.89455 
        3.66003         36.3317          2.8643 
        3.67578         36.0028         2.83451 
        3.69146         35.7004         2.80525 
        3.70712         35.2235         2.77647 
        3.72284          34.927         2.74798 
        3.73853         34.7479         2.71995 
        3.75422         34.3243          2.6923 
        3.76993         34.0273         2.66502 
        3.78564         33.7891         2.63813 
        3.80137         33.3988         2.61157 
        3.81707          33.133         2.58543 
        3.83279         32.7741         2.55963 
        3.84853         32.4411         2.53415 
        3.86424         32.1702         2.50907 
        3.87992         31.9821         2.48436 
        3.89561          31.682         2.45999 
        3.91134         31.3557          2.4359 
        3.92704         31.0358         2.41217 
        3.94273         30.7663         2.38877 
        3.95845         30.5732         2.36565 
        3.97418         30.1319         2.34283 
        3.98988         29.8958         2.32034 
        4.00554         29.6662         2.29821 
        4.02125         29.4699         2.27632 
        4.03698         29.0727         2.25467 
        4.05268         28.8734         2.23336 
        4.06839         28.6112         2.21231 
         4.0841         28.4095         2.19154 
        4.09983         28.0895         2.17101 
        4.11555         27.7419         2.15075 
        4.13124         27.6852         2.13081 
        4.14693         27.4589         2.11111 
        4.16266         27.1473         2.09161 
        4.17839          26.978         2.07238 
        4.19408         26.6922         2.05343 
        4.20977         26.4511         2.03471 
        4.22551         26.2409         2.01618 
        4.24123         26.0346         1.99791 
        4.25691         25.7946         1.97991 
        4.27259         25.6569         1.96213 
        4.28831         25.3732         1.94453 
        4.30404         25.2063         1.92714 
        4.31974          24.911            1.91 
        4.33543         24.7411         1.89308 
        4.35116         24.5091         1.87632 
        4.36688         24.3601         1.85978 
        4.38255         24.1358         1.84349 
        4.39825         23.8848         1.82737 
        4.41398         23.7106         1.81141 
         4.4297         23.5018         1.79567 
        4.44541         23.3214         1.78011 
        4.46111         23.0942         1.76475 
        4.47683         22.9057         1.74956 
        4.49251         22.7203         1.73458 
        4.50819         22.5417         1.71979 
         4.5239         22.3844         1.70514 
        4.53962         22.1827         1.69065 
        4.55535         21.9703         1.67633 
        4.57106         21.8347         1.66219 
        4.58678         21.6399         1.64821 
         4.6025         21.4059         1.63439 
        4.61821         21.2888         1.62074 
        4.63391         21.0712         1.60726 
         4.6496         20.9569         1.59393 
        4.66532         20.7723         1.58074 
        4.68103         20.5396         1.56771 
        4.69673         20.4612         1.55484 
        4.71241         20.3367         1.54212 
        4.72811         20.1114         1.52953 
        4.74384         19.9308         1.51707 
        4.75955           19.85         1.50476 
        4.77525         19.6457          1.4926 
        4.79096         19.5177         1.48056 
        4.80669         19.2962         1.46864 
         4.8224         19.1635         1.45687 
        4.83809         19.0177         1.44525 
        4.85379         18.8657         1.43375 
         4.8695          18.763         1.42236 
        4.88521         18.5681          1.4111 
        4.90093         18.4271         1.39996 
        4.91663         18.2874         1.38896 
        4.93234           18.11         1.37806 
        4.94807          17.984         1.36727 
        4.96377         17.8914         1.35662 
        4.97943         17.7198         1.34611 
        4.99514         17.5784         1.33568 
        5.01086         17.4237         1.32535 
        5.02654         17.3214         1.31517 
        5.04227          17.175         1.30505 
          5.058          17.034         1.29505 
        5.07371         16.9556         1.28516 
        5.08942         16.8075         1.27538 
        5.10513         16.6686         1.26571 
        5.12084         16.5647         1.25612 
        5.13656         16.3939         1.24664 
        5.15225         16.2816         1.23728 
        5.16796         16.1602         1.22799 
        5.18369         16.0414          1.2188 
         5.1994         15.9623         1.20971 
        5.21509         15.8276         1.20073 
        5.23079         15.7094         1.19183 
        5.24649         15.5926         1.18303 
        5.26217         15.4517         1.17432 
        5.27788         15.3507         1.16569 
        5.29359         15.2328         1.15714 
        5.30933         15.1278         1.14867 
        5.32504         15.0032          1.1403 
        5.34073          14.925         1.13202 
        5.35646         14.8036         1.12381 
        5.37218          14.667         1.11568 
        5.38789         14.5896         1.10764 
        5.40357         14.4745         1.09969 
        5.41929         14.3687          1.0918 
        5.43502         14.2475         1.08399 
         5.4507         14.1709         1.07628 
        5.46639         14.0653         1.06864 
        5.48212         13.9521         1.06106 
        5.49786          13.858         1.05354 
        5.51353         13.7363         1.04613 
        5.52921         13.6501         1.03879 
        5.54495         13.5587          1.0315 
        5.56066         13.4597         1.02428 
        5.57637         13.3659         1.01714 
        5.59207         13.2742         1.01007 
        5.60778         13.1629         1.00306 
        5.62346         13.1049        0.996137 
        5.63916         13.0053        0.989269 
        5.65487         12.8678        0.982463 
         5.6706         12.8132        0.975713 
        5.68633         12.7229        0.969025 
        5.70203         12.6241        0.962414 
        5.71773         12.5406        0.955866 
        5.73344         12.4636        0.949376 
        5.74916         12.3666        0.942941 
        5.76486         12.2868        0.936575 
        5.78054         12.2051        0.930278 
        5.79626         12.1107        0.924021 
          5.812         12.0262        0.917817 
         5.8277         11.9229        0.911688 
        5.84339         11.8615        0.905615 
        5.85911         11.7769        0.899587 
        5.87484         11.6882        0.893615 
        5.89053         11.5913        0.887709 
        5.90623         11.5315        0.881854 
        5.92195         11.4422        0.876043 
        5.93767          11.349        0.870288 
        5.95336         11.2984        0.864594 
        5.96905         11.2107        0.858954 
        5.98476         11.1402        0.853356 
        6.00048         11.0579        0.847807 
        6.01617         10.9928        0.842315 
        6.03185         10.9149        0.836879 
        6.04756         10.8472        0.831478 
        6.06331         10.7548        0.826114 
        6.07903         10.6817        0.820809 
        6.09473         10.6181        0.815555 
        6.11044         10.5458        0.810344 
        6.12616         10.4685        0.805179 
        6.14186         10.4039        0.800064 
        6.15755         10.3425        0.794995 
        6.17326         10.2549        0.789966 
        6.18898         10.2046        0.784978 
        6.20467         10.1335        0.780043 
        6.22036         10.0534        0.775151 
         6.2361         10.0066        0.770288 
         6.2518         9.94069        0.765475 
        6.26748         9.85419        0.760714 
        6.28319          9.8194        0.755981 
        6.29893           9.751        0.751285 
        6.31463         9.67807        0.746636 
        6.33033         9.63482        0.742029 
        6.34604         9.57268        0.737457 
        6.36177          9.4922        0.732921 
        6.37747         9.43659        0.728431 
