# k  (h/Mpc)    Pcb(k)  (Mpc/h)^3    Pcb_linear(k) (Mpc/h)^3   ShotnoiseSubtracted = true
      0.0200456         558.043         566.439 
      0.0350414          389.45         389.684 
      0.0492313          277.05         275.647 
      0.0637834         235.011         233.815 
      0.0800726         186.537         185.968 
       0.096163         130.549         130.398 
       0.111083         103.471         103.713 
       0.126058         94.5477         94.4934 
       0.142273         80.3505         80.0098 
       0.158546         62.4358         61.7119 
        0.17375         52.1037         52.1459 
       0.188953         48.3071         48.1464 
       0.204907         43.6324         42.6687 
       0.220756         36.1411         35.6123 
        0.23588         31.4533         31.0016 
         0.2514         28.6571         28.5186 
       0.267535         26.1074         25.8948 
       0.283568         23.0134         22.6855 
       0.299022         20.6309         20.2083 
       0.314451         18.6663         18.6063 
       0.330372         17.3126         17.1276 
       0.346141         15.7039         15.5125 
       0.361624         14.3622          14.097 
       0.377134         13.3681         13.0242 
       0.392932         12.0496          12.089 
       0.408854         11.4149         11.1442 
       0.424564         10.4899         10.2749 
       0.440253         9.73883         9.54934 
       0.455999         9.16055         8.91862 
       0.471626          8.5992         8.32589 
        0.48727         7.99248         7.76879 
       0.502856         7.45048         7.27415 
       0.518488         7.10618         6.83497 
       0.534347         6.75129         6.42231 
       0.550082         6.20368          6.0398 
       0.565732         5.74816         5.69104 
       0.581496         5.57684         5.37268 
       0.597222         5.31054         5.07943 
       0.612804          4.9736         4.80876 
       0.628434         4.78009         4.55636 
       0.644267         4.52368         4.32062 
       0.660051         4.27234         4.10324 
       0.675724         4.07358          3.9022 
       0.691403         3.91444          3.7145 
       0.707174         3.70599         3.53815 
       0.722871         3.53249         3.37401 
        0.73838         3.39848          3.2221 
       0.754018         3.28124         3.07847 
       0.769845         3.10974         2.94209 
        0.78569         2.98914         2.81394 
       0.801365         2.85454         2.69476 
       0.817031         2.75251         2.58267 
       0.832809         2.64158         2.47635 
       0.848511         2.51182         2.37658 
       0.864097         2.40694         2.28309 
       0.879701         2.32077         2.19461 
       0.895507         2.23765         2.10984 
       0.911279         2.18142          2.0298 
        0.92691         2.09426         1.95463 
       0.942635         2.00996         1.88291 
       0.958396         1.93237         1.81468 
       0.974128         1.86998         1.75001 
       0.989692          1.8217         1.68917 
        1.00528         1.74783         1.63117 
        1.02113         1.67815         1.57502 
        1.03692         1.64432         1.52175 
        1.05264         1.58428         1.47123 
        1.06832         1.54077         1.42311 
        1.08405         1.46883         1.37703 
        1.09979          1.4325           1.333 
        1.11537         1.39658         1.29136 
        1.13105         1.35828         1.25127 
        1.14679         1.32216         1.21274 
        1.16256         1.26894         1.17579 
        1.17828         1.23699         1.14052 
        1.19395          1.2001         1.10683 
         1.2097         1.15114         1.07435 
        1.22537         1.13154         1.04334 
          1.241         1.10186         1.01367 
        1.25666         1.08608        0.985093 
        1.27241          1.0372        0.957498 
        1.28819         1.01057        0.930927 
        1.30392        0.991383        0.905455 
        1.31957        0.965534        0.881061 
        1.33529        0.936144        0.857487 
        1.35108        0.911076        0.834694 
        1.36674        0.879623        0.812902 
         1.3824        0.867317        0.791918 
        1.39811        0.842586        0.771614 
        1.41389        0.825204        0.751953 
        1.42964        0.806477        0.733018 
        1.44531         0.78126        0.714836 
        1.46101         0.76837        0.697239 
        1.47667        0.738225        0.680294 
        1.49229        0.731498        0.663965 
        1.50793        0.709734        0.648159 
        1.52367        0.696631        0.632772 
        1.53953        0.675934        0.617787 
        1.55526        0.662852        0.603412 
        1.57092        0.645959         0.58956 
        1.58662        0.634922        0.576114 
        1.60235        0.620404        0.563067 
        1.61809        0.601878        0.550421 
        1.63369        0.598796        0.538281 
        1.64941        0.579744        0.526424 
        1.66519        0.567182        0.514886 
        1.68085        0.551683         0.50378 
        1.69652        0.541405        0.493001 
        1.71228        0.533254         0.48248 
        1.72806        0.517468        0.472262 
        1.74368        0.512389        0.462445 
        1.75933        0.498818         0.45289 
        1.77505        0.489118        0.443564 
        1.79081        0.480152        0.434487 
         1.8065        0.465978        0.425706 
        1.82218        0.460515        0.417177 
        1.83797        0.450286        0.408827 
        1.85367        0.445833        0.400753 
        1.86928        0.435208        0.392949 
        1.88497        0.425956        0.385312 
        1.90073        0.416892        0.377852 
        1.91647        0.411328        0.370598 
        1.93218        0.401189        0.363552 
        1.94787        0.394415        0.356702 
        1.96363        0.386701        0.350003 
        1.97935        0.378626        0.343492 
        1.99499        0.372519        0.337184 
        2.01064        0.365798        0.331028 
         2.0264        0.357379        0.324989 
        2.04216        0.354402        0.319104 
        2.05781        0.347041        0.313404 
        2.07353        0.338571        0.307825 
        2.08928        0.332146         0.30237 
        2.10499        0.328362        0.297064 
        2.12065         0.32413        0.291902 
        2.13633        0.317572        0.286859 
        2.15211        0.312091        0.281905 
        2.16785        0.305862        0.277082 
        2.18349        0.299734        0.272404 
        2.19916        0.296513        0.267825 
        2.21489        0.290588        0.263337 
        2.23063        0.286902         0.25895 
         2.2463        0.281803        0.254684 
        2.26194        0.274891        0.250525 
        2.27765        0.271652        0.246439 
        2.29341         0.26789        0.242435 
        2.30914        0.263932        0.238528 
        2.32486        0.258893        0.234711 
        2.34061        0.254796        0.230971 
        2.35635        0.249843        0.227317 
        2.37203        0.246572        0.223756 
        2.38768        0.242501        0.220279 
        2.40339        0.239541        0.216864 
        2.41914        0.235968        0.213515 
        2.43483        0.232039        0.210248 
         2.4505        0.227199        0.207056 
        2.46622        0.223954         0.20392 
        2.48195        0.221341         0.20085 
        2.49759        0.218565        0.197859 
        2.51328        0.214589        0.194922 
        2.52906        0.212034        0.192027 
        2.54479        0.207877        0.189202 
        2.56049        0.204184         0.18644 
        2.57618        0.201521        0.183736 
        2.59189        0.199539        0.181082 
        2.60758        0.197094        0.178485 
        2.62325        0.193153        0.175943 
        2.63898        0.190886        0.173442 
        2.65468        0.187278        0.170995 
        2.67044        0.185357        0.168586 
        2.68618         0.18248        0.166228 
        2.70184        0.179863        0.163926 
        2.71755        0.176668        0.161662 
        2.73329        0.174944        0.159438 
        2.74897        0.172806        0.157263 
        2.76462        0.170167        0.155134 
        2.78034         0.16782        0.153036 
        2.79607         0.16518        0.150975 
        2.81179        0.163804        0.148954 
        2.82749        0.160962        0.146974 
        2.84321        0.158989        0.145027 
        2.85893        0.157226        0.143116 
        2.87462        0.155027        0.141244 
        2.89033        0.152888        0.139403 
        2.90605        0.150506        0.137594 
        2.92176        0.148893        0.135819 
        2.93747        0.146525        0.134076 
        2.95318        0.145137        0.132363 
        2.96891        0.142996         0.13068 
        2.98456         0.14116        0.129034 
        3.00023        0.139726        0.127414 
        3.01596        0.137763        0.125817 
        3.03164        0.136516        0.124252 
        3.04738        0.134077         0.12271 
         3.0631        0.132967        0.121195 
        3.07883          0.1309        0.119705 
        3.09456        0.129444        0.118241 
        3.11026        0.127866        0.116803 
        3.12596        0.126221         0.11539 
        3.14163        0.124803        0.114004 
        3.15734        0.123714        0.112638 
        3.17308        0.122457        0.111291 
        3.18879        0.120732        0.109969 
        3.20447        0.118806        0.108672 
         3.2202        0.118351        0.107391 
         3.2359        0.116476        0.106134 
        3.25157        0.115217          0.1049 
        3.26729        0.113567        0.103682 
        3.28304        0.112983        0.102481 
        3.29877         0.11146        0.101301 
        3.31446         0.11025        0.100142 
        3.33014        0.109381       0.0990024 
        3.34585        0.108325        0.097879 
        3.36158        0.107123       0.0967715 
        3.37727        0.106146       0.0956848 
        3.39294        0.104657        0.094616 
        3.40867        0.103428       0.0935597 
        3.42439         0.10256       0.0925203 
        3.44008        0.101042       0.0914989 
        3.45578        0.100438       0.0904922 
        3.47153       0.0995098       0.0894986 
        3.48724       0.0985459       0.0885218 
        3.50292       0.0974395        0.087562 
        3.51859        0.096214       0.0866171 
        3.53431        0.095239       0.0856832 
        3.55007       0.0947392        0.084761 
        3.56577       0.0935601        0.083856 
        3.58146       0.0929309       0.0829648 
        3.59719       0.0921886       0.0820846 
        3.61292        0.091353       0.0812176 
        3.62859       0.0903236       0.0803665 
        3.64429       0.0894111       0.0795261 
        3.66003       0.0888047       0.0786952 
        3.67578       0.0877857       0.0778766 
        3.69146       0.0869215       0.0770728 
        3.70712        0.086414        0.076282 
        3.72284       0.0858206       0.0754994 
        3.73853       0.0848621       0.0747292 
        3.75422       0.0843383       0.0739696 
        3.76993       0.0832468         0.07322 
        3.78564       0.0826522       0.0724811 
        3.80137       0.0818435       0.0717514 
        3.81707       0.0812432       0.0710333 
        3.83279       0.0807438       0.0703245 
        3.84853        0.079901       0.0696244 
        3.86424       0.0792035       0.0689352 
        3.87992       0.0783869       0.0682565 
        3.89561       0.0778294       0.0675869 
        3.91134       0.0772833       0.0669251 
        3.92704        0.076474       0.0662729 
        3.94273       0.0757761       0.0656302 
        3.95845        0.075124       0.0649949 
        3.97418       0.0748247       0.0643679 
        3.98988       0.0736933       0.0637501 
        4.00554       0.0733886       0.0631422 
        4.02125       0.0724705       0.0625405 
        4.03698        0.071406       0.0619458 
        4.05268       0.0704711       0.0613603 
        4.06839       0.0697583        0.060782 
         4.0841       0.0687565       0.0602113 
        4.09983       0.0679337       0.0596473 
        4.11555       0.0669461       0.0590907 
        4.13124       0.0660614       0.0585429 
        4.14693       0.0652404       0.0580016 
        4.16266       0.0644222       0.0574659 
        4.17839       0.0637766       0.0569374 
        4.19408       0.0630336       0.0564168 
        4.20977       0.0623917       0.0559025 
        4.22551       0.0616256       0.0553935 
        4.24123       0.0608943       0.0548914 
        4.25691       0.0601755       0.0543969 
        4.27259       0.0596401       0.0539084 
        4.28831       0.0589629        0.053425 
        4.30404       0.0586049       0.0529471 
        4.31974       0.0581123       0.0524762 
        4.33543       0.0575384       0.0520112 
        4.35116       0.0570943       0.0515509 
        4.36688       0.0564276       0.0510963 
        4.38255       0.0559826        0.050649 
        4.39825       0.0556462       0.0502061 
        4.41398       0.0553942       0.0497676 
         4.4297       0.0549648       0.0493349 
        4.44541        0.054604       0.0489075 
        4.46111       0.0543426       0.0484855 
        4.47683       0.0539346       0.0480682 
        4.49251       0.0536312       0.0476567 
        4.50819       0.0533323       0.0472502 
         4.5239       0.0530495       0.0468479 
        4.53962       0.0528494       0.0464498 
        4.55535       0.0526755       0.0460562 
        4.57106       0.0524784       0.0456677 
        4.58678       0.0521464       0.0452837 
         4.6025       0.0521692       0.0449041 
        4.61821       0.0521283       0.0445289 
        4.63391       0.0520167       0.0441585 
         4.6496       0.0518625       0.0437925 
        4.66532       0.0518388       0.0434301 
        4.68103       0.0516896        0.043072 
        4.69673       0.0517319       0.0427183 
        4.71241       0.0516857        0.042369 
        4.72811       0.0517506       0.0420231 
        4.74384       0.0517899       0.0416806 
        4.75955       0.0519202       0.0413425 
        4.77525       0.0520397       0.0410083 
        4.79096       0.0519993       0.0406775 
        4.80669       0.0520056       0.0403502 
         4.8224       0.0524249       0.0400268 
        4.83809       0.0525118       0.0397074 
        4.85379       0.0525394       0.0393914 
         4.8695       0.0528055       0.0390785 
        4.88521       0.0530266       0.0387692 
        4.90093        0.053327       0.0384632 
        4.91663       0.0534177       0.0381608 
        4.93234       0.0536356       0.0378614 
        4.94807        0.054039       0.0375651 
        4.96377       0.0544223       0.0372724 
        4.97943       0.0548682       0.0369836 
        4.99514       0.0550705       0.0366971 
        5.01086       0.0555488       0.0364134 
        5.02654       0.0558412       0.0361335 
        5.04227       0.0562804       0.0358557 
          5.058       0.0567678       0.0355807 
        5.07371       0.0572882       0.0353092 
        5.08942       0.0574762       0.0350405 
        5.10513       0.0582805       0.0347746 
        5.12084       0.0588074       0.0345113 
        5.13656        0.059279       0.0342508 
        5.15225       0.0600259       0.0339935 
        5.16796       0.0607489       0.0337385 
        5.18369       0.0612464       0.0334858 
         5.1994        0.062047       0.0332362 
        5.21509       0.0625633       0.0329894 
        5.23079         0.06314       0.0327449 
        5.24649       0.0639656        0.032503 
        5.26217       0.0649439       0.0322638 
        5.27788       0.0657675       0.0320266 
        5.29359       0.0665661       0.0317919 
        5.30933       0.0672689       0.0315591 
        5.32504       0.0681684       0.0313291 
        5.34073       0.0690741       0.0311017 
        5.35646       0.0701952        0.030876 
        5.37218       0.0712892       0.0306526 
        5.38789       0.0722548       0.0304318 
        5.40357       0.0728774       0.0302134 
        5.41929       0.0742738       0.0299967 
        5.43502       0.0753117       0.0297822 
         5.4507       0.0764024       0.0295702 
        5.46639       0.0778188       0.0293603 
        5.48212       0.0787666        0.029152 
        5.49786       0.0801749       0.0289454 
        5.51353       0.0818616       0.0287419 
        5.52921       0.0824963       0.0285402 
        5.54495       0.0841342       0.0283398 
        5.56066       0.0852843       0.0281416 
        5.57637       0.0869348       0.0279453 
        5.59207       0.0886813       0.0277511 
        5.60778       0.0903144       0.0275586 
        5.62346       0.0915765       0.0273683 
        5.63916       0.0933507       0.0271796 
        5.65487       0.0947728       0.0269926 
         5.6706       0.0963477       0.0268072 
        5.68633       0.0980621       0.0266234 
        5.70203       0.0992255       0.0264418 
        5.71773        0.102095       0.0262619 
        5.73344        0.103468       0.0260836 
        5.74916        0.105974       0.0259068 
        5.76486        0.107505       0.0257319 
        5.78054         0.10913       0.0255589 
        5.79626        0.110833        0.025387 
          5.812        0.113558       0.0252165 
         5.8277        0.115462       0.0250481 
        5.84339        0.117368       0.0248813 
        5.85911        0.120325       0.0247157 
        5.87484        0.122015       0.0245516 
        5.89053        0.125018       0.0243893 
        5.90623        0.127179       0.0242285 
        5.92195        0.129882       0.0240688 
        5.93767        0.132395       0.0239107 
        5.95336        0.134653       0.0237542 
        5.96905        0.137817       0.0235993 
        5.98476        0.140396       0.0234455 
        6.00048        0.142607        0.023293 
        6.01617        0.145202       0.0231422 
        6.03185        0.148911       0.0229928 
        6.04756        0.151583       0.0228444 
        6.06331        0.154035        0.022697 
        6.07903         0.15779       0.0225513 
        6.09473         0.16109       0.0224069 
        6.11044        0.163819       0.0222637 
        6.12616        0.166692       0.0221218 
        6.14186        0.170195       0.0219813 
        6.15755        0.173181        0.021842 
        6.17326        0.177921       0.0217039 
        6.18898        0.179372       0.0215669 
        6.20467         0.18511       0.0214313 
        6.22036        0.187613       0.0212969 
         6.2361        0.190993       0.0211632 
         6.2518        0.195192        0.021031 
        6.26748        0.198138       0.0209002 
        6.28319        0.202248       0.0207702 
        6.29893        0.206783       0.0206411 
        6.31463        0.210485       0.0205134 
        6.33033        0.215413       0.0203868 
        6.34604        0.218898       0.0202612 
        6.36177        0.222284       0.0201366 
        6.37747        0.227745       0.0200132 
