# k  (h/Mpc)    Pcb(k)  (Mpc/h)^3    Pcb_linear(k) (Mpc/h)^3   ShotnoiseSubtracted = true
      0.0200456         13601.1         13886.8 
      0.0350414         9253.97         9553.51 
      0.0492313          6696.7         6757.76 
      0.0637834         5843.75         5732.21 
      0.0800726         4628.26          4559.2 
       0.096163         3137.43         3196.85 
       0.111083         2494.47         2542.64 
       0.126058         2344.05          2316.6 
       0.142273         2027.34         1961.52 
       0.158546          1684.2         1512.93 
        0.17375         1348.95         1278.41 
       0.188953         1319.31         1180.36 
       0.204907          1239.1         1046.07 
       0.220756         1051.59         873.072 
        0.23588         929.183         760.036 
         0.2514         812.219         699.162 
       0.267535         796.275         634.837 
       0.283568          721.57         556.158 
       0.299022         674.718         495.428 
       0.314451         637.168         456.152 
       0.330372         587.578         419.901 
       0.346141          536.05         380.305 
       0.361624         517.248         345.603 
       0.377134         479.755         319.303 
       0.392932         457.422         296.374 
       0.408854         440.382         273.212 
       0.424564         416.151         251.901 
       0.440253         405.189         234.112 
       0.455999         381.098         218.649 
       0.471626         358.634         204.118 
        0.48727          346.88          190.46 
       0.502856         335.898         178.333 
       0.518488          332.63         167.566 
       0.534347         311.893         157.449 
       0.550082         295.078         148.072 
       0.565732         292.065         139.522 
       0.581496         276.126         131.717 
       0.597222         270.326         124.527 
       0.612804         261.754         117.892 
       0.628434         251.881         111.704 
       0.644267         244.205         105.924 
       0.660051         240.606         100.595 
       0.675724         235.811         95.6665 
       0.691403         229.057         91.0649 
       0.707174         220.225         86.7414 
       0.722871          217.73         82.7173 
        0.73838         213.573         78.9932 
       0.754018         207.949         75.4718 
       0.769845         200.913         72.1284 
        0.78569         199.849         68.9865 
       0.801365         193.183         66.0649 
       0.817031         187.301         63.3169 
       0.832809         185.226         60.7103 
       0.848511         180.085         58.2644 
       0.864097         177.916         55.9722 
       0.879701         173.894         53.8031 
       0.895507         169.341          51.725 
       0.911279         164.944         49.7626 
        0.92691         164.887         47.9197 
       0.942635         160.457         46.1614 
       0.958396         159.969         44.4888 
       0.974128         155.653         42.9033 
       0.989692         152.073         41.4117 
        1.00528         149.725         39.9898 
        1.02113         148.683         38.6132 
        1.03692         143.766         37.3074 
        1.05264         141.435         36.0687 
        1.06832         138.778         34.8889 
        1.08405         136.895         33.7594 
        1.09979         136.171         32.6799 
        1.11537         131.975          31.659 
        1.13105         130.957         30.6761 
        1.14679          130.16         29.7317 
        1.16256         128.128         28.8257 
        1.17828         125.465         27.9609 
        1.19395         123.404          27.135 
         1.2097         121.866         26.3387 
        1.22537         120.689         25.5786 
          1.241          118.29         24.8512 
        1.25666         116.412         24.1506 
        1.27241         114.402         23.4741 
        1.28819         113.134         22.8226 
        1.30392         111.472         22.1982 
        1.31957          110.45         21.6001 
        1.33529         107.795         21.0222 
        1.35108         106.759         20.4634 
        1.36674         105.825         19.9291 
         1.3824         103.672         19.4147 
        1.39811         102.747         18.9169 
        1.41389          101.27         18.4349 
        1.42964         99.3438         17.9707 
        1.44531         97.4489         17.5249 
        1.46101         96.5338         17.0935 
        1.47667         95.9061         16.6781 
        1.49229         94.1415         16.2778 
        1.50793         93.3315         15.8903 
        1.52367         92.0086          15.513 
        1.53953         90.5348         15.1457 
        1.55526         89.8676         14.7933 
        1.57092         89.0084         14.4537 
        1.58662         86.9586          14.124 
        1.60235         86.7558         13.8042 
        1.61809         85.2217         13.4941 
        1.63369         84.3971         13.1965 
        1.64941          83.696         12.9058 
        1.66519         81.5954          12.623 
        1.68085         81.2387         12.3507 
        1.69652         79.4107         12.0864 
        1.71228         79.3738         11.8285 
        1.72806         78.1852          11.578 
        1.74368         77.2261         11.3373 
        1.75933         75.9783         11.1031 
        1.77505         75.4936         10.8744 
        1.79081         74.1558         10.6519 
         1.8065         73.3926         10.4366 
        1.82218         72.3585         10.2275 
        1.83797         71.5363         10.0228 
        1.85367         70.8934         9.82488 
        1.86928         70.5781         9.63355 
        1.88497         69.1214         9.44632 
        1.90073         68.2549         9.26343 
        1.91647         67.8306          9.0856 
        1.93218         66.7677         8.91286 
        1.94787          65.962         8.74492 
        1.96363         65.1435         8.58069 
        1.97935         64.7685         8.42105 
        1.99499         63.7186         8.26643 
        2.01064         63.2259          8.1155 
         2.0264         61.9203         7.96743 
        2.04216         61.5134         7.82317 
        2.05781         60.7777         7.68343 
        2.07353          59.844         7.54664 
        2.08928         59.1881         7.41291 
        2.10499         58.7586         7.28282 
        2.12065         58.1819         7.15627 
        2.13633         57.5409         7.03265 
        2.15211         57.1659         6.91119 
        2.16785         56.4542         6.79296 
        2.18349         55.8969         6.67827 
        2.19916          55.134         6.56601 
        2.21489         54.6345         6.45598 
        2.23063         54.1489         6.34843 
         2.2463         53.4664         6.24384 
        2.26194         52.5533         6.14189 
        2.27765         52.3292         6.04171 
        2.29341         51.6859         5.94353 
        2.30914         50.9014         5.84776 
        2.32486          50.081         5.75417 
        2.34061         49.8814          5.6625 
        2.35635         49.1654         5.57292 
        2.37203         48.6432         5.48561 
        2.38768         48.1716         5.40037 
        2.40339         47.6449         5.31665 
        2.41914         47.3201         5.23453 
        2.43483         46.8423         5.15445 
         2.4505         46.4445          5.0762 
        2.46622         45.8512         4.99931 
        2.48195         45.3694         4.92403 
        2.49759          44.709         4.85072 
        2.51328         44.2309         4.77872 
        2.52906         43.8314         4.70775 
        2.54479         43.3217         4.63849 
        2.56049          42.748         4.57078 
        2.57618         42.5043         4.50448 
        2.59189         41.9021         4.43942 
        2.60758         41.6602         4.37576 
        2.62325         41.0525         4.31343 
        2.63898         40.6858         4.25211 
        2.65468         40.1308         4.19212 
        2.67044         39.5164         4.13305 
        2.68618         39.3931         4.07526 
        2.70184         38.9694         4.01882 
        2.71755         38.7014         3.96331 
        2.73329         38.0863         3.90878 
        2.74897         37.7139         3.85546 
        2.76462         37.2498         3.80327 
        2.78034         37.0741         3.75183 
        2.79607         36.6183          3.7013 
        2.81179         36.2797         3.65177 
        2.82749         35.7224         3.60321 
        2.84321         35.5024         3.55548 
        2.85893         35.1545         3.50864 
        2.87462         34.6891         3.46274 
        2.89033         34.3316         3.41762 
        2.90605         34.1603         3.37327 
        2.92176         33.7123         3.32974 
        2.93747         33.4871         3.28701 
        2.95318         33.0346         3.24502 
        2.96891         32.6107         3.20376 
        2.98456         32.4505          3.1634 
        3.00023         32.0265         3.12369 
        3.01596         31.6513         3.08454 
        3.03164         31.4742         3.04618 
        3.04738          31.204         3.00836 
         3.0631         30.8099         2.97121 
        3.07883         30.5059         2.93469 
        3.09456         30.2554         2.89879 
        3.11026         29.9489         2.86355 
        3.12596         29.6504         2.82891 
        3.14163         29.3158         2.79493 
        3.15734         29.0373         2.76143 
        3.17308         28.7146          2.7284 
        3.18879          28.521         2.69601 
        3.20447         28.2322          2.6642 
         3.2202         27.8954         2.63281 
         3.2359         27.6971         2.60198 
        3.25157         27.4606         2.57173 
        3.26729         27.2142         2.54187 
        3.28304         26.8747         2.51242 
        3.29877         26.5688         2.48349 
        3.31446         26.3609         2.45508 
        3.33014         26.1194         2.42715 
        3.34585         25.9864          2.3996 
        3.36158          25.607         2.37245 
        3.37727         25.3277         2.34581 
        3.39294          25.168         2.31961 
        3.40867         24.8908         2.29371 
        3.42439         24.6696         2.26823 
        3.44008         24.4466         2.24319 
        3.45578         24.2198         2.21851 
        3.47153         23.9785         2.19415 
        3.48724         23.7282          2.1702 
        3.50292          23.559         2.14667 
        3.51859         23.3068         2.12351 
        3.53431          23.146         2.10061 
        3.55007         22.8574           2.078 
        3.56577         22.6615         2.05582 
        3.58146         22.5456         2.03397 
        3.59719          22.239         2.01239 
        3.61292          22.099         1.99113 
        3.62859         21.8248         1.97027 
        3.64429         21.6306         1.94966 
        3.66003         21.4385         1.92929 
        3.67578         21.2422         1.90923 
        3.69146         21.0934         1.88952 
        3.70712         20.8392         1.87013 
        3.72284         20.6886         1.85095 
        3.73853         20.4934         1.83206 
        3.75422         20.2967         1.81344 
        3.76993         20.1135         1.79506 
        3.78564           19.92         1.77695 
        3.80137          19.761         1.75906 
        3.81707         19.6151         1.74145 
        3.83279         19.4249         1.72408 
        3.84853         19.2088         1.70691 
        3.86424         19.0922         1.69002 
        3.87992          18.888         1.67338 
        3.89561         18.7071         1.65696 
        3.91134         18.6118         1.64074 
        3.92704         18.4083         1.62475 
        3.94273         18.2466         1.60899 
        3.95845          18.036         1.59342 
        3.97418         17.9351         1.57805 
        3.98988         17.7373          1.5629 
        4.00554          17.621           1.548 
        4.02125         17.4541         1.53325 
        4.03698         17.2722         1.51867 
        4.05268         17.1615         1.50431 
        4.06839          16.912         1.49013 
         4.0841          16.892         1.47614 
        4.09983         16.6681         1.46231 
        4.11555         16.5613         1.44867 
        4.13124         16.4403         1.43524 
        4.14693         16.2855         1.42197 
        4.16266         16.1193         1.40884 
        4.17839         15.9834         1.39588 
        4.19408         15.8412         1.38312 
        4.20977         15.7354         1.37051 
        4.22551         15.5855         1.35803 
        4.24123         15.4777         1.34572 
        4.25691         15.3745          1.3336 
        4.27259          15.224         1.32162 
        4.28831         15.0383         1.30977 
        4.30404         14.9641         1.29805 
        4.31974         14.8229         1.28651 
        4.33543          14.709         1.27511 
        4.35116         14.5662         1.26382 
        4.36688         14.4562         1.25268 
        4.38255         14.3384         1.24171 
        4.39825         14.2502         1.23085 
        4.41398         14.0915          1.2201 
         4.4297         13.9772          1.2095 
        4.44541          13.867         1.19902 
        4.46111         13.7825         1.18867 
        4.47683         13.6433         1.17844 
        4.49251         13.5371         1.16835 
        4.50819         13.4224         1.15839 
         4.5239         13.3494         1.14852 
        4.53962         13.1985         1.13877 
        4.55535         13.1062         1.12912 
        4.57106         12.9955         1.11959 
        4.58678          12.861         1.11018 
         4.6025         12.7724         1.10087 
        4.61821         12.6596         1.09167 
        4.63391          12.609         1.08259 
         4.6496         12.4603         1.07362 
        4.66532         12.3464         1.06473 
        4.68103         12.2533         1.05596 
        4.69673         12.1902         1.04728 
        4.71241         12.0709         1.03872 
        4.72811         11.9824         1.03024 
        4.74384         11.8795         1.02184 
        4.75955         11.7897         1.01355 
        4.77525         11.7033         1.00536 
        4.79096         11.6231         0.99725 
        4.80669         11.5106        0.989226 
         4.8224         11.4153        0.981299 
        4.83809         11.3654        0.973469 
        4.85379         11.2323         0.96572 
         4.8695          11.199         0.95805 
        4.88521         11.0884        0.950467 
        4.90093         11.0061        0.942966 
        4.91663         10.9003        0.935553 
        4.93234          10.823        0.928212 
        4.94807         10.7402        0.920946 
        4.96377         10.6619        0.913772 
        4.97943         10.5758        0.906691 
        4.99514         10.5115        0.899666 
        5.01086         10.4345        0.892712 
        5.02654         10.3312        0.885849 
        5.04227          10.272        0.879039 
          5.058         10.1725        0.872298 
        5.07371         10.1245        0.865641 
        5.08942         10.0232        0.859053 
        5.10513         9.95758        0.852534 
        5.12084         9.89415         0.84608 
        5.13656         9.80634        0.839695 
        5.15225         9.74483        0.833386 
        5.16796         9.67391        0.827133 
        5.18369         9.60451        0.820939 
         5.1994         9.51562        0.814821 
        5.21509         9.45956         0.80877 
        5.23079         9.38108        0.802775 
        5.24649         9.32376        0.796845 
        5.26217         9.22745         0.79098 
        5.27788         9.18128        0.785166 
        5.29359         9.09587         0.77941 
        5.30933         9.03901        0.773704 
        5.32504         8.96848        0.768065 
        5.34073         8.91487        0.762489 
        5.35646          8.8407        0.756958 
        5.37218         8.76933        0.751481 
        5.38789         8.72253        0.746067 
        5.40357         8.67551        0.740713 
        5.41929         8.58586        0.735401 
        5.43502         8.53149         0.73014 
         5.4507          8.4562        0.724944 
        5.46639         8.39335        0.719798 
        5.48212         8.34295         0.71469 
        5.49786         8.29629        0.709627 
        5.51353         8.23623        0.704638 
        5.52921         8.17415        0.699692 
        5.54495         8.11153        0.694779 
        5.56066          8.0594         0.68992 
        5.57637         7.99835        0.685108 
        5.59207         7.95036        0.680346 
        5.60778         7.88976        0.675629 
        5.62346         7.83162        0.670963 
        5.63916          7.7833        0.666337 
        5.65487         7.72693        0.661752 
         5.6706         7.67705        0.657206 
        5.68633         7.61492        0.652701 
        5.70203         7.56693        0.648248 
        5.71773         7.50471        0.643838 
        5.73344         7.46583        0.639466 
        5.74916         7.41394        0.635132 
        5.76486         7.37058        0.630844 
        5.78054         7.30638        0.626602 
        5.79626         7.26234        0.622388 
          5.812         7.20688        0.618209 
         5.8277         7.15721        0.614081 
        5.84339         7.11785         0.60999 
        5.85911         7.06295         0.60593 
        5.87484         7.02032        0.601907 
        5.89053         6.97153        0.597929 
        5.90623         6.91605        0.593986 
        5.92195         6.87442        0.590072 
        5.93767         6.82001        0.586195 
        5.95336         6.78729         0.58236 
        5.96905         6.73109        0.578561 
        5.98476         6.70263         0.57479 
        6.00048         6.65644        0.571053 
        6.01617         6.60578        0.567354 
        6.03185         6.55267        0.563692 
        6.04756         6.51311        0.560054 
        6.06331         6.47559        0.556441 
        6.07903         6.43924        0.552868 
        6.09473         6.39008        0.549329 
        6.11044         6.33865        0.545819 
        6.12616          6.2988         0.54234 
        6.14186         6.27497        0.538895 
        6.15755         6.21409         0.53548 
        6.17326         6.16545        0.532093 
        6.18898         6.13097        0.528734 
        6.20467         6.09933        0.525409 
        6.22036          6.0482        0.522114 
         6.2361         6.01829        0.518839 
         6.2518         5.97684        0.515597 
        6.26748         5.94075         0.51239 
        6.28319         5.88589        0.509202 
        6.29893         5.87364        0.506039 
        6.31463         5.83034        0.502908 
        6.33033         5.78129        0.499804 
        6.34604         5.74713        0.496725 
        6.36177         5.71839        0.493669 
        6.37747         5.68817        0.490645 
