# k  (h/Mpc)    Pcb(k)  (Mpc/h)^3    Pcb_linear(k) (Mpc/h)^3   ShotnoiseSubtracted = true
      0.0200456         2338.41         2371.18 
      0.0350414         1767.44         1741.72 
      0.0492313         1253.91         1251.11 
      0.0637834         1032.36         1046.46 
      0.0800726         840.899         858.426 
       0.096163         637.747         626.168 
       0.111083         502.319         487.301 
       0.126058         429.647         431.731 
       0.142273         375.838         379.643 
       0.158546         306.738          303.24 
        0.17375         257.134         248.616 
       0.188953         230.237         223.381 
       0.204907         201.745         203.634 
       0.220756         179.811         175.394 
        0.23588         155.309         150.005 
         0.2514          139.17         134.405 
       0.267535         130.435         123.654 
       0.283568         116.026         111.086 
       0.299022         105.639         98.3978 
       0.314451         98.9565         88.8997 
       0.330372         88.6741         82.0264 
       0.346141         81.7921         75.4776 
       0.361624         75.3315         68.7198 
       0.377134         68.6689          62.821 
       0.392932         66.4845         58.1476 
       0.408854         61.0299         54.0268 
       0.424564         58.3508         50.0091 
       0.440253         53.1924          46.273 
       0.455999         48.6956         43.0814 
       0.471626         46.2125         40.3255 
        0.48727         44.9543         37.7411 
       0.502856         41.9447         35.3085 
       0.518488         39.2873         33.1051 
       0.534347         37.0157         31.1197 
       0.550082         35.6244          29.311 
       0.565732         34.2934         27.6279 
       0.581496         32.2405         26.0573 
       0.597222          30.514         24.6299 
       0.612804         29.1066         23.3297 
       0.628434         28.5432         22.1143 
       0.644267         27.0257         20.9663 
       0.660051         25.6927         19.9044 
       0.675724         24.5045         18.9283 
       0.691403         24.0209         18.0194 
       0.707174         23.0354          17.165 
       0.722871         22.2989         16.3695 
        0.73838         21.1107          15.633 
       0.754018          20.087         14.9362 
       0.769845         19.5538         14.2744 
        0.78569         18.9593         13.6523 
       0.801365         18.2512         13.0735 
       0.817031         17.6158         12.5289 
       0.832809         17.0527         12.0122 
       0.848511          16.547         11.5274 
       0.864097         15.9861          11.073 
       0.879701         15.7241          10.643 
       0.895507         15.1451         10.2311 
       0.911279         14.5269         9.84209 
        0.92691         14.2327         9.47685 
       0.942635         13.8784         9.12836 
       0.958396         13.3912         8.79689 
       0.974128         13.0799         8.48269 
       0.989692         12.5021         8.18713 
        1.00528         12.4183         7.90539 
        1.02113         12.0017         7.63264 
        1.03692         11.7293         7.37392 
        1.05264          11.439          7.1285 
        1.06832         11.1894         6.89476 
        1.08405         10.9073         6.67099 
        1.09979         10.6338         6.45712 
        1.11537         10.3778         6.25484 
        1.13105         10.1726         6.06012 
        1.14679         9.95745         5.87301 
        1.16256         9.71201         5.69352 
        1.17828          9.5244         5.52221 
        1.19395         9.32165         5.35859 
         1.2097         9.03017         5.20083 
        1.22537         8.86784         5.05026 
          1.241         8.64609         4.90616 
        1.25666         8.62042         4.76738 
        1.27241          8.4251         4.63337 
        1.28819         8.09306         4.50434 
        1.30392         8.02318         4.38065 
        1.31957         7.85803         4.26221 
        1.33529         7.73446         4.14775 
        1.35108         7.56602         4.03709 
        1.36674         7.38805          3.9313 
         1.3824         7.31123         3.82943 
        1.39811          7.1677         3.73087 
        1.41389         7.00014         3.63544 
        1.42964         6.91186         3.54354 
        1.44531         6.78042         3.45529 
        1.46101         6.70442         3.36989 
        1.47667         6.55838         3.28767 
        1.49229         6.39475         3.20843 
        1.50793         6.31232         3.13174 
        1.52367         6.19335         3.05708 
        1.53953         6.08608         2.98438 
        1.55526         6.04795         2.91465 
        1.57092         5.91515         2.84745 
        1.58662         5.83211         2.78224 
        1.60235         5.74527         2.71895 
        1.61809         5.65782         2.65763 
        1.63369          5.5503         2.59875 
        1.64941         5.46502         2.54126 
        1.66519         5.40038         2.48531 
        1.68085         5.30716         2.43146 
        1.69652         5.24775          2.3792 
        1.71228         5.18472          2.3282 
        1.72806         5.09238         2.27866 
        1.74368         5.03704         2.23107 
        1.75933         4.96125         2.18476 
        1.77505         4.86363         2.13956 
        1.79081         4.83237         2.09557 
         1.8065         4.77103         2.05302 
        1.82218         4.69287         2.01169 
        1.83797          4.6112         1.97123 
        1.85367         4.54937         1.93212 
        1.86928         4.52561         1.89431 
        1.88497          4.4251         1.85731 
        1.90073         4.38732         1.82118 
        1.91647         4.32476         1.78604 
        1.93218         4.27176         1.75192 
        1.94787         4.22465         1.71874 
        1.96363         4.17628          1.6863 
        1.97935         4.12349         1.65477 
        1.99499         4.07742         1.62423 
        2.01064         4.03383         1.59443 
         2.0264         3.97215         1.56519 
        2.04216          3.9267          1.5367 
        2.05781         3.87886         1.50911 
        2.07353         3.85427          1.4821 
        2.08928         3.78438          1.4557 
        2.10499         3.74172         1.43002 
        2.12065         3.74491         1.40505 
        2.13633         3.68165         1.38065 
        2.15211         3.61882         1.35668 
        2.16785         3.58538         1.33334 
        2.18349         3.55515         1.31071 
        2.19916         3.52277         1.28856 
        2.21489         3.48223         1.26685 
        2.23063         3.43187         1.24563 
         2.2463         3.39389           1.225 
        2.26194         3.35734         1.20489 
        2.27765         3.29614         1.18513 
        2.29341         3.27638         1.16577 
        2.30914         3.24146         1.14688 
        2.32486         3.22903         1.12842 
        2.34061         3.19144         1.11035 
        2.35635         3.15945         1.09268 
        2.37203         3.14078         1.07547 
        2.38768         3.11231         1.05867 
        2.40339         3.05882         1.04216 
        2.41914         3.03018         1.02597 
        2.43483         3.00026         1.01019 
         2.4505         2.98055        0.994768 
        2.46622         2.94414        0.979616 
        2.48195         2.92661        0.964781 
        2.49759          2.8922        0.950335 
        2.51328         2.86799         0.93615 
        2.52906         2.84193        0.922166 
        2.54479         2.81196        0.908522 
        2.56049         2.78639        0.895182 
        2.57618         2.76226        0.882124 
        2.59189         2.75482        0.869309 
        2.60758         2.72167         0.85677 
        2.62325         2.68031        0.844496 
        2.63898         2.65416        0.832421 
        2.65468         2.63312        0.820609 
        2.67044         2.62954        0.808977 
        2.68618         2.60066        0.797599 
        2.70184         2.57793        0.786487 
        2.71755         2.54879        0.775561 
        2.73329           2.522        0.764827 
        2.74897         2.50582        0.754332 
        2.76462          2.4809        0.744059 
        2.78034         2.47588        0.733936 
        2.79607         2.44554        0.723993 
        2.81179         2.42563        0.714246 
        2.82749         2.40235         0.70469 
        2.84321         2.38708          0.6953 
        2.85893         2.36128        0.686086 
        2.87462         2.35442        0.677055 
        2.89033         2.33114        0.668179 
        2.90605         2.31808        0.659456 
        2.92176         2.29536        0.650895 
        2.93747         2.27428         0.64249 
        2.95318         2.25838        0.634234 
        2.96891         2.24955        0.626119 
        2.98456          2.2303        0.618184 
        3.00023         2.21219        0.610375 
        3.01596         2.18599        0.602678 
        3.03164         2.17197        0.595137 
        3.04738         2.16218        0.587703 
         3.0631         2.14396          0.5804 
        3.07883         2.12915        0.573221 
        3.09456         2.10702        0.566166 
        3.11026         2.09922        0.559241 
        3.12596         2.07806        0.552434 
        3.14163         2.07102        0.545756 
        3.15734         2.05064        0.539174 
        3.17308          2.0419        0.532685 
        3.18879         2.02749        0.526321 
        3.20447         2.00253        0.520072 
         3.2202         2.00505        0.513905 
         3.2359         1.98219         0.50785 
        3.25157         1.96548        0.501907 
        3.26729           1.953        0.496042 
        3.28304         1.93952         0.49026 
        3.29877         1.92238        0.484579 
        3.31446         1.91676           0.479 
        3.33014         1.89589        0.473515 
        3.34585         1.88843        0.468107 
        3.36158         1.87305        0.462777 
        3.37727         1.86677        0.457547 
        3.39294         1.85054        0.452403 
        3.40867         1.84369         0.44732 
        3.42439         1.82963        0.442319 
        3.44008         1.81593        0.437404 
        3.45578         1.80304        0.432561 
        3.47153         1.79211         0.42778 
        3.48724         1.77967        0.423081 
        3.50292         1.76309        0.418464 
        3.51859          1.7644        0.413919 
        3.53431         1.74343        0.409427 
        3.55007         1.74045        0.404992 
        3.56577         1.72547         0.40064 
        3.58146         1.71957        0.396354 
        3.59719         1.70424        0.392121 
        3.61292         1.69641        0.387952 
        3.62859          1.6831         0.38386 
        3.64429         1.67492         0.37982 
        3.66003         1.66342        0.375825 
        3.67578         1.65301         0.37189 
        3.69146         1.64179        0.368026 
        3.70712         1.63079        0.364225 
        3.72284         1.62264        0.360464 
        3.73853         1.61537        0.356762 
        3.75422         1.60342        0.353112 
        3.76993         1.59427        0.349509 
        3.78564         1.58187        0.345959 
        3.80137         1.57455        0.342453 
        3.81707         1.56392        0.339003 
        3.83279         1.56188        0.335598 
        3.84853         1.54997        0.332234 
        3.86424         1.53563        0.328923 
        3.87992         1.53111        0.325663 
        3.89561         1.51629        0.322447 
        3.91134         1.51466        0.319268 
        3.92704         1.50366        0.316136 
        3.94273         1.49723         0.31305 
        3.95845         1.48307        0.309999 
        3.97418         1.48009        0.306988 
        3.98988         1.47118        0.304022 
        4.00554          1.4593        0.301103 
        4.02125         1.45269        0.298215 
        4.03698         1.44109         0.29536 
        4.05268         1.43224        0.292549 
        4.06839         1.42019        0.289773 
         4.0841         1.41072        0.287034 
        4.09983         1.40119        0.284327 
        4.11555         1.39406        0.281656 
        4.13124         1.38266        0.279027 
        4.14693          1.3765        0.276429 
        4.16266         1.36915        0.273859 
        4.17839         1.35871        0.271323 
        4.19408         1.35216        0.268825 
        4.20977         1.34412        0.266358 
        4.22551         1.33809        0.263916 
        4.24123         1.32602        0.261507 
        4.25691         1.31585        0.259135 
        4.27259         1.30867        0.256792 
        4.28831         1.30636        0.254473 
        4.30404         1.29534        0.252181 
        4.31974          1.2858        0.249923 
        4.33543         1.28089        0.247693 
        4.35116         1.27276        0.245486 
        4.36688         1.26388        0.243306 
        4.38255         1.25784        0.241161 
        4.39825          1.2544        0.239038 
        4.41398         1.24458        0.236936 
         4.4297         1.23852        0.234861 
        4.44541          1.2316        0.232812 
        4.46111         1.22189         0.23079 
        4.47683         1.21938        0.228789 
        4.49251         1.21315        0.226817 
        4.50819          1.2065        0.224869 
         4.5239         1.20032        0.222941 
        4.53962         1.19186        0.221033 
        4.55535         1.18931        0.219147 
        4.57106         1.17941        0.217286 
        4.58678         1.17931        0.215446 
         4.6025         1.17041        0.213627 
        4.61821         1.16838        0.211829 
        4.63391         1.16183        0.210055 
         4.6496         1.15395        0.208302 
        4.66532          1.1505        0.206566 
        4.68103         1.14557        0.204851 
        4.69673         1.14089        0.203157 
        4.71241          1.1345        0.201484 
        4.72811         1.13125        0.199827 
        4.74384         1.12765        0.198187 
        4.75955          1.1224        0.196568 
        4.77525         1.11438        0.194968 
        4.79096         1.11058        0.193384 
        4.80669         1.10954        0.191817 
         4.8224         1.10204        0.190269 
        4.83809         1.09862         0.18874 
        4.85379         1.09377        0.187226 
         4.8695         1.08854        0.185729 
        4.88521          1.0864        0.184248 
        4.90093         1.08118        0.182784 
        4.91663         1.07662        0.181337 
        4.93234         1.07346        0.179904 
        4.94807         1.06891        0.178485 
        4.96377         1.06617        0.177085 
        4.97943         1.06358        0.175703 
        4.99514         1.05994        0.174332 
        5.01086         1.05225        0.172975 
        5.02654         1.04956        0.171635 
        5.04227         1.04532        0.170306 
          5.058         1.04263        0.168991 
        5.07371         1.03789        0.167692 
        5.08942         1.03594        0.166407 
        5.10513         1.03555        0.165135 
        5.12084         1.02862        0.163876 
        5.13656         1.02384         0.16263 
        5.15225         1.01961        0.161399 
        5.16796         1.01753         0.16018 
        5.18369         1.01413        0.158972 
         5.1994         1.01412        0.157778 
        5.21509         1.00792        0.156598 
        5.23079         1.00698        0.155429 
        5.24649         1.00269        0.154273 
        5.26217         1.00046        0.153129 
        5.27788        0.995102        0.151995 
        5.29359        0.994002        0.150873 
        5.30933        0.991765         0.14976 
        5.32504        0.986653        0.148661 
        5.34073        0.985016        0.147574 
        5.35646         0.98313        0.146495 
        5.37218        0.979143        0.145428 
        5.38789        0.978411        0.144372 
        5.40357        0.976302        0.143329 
        5.41929        0.973624        0.142293 
        5.43502        0.970371        0.141268 
         5.4507         0.96398        0.140255 
        5.46639        0.964429        0.139252 
        5.48212        0.959844        0.138257 
        5.49786        0.959901         0.13727 
        5.51353        0.959004        0.136298 
        5.52921        0.954604        0.135335 
        5.54495        0.951248        0.134377 
        5.56066        0.950903        0.133431 
        5.57637        0.950598        0.132493 
        5.59207        0.946626        0.131566 
        5.60778        0.944489        0.130647 
        5.62346        0.942502        0.129738 
        5.63916        0.940908        0.128837 
        5.65487        0.935613        0.127944 
         5.6706        0.935616        0.127058 
        5.68633        0.931331        0.126181 
        5.70203        0.931685        0.125314 
        5.71773        0.928931        0.124455 
        5.73344        0.924984        0.123604 
        5.74916        0.924322         0.12276 
        5.76486        0.921897        0.121925 
        5.78054        0.919257        0.121099 
        5.79626        0.919515        0.120278 
          5.812         0.91556        0.119465 
         5.8277        0.913579        0.118661 
        5.84339        0.914507        0.117865 
        5.85911        0.911851        0.117075 
        5.87484        0.910571        0.116292 
        5.89053        0.905827        0.115517 
        5.90623        0.905577         0.11475 
        5.92195        0.902086        0.113988 
        5.93767        0.900751        0.113234 
        5.95336        0.899901        0.112487 
        5.96905        0.897531        0.111748 
        5.98476        0.894947        0.111014 
        6.00048        0.895179        0.110287 
        6.01617        0.893602        0.109567 
        6.03185        0.888887        0.108855 
        6.04756        0.890361        0.108147 
        6.06331         0.88646        0.107444 
        6.07903        0.886697        0.106749 
        6.09473        0.885189        0.106061 
        6.11044        0.881129        0.105378 
        6.12616        0.880737        0.104701 
        6.14186        0.878319        0.104031 
        6.15755         0.87793        0.103367 
        6.17326        0.874324        0.102708 
        6.18898        0.872429        0.102055 
        6.20467         0.87285        0.101409 
        6.22036        0.869741        0.100768 
         6.2361          0.8681        0.100131 
         6.2518        0.867545       0.0995007 
        6.26748        0.865582       0.0988772 
        6.28319        0.863381       0.0982573 
        6.29893        0.863143       0.0976423 
        6.31463         0.85943       0.0970336 
        6.33033        0.861037       0.0964303 
        6.34604        0.859318       0.0958318 
        6.36177        0.856002       0.0952378 
        6.37747        0.855046         0.09465 
