# k  (h/Mpc)    Pcb(k)  (Mpc/h)^3    Pcb_linear(k) (Mpc/h)^3   ShotnoiseSubtracted = true
      0.0200456         23949.3         24573.7 
      0.0350414         17136.6         18050.3 
      0.0492313         12650.8         12965.9 
      0.0637834         11048.1           10845 
      0.0800726         8931.71         8896.28 
       0.096163         6217.77         6489.28 
       0.111083         4931.48         5050.14 
       0.126058         4532.52         4474.24 
       0.142273         4002.83         3934.42 
       0.158546         3559.21         3142.62 
        0.17375         2825.74         2576.52 
       0.188953         2763.27         2315.01 
       0.204907         2616.24         2110.36 
       0.220756         2284.43          1817.7 
        0.23588          2045.5         1554.58 
         0.2514         1782.65          1392.9 
       0.267535         1791.71         1281.49 
       0.283568         1628.69         1151.24 
       0.299022         1545.76         1019.74 
       0.314451         1472.95          921.31 
       0.330372         1348.37         850.078 
       0.346141         1309.48         782.211 
       0.361624         1258.06         712.176 
       0.377134         1174.61         651.045 
       0.392932         1125.06         602.611 
       0.408854         1108.43         559.906 
       0.424564         1022.27         518.269 
       0.440253          1001.7         479.549 
       0.455999          976.58         446.473 
       0.471626         941.049         417.913 
        0.48727         903.044         391.129 
       0.502856         874.954         365.919 
       0.518488          869.47         343.084 
       0.534347         816.359         322.508 
       0.550082         799.716         303.764 
       0.565732         791.916         286.321 
       0.581496         752.517         270.045 
       0.597222         734.693         255.252 
       0.612804         723.742         241.777 
       0.628434         704.374         229.181 
       0.644267         685.504         217.284 
       0.660051          668.94         206.279 
       0.675724         660.408         196.163 
       0.691403         639.845         186.743 
       0.707174         618.721          177.89 
       0.722871         608.443         169.645 
        0.73838          596.94         162.012 
       0.754018         586.023         154.791 
       0.769845         576.225         147.933 
        0.78569         565.568         141.485 
       0.801365         550.755         135.487 
       0.817031         537.811         129.843 
       0.832809          532.02         124.489 
       0.848511         520.436         119.464 
       0.864097         503.547         114.755 
       0.879701         496.681         110.298 
       0.895507         495.724         106.029 
       0.911279          482.37         101.998 
        0.92691         475.155         98.2131 
       0.942635         462.252         94.6016 
       0.958396         450.886         91.1664 
       0.974128         445.213         87.9102 
       0.989692           442.7         84.8471 
        1.00528         428.805         81.9273 
        1.02113         426.294         79.1007 
        1.03692         415.217         76.4194 
        1.05264         410.787         73.8761 
        1.06832         400.322         71.4537 
        1.08405         395.365         69.1347 
        1.09979         388.831         66.9182 
        1.11537           381.5          64.822 
        1.13105         376.266         62.8039 
        1.14679         365.599         60.8648 
        1.16256          357.44         59.0047 
        1.17828         357.545         57.2293 
        1.19395          349.22         55.5336 
         1.2097         341.145         53.8987 
        1.22537         335.136         52.3382 
          1.241         330.201         50.8449 
        1.25666         326.172         49.4066 
        1.27241         320.747         48.0179 
        1.28819         314.766         46.6807 
        1.30392         308.409         45.3988 
        1.31957          305.68         44.1713 
        1.33529         301.616         42.9852 
        1.35108         294.941         41.8383 
        1.36674         289.596         40.7419 
         1.3824         286.684         39.6862 
        1.39811         281.599         38.6648 
        1.41389         278.561         37.6758 
        1.42964         274.777         36.7234 
        1.44531         270.951         35.8088 
        1.46101         264.858         34.9238 
        1.47667         261.938         34.0717 
        1.49229         258.713         33.2505 
        1.50793         252.119         32.4557 
        1.52367         250.671          31.682 
        1.53953         246.219         30.9286 
        1.55526         242.287         30.2059 
        1.57092         239.686         29.5095 
        1.58662         236.923         28.8336 
        1.60235         232.394         28.1778 
        1.61809         229.202         27.5422 
        1.63369         226.602         26.9321 
        1.64941         222.623         26.3362 
        1.66519         220.097         25.7564 
        1.68085         217.375         25.1984 
        1.69652         213.793         24.6568 
        1.71228         208.613         24.1282 
        1.72806         206.147         23.6148 
        1.74368         203.002         23.1217 
        1.75933         200.328         22.6418 
        1.77505         198.445         22.1733 
        1.79081         195.905         21.7174 
         1.8065         191.665         21.2764 
        1.82218         189.734         20.8482 
        1.83797          188.71         20.4288 
        1.85367         185.099         20.0235 
        1.86928         181.774         19.6316 
        1.88497          179.61         19.2482 
        1.90073         177.259         18.8737 
        1.91647         175.816         18.5096 
        1.93218         172.675          18.156 
        1.94787         168.913         17.8121 
        1.96363         167.054         17.4759 
        1.97935         165.473         17.1492 
        1.99499         163.291         16.8327 
        2.01064          160.75         16.5238 
         2.0264         159.575         16.2208 
        2.04216         157.241         15.9256 
        2.05781         154.679         15.6396 
        2.07353         153.176         15.3598 
        2.08928          150.27         15.0862 
        2.10499         149.024           14.82 
        2.12065         146.726         14.5612 
        2.13633         144.611         14.3083 
        2.15211         142.464         14.0599 
        2.16785         141.205         13.8181 
        2.18349         139.532         13.5835 
        2.19916         137.677          13.354 
        2.21489         136.283          13.129 
        2.23063         134.087         12.9091 
         2.2463         131.996         12.6953 
        2.26194         130.172         12.4869 
        2.27765         129.045         12.2821 
        2.29341         127.525         12.0814 
        2.30914         126.019         11.8857 
        2.32486         124.157         11.6944 
        2.34061         122.665         11.5071 
        2.35635         120.906          11.324 
        2.37203         119.746         11.1456 
        2.38768         117.961         10.9715 
        2.40339         116.606         10.8004 
        2.41914         115.205         10.6327 
        2.43483         113.837         10.4691 
         2.4505         112.605         10.3093 
        2.46622         111.103         10.1522 
        2.48195         109.346         9.99849 
        2.49759         108.176         9.84878 
        2.51328         107.207         9.70177 
        2.52906         105.763         9.55685 
        2.54479         104.529         9.41545 
        2.56049         102.784          9.2772 
        2.57618         102.021         9.14188 
        2.59189         101.175         9.00906 
        2.60758         99.8344         8.87912 
        2.62325         98.2392         8.75191 
        2.63898         97.0774         8.62677 
        2.65468          95.888         8.50436 
        2.67044         95.0029         8.38382 
        2.68618         94.1046          8.2659 
        2.70184         93.2409         8.15074 
        2.71755         91.4776         8.03751 
        2.73329         90.7537         7.92627 
        2.74897         89.8274         7.81751 
        2.76462         88.7445         7.71104 
        2.78034         87.6451         7.60613 
        2.79607         86.4206         7.50308 
        2.81179         85.8288         7.40207 
        2.82749          84.747         7.30305 
        2.84321         83.7131         7.20573 
        2.85893         82.7586         7.11024 
        2.87462         81.8616         7.01664 
        2.89033         80.9464         6.92466 
        2.90605         79.9997         6.83426 
        2.92176          79.017         6.74553 
        2.93747         78.3293         6.65844 
        2.95318          77.444         6.57287 
        2.96891         76.8288         6.48877 
        2.98456         75.7072         6.40653 
        3.00023         74.9359         6.32561 
        3.01596         73.9128         6.24584 
        3.03164         73.3706         6.16769 
        3.04738         72.2781         6.09065 
         3.0631         71.4395         6.01496 
        3.07883         70.8284         5.94057 
        3.09456         70.4568         5.86745 
        3.11026         69.5005         5.79568 
        3.12596         68.5683         5.72513 
        3.14163         68.1639         5.65593 
        3.15734         67.1906         5.58772 
        3.17308         66.4775         5.52047 
        3.18879         65.8764         5.45452 
        3.20447         65.0627         5.38975 
         3.2202         64.5542         5.32584 
         3.2359         63.5838         5.26309 
        3.25157         63.1299         5.20151 
        3.26729         62.4909         5.14073 
        3.28304         61.9914          5.0808 
        3.29877         61.2166         5.02192 
        3.31446         60.4121         4.96411 
        3.33014         59.7649         4.90726 
        3.34585         59.1643         4.85122 
        3.36158         58.6705         4.79598 
        3.37727         58.2101         4.74178 
        3.39294         57.3229         4.68847 
        3.40867         56.9343         4.63579 
        3.42439          56.366         4.58396 
        3.44008          55.787         4.53303 
        3.45578            55.1         4.48283 
        3.47153         54.5511         4.43329 
        3.48724         54.1843         4.38459 
        3.50292         53.7022         4.33675 
        3.51859         53.0156         4.28964 
        3.53431         52.6586         4.24309 
        3.55007         52.1767         4.19712 
        3.56577         51.6844         4.15202 
        3.58146         51.1591          4.1076 
        3.59719         50.4914         4.06374 
        3.61292         50.0005         4.02054 
        3.62859         49.5108         3.97813 
        3.64429         49.1641         3.93625 
        3.66003         48.8031         3.89486 
        3.67578         48.2901         3.85407 
        3.69146         47.7006         3.81403 
        3.70712         47.2057         3.77464 
        3.72284         46.8939         3.73566 
        3.73853         46.3887          3.6973 
        3.75422         45.8734         3.65946 
        3.76993         45.4876         3.62213 
        3.78564         45.0445         3.58534 
        3.80137         44.6451           3.549 
        3.81707         44.1698         3.51325 
        3.83279         43.8398         3.47796 
        3.84853         43.4818          3.4431 
        3.86424         43.0976         3.40879 
        3.87992         42.6025           3.375 
        3.89561         42.2948         3.34167 
        3.91134         41.8929         3.30873 
        3.92704         41.4406         3.27627 
        3.94273         40.9937         3.24428 
        3.95845         40.7351         3.21267 
        3.97418         40.3756         3.18147 
        3.98988         39.9357         3.15073 
        4.00554         39.6559         3.12048 
        4.02125          39.245         3.09054 
        4.03698         38.8114         3.06096 
        4.05268         38.5162         3.03183 
        4.06839         38.0994         3.00306 
         4.0841         37.8646         2.97467 
        4.09983         37.5777         2.94661 
        4.11555         37.1024         2.91893 
        4.13124          36.807         2.89169 
        4.14693         36.5646         2.86477 
        4.16266         36.2189         2.83813 
        4.17839         35.8996         2.81185 
        4.19408          35.428         2.78596 
        4.20977          35.252         2.76039 
        4.22551         34.9209         2.73508 
        4.24123         34.6259         2.71012 
        4.25691         34.3035         2.68554 
        4.27259         33.9504         2.66126 
        4.28831          33.738         2.63723 
        4.30404         33.4745         2.61348 
        4.31974         33.1797         2.59007 
        4.33543          32.798         2.56696 
        4.35116          32.683         2.54409 
        4.36688         32.2944          2.5215 
        4.38255         31.9931         2.49927 
        4.39825         31.7407         2.47726 
        4.41398         31.5093         2.45548 
         4.4297         31.1932         2.43398 
        4.44541          30.964         2.41275 
        4.46111         30.7074         2.39178 
        4.47683         30.3858         2.37106 
        4.49251         30.1536         2.35062 
        4.50819         29.8959         2.33043 
         4.5239         29.6989         2.31044 
        4.53962         29.4169         2.29067 
        4.55535         29.1432         2.27113 
        4.57106         28.8945         2.25184 
        4.58678         28.6746         2.23277 
         4.6025         28.4137         2.21392 
        4.61821           28.21         2.19529 
        4.63391         27.9665          2.1769 
         4.6496         27.7015         2.15873 
        4.66532          27.548         2.14074 
        4.68103         27.3304         2.12297 
        4.69673         27.0249         2.10541 
        4.71241         26.8579         2.08807 
        4.72811         26.6463          2.0709 
        4.74384         26.4396         2.05391 
        4.75955           26.15         2.03713 
        4.77525         26.0348         2.02054 
        4.79096         25.8003         2.00413 
        4.80669         25.5912         1.98789 
         4.8224         25.3589         1.97185 
        4.83809         25.1918           1.956 
        4.85379         25.0412         1.94032 
         4.8695         24.7358          1.9248 
        4.88521         24.5528         1.90945 
        4.90093         24.3847         1.89428 
        4.91663          24.169         1.87928 
        4.93234         23.9151         1.86443 
        4.94807         23.8433         1.84973 
        4.96377          23.648         1.83522 
        4.97943         23.4214         1.82089 
        4.99514         23.2337         1.80669 
        5.01086         23.0468         1.79262 
        5.02654         22.8496         1.77874 
        5.04227         22.7016         1.76497 
          5.058         22.6355         1.75133 
        5.07371         22.3532         1.73787 
        5.08942         22.1206         1.72455 
        5.10513         21.9904         1.71137 
        5.12084         21.8755         1.69832 
        5.13656         21.6895         1.68541 
        5.15225         21.5063         1.67266 
        5.16796         21.3278         1.66002 
        5.18369         21.1593          1.6475 
         5.1994         21.0068         1.63513 
        5.21509         20.8876          1.6229 
        5.23079         20.6587         1.61078 
        5.24649         20.5452          1.5988 
        5.26217         20.3838         1.58695 
        5.27788         20.2432          1.5752 
        5.29359         20.1062         1.56357 
        5.30933         19.8998         1.55204 
        5.32504         19.7537         1.54064 
        5.34073         19.6423         1.52938 
        5.35646          19.515          1.5182 
        5.37218         19.3451         1.50714 
        5.38789         19.2067          1.4962 
        5.40357         19.0818         1.48539 
        5.41929          18.886         1.47465 
        5.43502          18.816         1.46403 
         5.4507         18.6438         1.45353 
        5.46639         18.5199         1.44314 
        5.48212           18.38         1.43282 
        5.49786         18.2393          1.4226 
        5.51353         18.0855         1.41252 
        5.52921         17.9431         1.40254 
        5.54495         17.8373         1.39262 
        5.56066         17.6888         1.38281 
        5.57637         17.5634         1.37309 
        5.59207         17.4403         1.36348 
        5.60778         17.2963         1.35395 
        5.62346           17.19         1.34453 
        5.63916         17.0604          1.3352 
        5.65487         16.9617         1.32594 
         5.6706         16.8245         1.31677 
        5.68633         16.7096         1.30767 
        5.70203         16.5614         1.29869 
        5.71773          16.482         1.28979 
        5.73344         16.3722         1.28096 
        5.74916         16.1984         1.27222 
        5.76486         16.1244         1.26356 
        5.78054         16.0159         1.25501 
        5.79626         15.8886          1.2465 
          5.812         15.7999         1.23807 
         5.8277         15.6489         1.22974 
        5.84339         15.6077         1.22149 
        5.85911         15.4694          1.2133 
        5.87484         15.3359         1.20519 
        5.89053         15.2244         1.19716 
        5.90623         15.1288         1.18921 
        5.92195         15.0346         1.18131 
        5.93767         14.9422         1.17349 
        5.95336         14.8225         1.16576 
        5.96905         14.7341          1.1581 
        5.98476         14.6093         1.15049 
        6.00048         14.5211         1.14296 
        6.01617         14.4088          1.1355 
        6.03185         14.3171         1.12812 
        6.04756          14.187         1.12078 
        6.06331         14.0936          1.1135 
        6.07903         14.0165         1.10629 
        6.09473         13.9037         1.09916 
        6.11044         13.8107         1.09208 
        6.12616         13.7151         1.08507 
        6.14186         13.6336         1.07813 
        6.15755         13.5319         1.07124 
        6.17326          13.431         1.06442 
        6.18898         13.3551         1.05765 
        6.20467         13.2861         1.05095 
        6.22036         13.1748         1.04431 
         6.2361         13.0773         1.03771 
         6.2518         13.0022         1.03117 
        6.26748         12.9054         1.02471 
        6.28319         12.8153         1.01829 
        6.29893          12.727         1.01191 
        6.31463         12.6399         1.00561 
        6.33033         12.5799        0.999354 
        6.34604         12.4835        0.993151 
        6.36177         12.3832        0.986995 
        6.37747         12.3041        0.980903 
