# k  (h/Mpc)    Pcb(k)  (Mpc/h)^3    Pcb_linear(k) (Mpc/h)^3   ShotnoiseSubtracted = true
      0.0200456         18398.7         18834.5 
      0.0350414         13240.8         13834.7 
      0.0492313         9759.79          9937.7 
      0.0637834         8474.94         8312.14 
      0.0800726         6867.01         6818.57 
       0.096163         4794.35         4973.72 
       0.111083         3771.99         3870.69 
       0.126058         3475.24         3429.28 
       0.142273         3073.84         3015.54 
       0.158546         2677.75         2408.67 
        0.17375         2115.34         1974.78 
       0.188953         2058.97         1774.34 
       0.204907         1955.54         1617.49 
       0.220756         1697.03         1393.18 
        0.23588          1505.4         1191.51 
         0.2514         1306.23         1067.59 
       0.267535         1305.35           982.2 
       0.283568          1187.2         882.367 
       0.299022         1119.68         781.584 
       0.314451         1066.17          706.14 
       0.330372         980.339         651.544 
       0.346141          925.07         599.526 
       0.361624         889.175         545.848 
       0.377134         826.695         498.994 
       0.392932         795.608         461.872 
       0.408854           774.9         429.141 
       0.424564         721.705         397.228 
       0.440253         708.695         367.551 
       0.455999         676.216           342.2 
       0.471626         647.493          320.31 
        0.48727          622.61         299.782 
       0.502856         605.906         280.459 
       0.518488         598.597         262.958 
       0.534347         560.058         247.187 
       0.550082         541.021          232.82 
       0.565732         540.684         219.451 
       0.581496         509.064         206.976 
       0.597222         500.302         195.638 
       0.612804         488.155          185.31 
       0.628434         472.434         175.656 
       0.644267         459.699         166.538 
       0.660051         445.529         158.103 
       0.675724          441.33         150.349 
       0.691403         426.675          143.13 
       0.707174         412.122         136.344 
       0.722871         407.247         130.025 
        0.73838         400.895         124.174 
       0.754018         389.444          118.64 
       0.769845         380.355         113.383 
        0.78569         376.655         108.441 
       0.801365         365.588         103.844 
       0.817031         353.822         99.5187 
       0.832809         351.513         95.4145 
       0.848511         342.662         91.5631 
       0.864097         334.676         87.9538 
       0.879701         330.298         84.5383 
       0.895507         325.382         81.2663 
       0.911279         314.733         78.1768 
        0.92691         311.623         75.2756 
       0.942635         304.613         72.5075 
       0.958396         298.088         69.8746 
       0.974128         293.099         67.3789 
       0.989692         289.376         65.0312 
        1.00528         283.713         62.7933 
        1.02113         281.187         60.6268 
        1.03692           273.5         58.5718 
        1.05264         270.365         56.6224 
        1.06832         264.233         54.7658 
        1.08405          259.48         52.9884 
        1.09979         254.643         51.2896 
        1.11537         250.587         49.6829 
        1.13105         245.031         48.1361 
        1.14679         242.973         46.6499 
        1.16256         237.791         45.2243 
        1.17828         234.611         43.8635 
        1.19395         229.854         42.5638 
         1.2097         229.071         41.3108 
        1.22537         223.308         40.1147 
          1.241         221.914         38.9701 
        1.25666         216.825         37.8678 
        1.27241         214.113         36.8034 
        1.28819          211.07         35.7785 
        1.30392         205.963          34.796 
        1.31957         206.573         33.8552 
        1.33529         201.718          32.946 
        1.35108         197.265          32.067 
        1.36674         196.279         31.2267 
         1.3824         193.689         30.4176 
        1.39811         191.692         29.6347 
        1.41389         187.699         28.8767 
        1.42964         185.397         28.1467 
        1.44531         182.545         27.4457 
        1.46101          180.58         26.7674 
        1.47667         176.788         26.1143 
        1.49229         174.829         25.4849 
        1.50793         171.817         24.8757 
        1.52367         170.379         24.2827 
        1.53953         167.301         23.7052 
        1.55526         164.099         23.1514 
        1.57092         163.069         22.6176 
        1.58662         160.599         22.0996 
        1.60235         157.967         21.5969 
        1.61809         156.904         21.1098 
        1.63369         153.748         20.6421 
        1.64941         150.777         20.1855 
        1.66519         149.889         19.7411 
        1.68085         148.258         19.3133 
        1.69652         145.645         18.8982 
        1.71228         143.038         18.4931 
        1.72806         141.359         18.0996 
        1.74368         140.289         17.7217 
        1.75933         137.515         17.3538 
        1.77505         136.044         16.9948 
        1.79081         135.098         16.6454 
         1.8065          133.21         16.3073 
        1.82218          130.57         15.9791 
        1.83797         129.459         15.6577 
        1.85367         127.839          15.347 
        1.86928         125.598         15.0467 
        1.88497         123.584         14.7528 
        1.90073           122.5         14.4658 
        1.91647         120.972         14.1867 
        1.93218         119.282         13.9157 
        1.94787         117.775         13.6521 
        1.96363         115.933         13.3945 
        1.97935         114.053          13.144 
        1.99499         112.713         12.9014 
        2.01064         111.415         12.6647 
         2.0264          109.82         12.4324 
        2.04216          108.69         12.2062 
        2.05781         107.498          11.987 
        2.07353         106.471         11.7725 
        2.08928         104.136         11.5628 
        2.10499         102.746         11.3588 
        2.12065         101.691         11.1604 
        2.13633         101.027         10.9666 
        2.15211         99.0454         10.7762 
        2.16785         97.5039         10.5909 
        2.18349         96.5859         10.4111 
        2.19916          95.623         10.2352 
        2.21489         94.4492         10.0627 
        2.23063         92.9756         9.89421 
         2.2463         91.7794         9.73031 
        2.26194         91.2766         9.57057 
        2.27765         89.7587         9.41362 
        2.29341         88.7644         9.25981 
        2.30914         87.5974         9.10978 
        2.32486         86.8416         8.96319 
        2.34061         85.6129          8.8196 
        2.35635         84.0734         8.67931 
        2.37203         83.0804         8.54258 
        2.38768         82.3151         8.40909 
        2.40339         81.4003           8.278 
        2.41914         80.0922         8.14942 
        2.43483         79.2609         8.02405 
         2.4505         78.3197         7.90154 
        2.46622         77.1276         7.78119 
        2.48195         76.2706         7.66336 
        2.49759         75.5665         7.54861 
        2.51328          74.876         7.43593 
        2.52906          73.678         7.32486 
        2.54479         72.9897         7.21648 
        2.56049          72.052         7.11053 
        2.57618         71.3457          7.0068 
        2.59189         70.3948         6.90501 
        2.60758         69.6766         6.80541 
        2.62325         68.7787         6.70792 
        2.63898         67.9564           6.612 
        2.65468         67.0661         6.51818 
        2.67044         66.2632         6.42579 
        2.68618         65.5885         6.33541 
        2.70184         65.3083         6.24715 
        2.71755         64.3995         6.16036 
        2.73329         63.6041          6.0751 
        2.74897         62.9047         5.99174 
        2.76462         62.1007         5.91014 
        2.78034         61.3301         5.82973 
        2.79607         60.4777         5.75075 
        2.81179         60.0401         5.67333 
        2.82749         59.2704         5.59743 
        2.84321         58.7309         5.52284 
        2.85893         57.9831         5.44965 
        2.87462         57.3296         5.37792 
        2.89033         56.7083         5.30742 
        2.90605         55.9238         5.23813 
        2.92176         55.7063         5.17012 
        2.93747         55.0873         5.10337 
        2.95318         54.3767         5.03778 
        2.96891         53.6954         4.97333 
        2.98456          53.209          4.9103 
        3.00023         52.4055         4.84827 
        3.01596         52.0305         4.78713 
        3.03164         51.3802         4.72723 
        3.04738          50.759         4.66819 
         3.0631         50.2881         4.61018 
        3.07883         49.6833         4.55315 
        3.09456         49.4088         4.49711 
        3.11026          48.569         4.44211 
        3.12596         48.1732         4.38804 
        3.14163         47.5812           4.335 
        3.15734         47.2928         4.28271 
        3.17308         46.7294         4.23117 
        3.18879         46.2993         4.18063 
        3.20447         45.4139         4.13098 
         3.2202          45.345           4.082 
         3.2359         44.8006          4.0339 
        3.25157         44.3631          3.9867 
        3.26729         43.9513         3.94012 
        3.28304         43.4136         3.89419 
        3.29877         43.0063         3.84906 
        3.31446         42.4563         3.80475 
        3.33014         42.1563         3.76118 
        3.34585         41.9196         3.71823 
        3.36158         41.3965         3.67589 
        3.37727         40.8325         3.63434 
        3.39294         40.5006         3.59348 
        3.40867         39.9977         3.55311 
        3.42439         39.6032         3.51338 
        3.44008         39.1986         3.47434 
        3.45578          38.751         3.43587 
        3.47153         38.3645          3.3979 
        3.48724         38.1414         3.36058 
        3.50292         37.7853         3.32391 
        3.51859         37.2599          3.2878 
        3.53431         36.8521         3.25212 
        3.55007         36.5039         3.21689 
        3.56577         36.1809         3.18232 
        3.58146         35.7957         3.14828 
        3.59719         35.4207         3.11466 
        3.61292         35.1376         3.08155 
        3.62859         34.8695         3.04904 
        3.64429         34.4725         3.01695 
        3.66003         34.1237         2.98522 
        3.67578         33.7327         2.95396 
        3.69146         33.4595         2.92327 
        3.70712           33.18         2.89308 
        3.72284         32.8255          2.8632 
        3.73853         32.5302          2.8338 
        3.75422         32.2433          2.8048 
        3.76993         31.9654         2.77619 
        3.78564         31.6294         2.74799 
        3.80137          31.258         2.72014 
        3.81707         30.9543         2.69273 
        3.83279         30.7503         2.66569 
        3.84853         30.4959         2.63897 
        3.86424         30.0542         2.61267 
        3.87992         29.8929         2.58678 
        3.89561         29.5564         2.56123 
        3.91134         29.3222         2.53598 
        3.92704         29.0576          2.5111 
        3.94273         28.7436         2.48659 
        3.95845         28.4816         2.46235 
        3.97418         28.2989         2.43844 
        3.98988           27.96         2.41488 
        4.00554         27.6662         2.39169 
        4.02125         27.5206         2.36875 
        4.03698         27.1951         2.34607 
        4.05268         27.0786         2.32375 
        4.06839         26.7117          2.3017 
         4.0841         26.5519         2.27994 
        4.09983         26.2342         2.25844 
        4.11555         26.0182         2.23722 
        4.13124         25.7917         2.21634 
        4.14693         25.5685          2.1957 
        4.16266         25.3588         2.17529 
        4.17839         25.0921         2.15515 
        4.19408         24.8773          2.1353 
        4.20977         24.6547         2.11571 
        4.22551         24.4842         2.09631 
        4.24123         24.2472         2.07718 
        4.25691         24.0345         2.05834 
        4.27259         23.8318         2.03973 
        4.28831         23.5697         2.02131 
        4.30404          23.423          2.0031 
        4.31974         23.2205         1.98516 
        4.33543         23.0072         1.96745 
        4.35116         22.8821         1.94992 
        4.36688         22.6147         1.93261 
        4.38255         22.4116         1.91557 
        4.39825         22.2157          1.8987 
        4.41398         21.9601           1.882 
         4.4297          21.819         1.86553 
        4.44541         21.6594         1.84925 
        4.46111         21.4789         1.83319 
        4.47683          21.306          1.8173 
        4.49251         21.1154         1.80163 
        4.50819         20.8723         1.78616 
         4.5239         20.7622         1.77084 
        4.53962         20.5744         1.75569 
        4.55535         20.4081         1.74071 
        4.57106         20.2381         1.72592 
        4.58678         20.0872         1.71131 
         4.6025         19.9165         1.69686 
        4.61821          19.776         1.68258 
        4.63391         19.5262         1.66849 
         4.6496         19.4169         1.65456 
        4.66532         19.2391         1.64077 
        4.68103         19.0872         1.62715 
        4.69673          18.927         1.61369 
        4.71241         18.7638         1.60041 
        4.72811         18.6086         1.58725 
        4.74384         18.4608         1.57422 
        4.75955         18.3222         1.56136 
        4.77525         18.1627         1.54865 
        4.79096         18.0309         1.53607 
        4.80669         17.8874         1.52362 
         4.8224         17.6815         1.51132 
        4.83809          17.581         1.49918 
        4.85379         17.4036         1.48716 
         4.8695         17.3006         1.47526 
        4.88521          17.176          1.4635 
        4.90093         17.0279         1.45187 
        4.91663         16.8896         1.44038 
        4.93234          16.745         1.42899 
        4.94807         16.6109         1.41773 
        4.96377         16.4978         1.40661 
        4.97943          16.383         1.39563 
        4.99514         16.2594         1.38474 
        5.01086         16.1013         1.37396 
        5.02654         15.9787         1.36332 
        5.04227         15.8476         1.35276 
          5.058         15.7326         1.34231 
        5.07371         15.6282           1.332 
        5.08942            15.5         1.32179 
        5.10513         15.4087         1.31168 
        5.12084         15.2773         1.30168 
        5.13656         15.1071         1.29179 
        5.15225         15.0432         1.28201 
        5.16796         14.9099         1.27232 
        5.18369         14.8186         1.26273 
         5.1994         14.6861         1.25325 
        5.21509         14.5755         1.24388 
        5.23079         14.4694         1.23459 
        5.24649         14.3645          1.2254 
        5.26217         14.2462         1.21632 
        5.27788         14.1296         1.20731 
        5.29359         14.0011          1.1984 
        5.30933         13.9096         1.18956 
        5.32504          13.814         1.18083 
        5.34073         13.7282         1.17219 
        5.35646          13.645         1.16363 
        5.37218         13.5008         1.15515 
        5.38789          13.409         1.14676 
        5.40357         13.3336         1.13848 
        5.41929         13.2103         1.13025 
        5.43502         13.1086         1.12211 
         5.4507         13.0189         1.11406 
        5.46639         12.9179          1.1061 
        5.48212         12.8153         1.09819 
        5.49786         12.7753         1.09035 
        5.51353         12.6265         1.08263 
        5.52921         12.5451         1.07498 
        5.54495         12.4688         1.06737 
        5.56066         12.3725         1.05985 
        5.57637         12.2762         1.05241 
        5.59207         12.1884         1.04504 
        5.60778         12.0994         1.03774 
        5.62346         12.0266         1.03052 
        5.63916         11.9139         1.02336 
        5.65487         11.8465         1.01627 
         5.6706         11.7553         1.00924 
        5.68633         11.6494         1.00227 
        5.70203         11.6115         0.99538 
        5.71773           11.51        0.988558 
        5.73344          11.438        0.981797 
        5.74916         11.3469        0.975093 
        5.76486         11.2595        0.968461 
        5.78054         11.1835        0.961901 
        5.79626         11.0732        0.955384 
          5.812         11.0366        0.948922 
         5.8277         10.9399        0.942538 
        5.84339         10.8666        0.936213 
        5.85911         10.7706        0.929935 
        5.87484          10.719        0.923716 
        5.89053         10.6524        0.917566 
        5.90623          10.558         0.91147 
        5.92195         10.4812        0.905418 
        5.93767         10.4034        0.899426 
        5.95336          10.356        0.893498 
        5.96905         10.2776        0.887626 
        5.98476         10.2193        0.881798 
        6.00048         10.1377        0.876021 
        6.01617         10.0823        0.870305 
        6.03185         9.98671        0.864646 
        6.04756         9.91433        0.859024 
        6.06331         9.85396        0.853441 
        6.07903         9.80037        0.847919 
        6.09473         9.72614        0.842452 
        6.11044         9.67492        0.837028 
        6.12616          9.5883        0.831653 
        6.14186         9.52972        0.826331 
        6.15755         9.45576        0.821056 
        6.17326         9.39955        0.815823 
        6.18898         9.35169        0.810634 
        6.20467         9.26267        0.805499 
        6.22036         9.21978         0.80041 
         6.2361         9.15666        0.795351 
         6.2518         9.08067        0.790344 
        6.26748         9.02842        0.785392 
        6.28319         8.98151        0.780468 
        6.29893         8.92193        0.775583 
        6.31463         8.84509        0.770748 
        6.33033         8.78947        0.765956 
        6.34604         8.73838        0.761202 
        6.36177         8.68799        0.756484 
        6.37747          8.6321        0.751814 
