# k  (h/Mpc)    Pcb(k)  (Mpc/h)^3    Pcb_linear(k) (Mpc/h)^3   ShotnoiseSubtracted = true
      0.0200456         22060.9         22479.8 
      0.0350414         17009.9         16512.2 
      0.0492313         11594.5           11861 
      0.0637834          9407.8         9920.87 
      0.0800726         7577.37         8138.23 
       0.096163         6119.46         5936.33 
       0.111083            4901         4619.82 
       0.126058         4047.32         4092.99 
       0.142273          3623.3         3599.17 
       0.158546         2991.16         2874.84 
        0.17375         2650.64         2356.98 
       0.188953         2510.16         2117.75 
       0.204907          2177.5         1930.54 
       0.220756         1978.65         1662.81 
        0.23588         1760.87         1422.11 
         0.2514         1596.18         1274.21 
       0.267535         1541.95         1172.29 
       0.283568         1378.73         1053.14 
       0.299022         1314.83         932.851 
       0.314451         1368.55         842.805 
       0.330372         1213.69         777.643 
       0.346141            1115         715.558 
       0.361624         1070.35         651.491 
       0.377134         1027.22         595.569 
       0.392932         980.157         551.263 
       0.408854         939.567         512.196 
       0.424564         919.247         474.107 
       0.440253         853.455         438.686 
       0.455999         816.249         408.429 
       0.471626          830.28         382.302 
        0.48727         784.508         357.801 
       0.502856          753.07         334.739 
       0.518488         730.082          313.85 
       0.534347         700.892         295.027 
       0.550082         668.137          277.88 
       0.565732          659.05         261.923 
       0.581496         645.367         247.034 
       0.597222         631.825         233.502 
       0.612804         616.399         221.175 
       0.628434             591         209.652 
       0.644267         574.415         198.769 
       0.660051         567.971         188.702 
       0.675724           556.5         179.448 
       0.691403         540.272         170.831 
       0.707174         524.068         162.732 
       0.722871         518.064          155.19 
        0.73838         506.609         148.207 
       0.754018         494.391         141.601 
       0.769845         487.695         135.327 
        0.78569         477.424         129.429 
       0.801365         461.171         123.942 
       0.817031         457.173         118.779 
       0.832809         449.674         113.881 
       0.848511         441.995         109.284 
       0.864097         432.389         104.976 
       0.879701         430.696           100.9 
       0.895507         413.701         96.9946 
       0.911279         408.077          93.307 
        0.92691         403.347         89.8443 
       0.942635         398.446         86.5406 
       0.958396          385.44         83.3981 
       0.974128         380.396         80.4193 
       0.989692         368.852         77.6173 
        1.00528         366.115         74.9463 
        1.02113           359.3         72.3605 
        1.03692         353.578         69.9077 
        1.05264         348.598         67.5811 
        1.06832         341.262         65.3651 
        1.08405         339.143         63.2437 
        1.09979         331.793         61.2161 
        1.11537         322.881         59.2985 
        1.13105         319.222         57.4524 
        1.14679         314.062         55.6785 
        1.16256         311.952         53.9769 
        1.17828         306.482         52.3527 
        1.19395         298.974         50.8016 
         1.2097         297.216          49.306 
        1.22537         291.807         47.8785 
          1.241         285.442         46.5124 
        1.25666           282.6         45.1967 
        1.27241         278.554         43.9262 
        1.28819         271.988          42.703 
        1.30392         271.939         41.5304 
        1.31957         263.827         40.4075 
        1.33529         260.645         39.3224 
        1.35108          259.05         38.2732 
        1.36674         251.899         37.2703 
         1.3824         249.694         36.3046 
        1.39811         246.868         35.3702 
        1.41389         240.407         34.4654 
        1.42964         237.706         33.5942 
        1.44531         235.038         32.7576 
        1.46101         230.732          31.948 
        1.47667         227.999         31.1684 
        1.49229         224.745         30.4172 
        1.50793         221.654         29.6901 
        1.52367         218.007         28.9824 
        1.53953         213.689         28.2931 
        1.55526         212.027          27.632 
        1.57092         209.806          26.995 
        1.58662         205.196         26.3767 
        1.60235         202.786         25.7768 
        1.61809          200.54         25.1954 
        1.63369         196.601         24.6372 
        1.64941         193.911         24.0921 
        1.66519         191.486         23.5617 
        1.68085         187.966         23.0512 
        1.69652         185.881         22.5558 
        1.71228         183.008         22.0722 
        1.72806         180.884         21.6026 
        1.74368          178.82         21.1515 
        1.75933         177.272         20.7125 
        1.77505         174.428         20.2839 
        1.79081         171.007         19.8669 
         1.8065         169.921         19.4635 
        1.82218         165.667         19.0717 
        1.83797         164.617         18.6881 
        1.85367         161.859         18.3173 
        1.86928         159.465         17.9588 
        1.88497         157.895         17.6081 
        1.90073         156.288         17.2655 
        1.91647         153.063         16.9324 
        1.93218          151.18         16.6089 
        1.94787         149.065         16.2944 
        1.96363         148.397         15.9868 
        1.97935         146.373         15.6879 
        1.99499         144.056         15.3984 
        2.01064         140.756         15.1158 
         2.0264         140.372         14.8386 
        2.04216         138.076         14.5685 
        2.05781         135.503          14.307 
        2.07353         134.687         14.0509 
        2.08928          133.03         13.8007 
        2.10499          131.44         13.5572 
        2.12065         129.879         13.3204 
        2.13633         127.906         13.0891 
        2.15211         125.685         12.8618 
        2.16785         124.564         12.6406 
        2.18349         123.088         12.4261 
        2.19916         121.227         12.2161 
        2.21489         119.812         12.0103 
        2.23063         118.251         11.8091 
         2.2463         116.533         11.6135 
        2.26194         115.519         11.4229 
        2.27765         113.581         11.2355 
        2.29341          112.63         11.0519 
        2.30914          111.34         10.8729 
        2.32486         109.297         10.6979 
        2.34061         108.048         10.5265 
        2.35635         107.334         10.3591 
        2.37203         105.214         10.1959 
        2.38768         104.635         10.0366 
        2.40339          102.54         9.88012 
        2.41914         101.706         9.72666 
        2.43483         100.801         9.57702 
         2.4505         99.3844          9.4308 
        2.46622         97.8428         9.28716 
        2.48195         97.0017         9.14652 
        2.49759         95.4406         9.00956 
        2.51328         94.5892         8.87508 
        2.52906         93.5417          8.7425 
        2.54479         92.1281         8.61315 
        2.56049         90.9615         8.48669 
        2.57618          90.052         8.36289 
        2.59189         89.3714          8.2414 
        2.60758         87.7316         8.12253 
        2.62325         87.3253         8.00616 
        2.63898           86.18         7.89168 
        2.65468         85.2032          7.7797 
        2.67044         84.1493         7.66943 
        2.68618          82.975         7.56156 
        2.70184         81.9758         7.45622 
        2.71755         81.3152         7.35263 
        2.73329         79.8862         7.25087 
        2.74897         79.2847         7.15137 
        2.76462         78.6633         7.05398 
        2.78034         77.2668         6.95801 
        2.79607         76.3608         6.86374 
        2.81179         75.7933         6.77134 
        2.82749          74.937         6.68075 
        2.84321         73.8071         6.59173 
        2.85893         72.7732         6.50437 
        2.87462         72.2702         6.41875 
        2.89033         71.4631         6.33461 
        2.90605         70.7342         6.25191 
        2.92176         69.9274         6.17074 
        2.93747         69.2021         6.09107 
        2.95318         68.0682         6.01279 
        2.96891          67.684         5.93586 
        2.98456         66.6775         5.86063 
        3.00023         66.0809          5.7866 
        3.01596         65.5418         5.71363 
        3.03164         64.6619         5.64214 
        3.04738         64.2888         5.57166 
         3.0631         63.2274         5.50242 
        3.07883         62.8373         5.43437 
        3.09456         61.8277         5.36748 
        3.11026         61.3101         5.30183 
        3.12596          60.667         5.23729 
        3.14163         59.9856         5.17399 
        3.15734         59.1643         5.11158 
        3.17308         58.7247         5.05007 
        3.18879         58.1556         4.98974 
        3.20447         57.6291         4.93049 
         3.2202         56.8088         4.87203 
         3.2359         56.2325         4.81462 
        3.25157         55.8876         4.75828 
        3.26729         55.1198         4.70268 
        3.28304         54.3301         4.64787 
        3.29877         54.0091           4.594 
        3.31446         53.3546         4.54111 
        3.33014         52.8677         4.48911 
        3.34585         52.3943         4.43785 
        3.36158         52.0165         4.38731 
        3.37727         51.3422         4.33773 
        3.39294         50.7995         4.28896 
        3.40867         50.3559         4.24078 
        3.42439         49.7635         4.19336 
        3.44008         49.1846         4.14677 
        3.45578         48.8217         4.10085 
        3.47153         48.3843         4.05553 
        3.48724         47.8284         4.01098 
        3.50292         47.3515         3.96721 
        3.51859         46.9396         3.92412 
        3.53431          46.384         3.88153 
        3.55007         45.8596         3.83948 
        3.56577          45.426         3.79823 
        3.58146         44.8944         3.75759 
        3.59719         44.5499         3.71747 
        3.61292         44.0251         3.67795 
        3.62859         43.7211         3.63915 
        3.64429          43.372         3.60084 
        3.66003         42.9348         3.56297 
        3.67578         42.4736         3.52567 
        3.69146         42.0551         3.48904 
        3.70712         41.7287           3.453 
        3.72284         41.2974         3.41734 
        3.73853         40.9003         3.38225 
        3.75422         40.4287         3.34764 
        3.76993         40.1121         3.31349 
        3.78564         39.7236         3.27983 
        3.80137         39.3795         3.24659 
        3.81707         38.9432         3.21388 
        3.83279         38.6281          3.1816 
        3.84853         38.1877         3.14971 
        3.86424         37.8399         3.11833 
        3.87992         37.4784         3.08742 
        3.89561         37.2058         3.05693 
        3.91134         36.8696         3.02679 
        3.92704         36.4502          2.9971 
        3.94273          36.181         2.96784 
        3.95845         35.7778         2.93891 
        3.97418         35.5032         2.91037 
        3.98988         35.1572         2.88225 
        4.00554         34.8042         2.85458 
        4.02125         34.5743          2.8272 
        4.03698         34.1642         2.80013 
        4.05268         34.0379         2.77348 
        4.06839         33.6221         2.74716 
         4.0841         33.4034          2.7212 
        4.09983         32.9788         2.69553 
        4.11555         32.7608         2.67021 
        4.13124         32.3519         2.64529 
        4.14693         32.1356         2.62066 
        4.16266         31.8175         2.59629 
        4.17839          31.546         2.57225 
        4.19408         31.2949         2.54857 
        4.20977          31.021         2.52518 
        4.22551         30.7196         2.50203 
        4.24123         30.4999         2.47919 
        4.25691         30.1767         2.45671 
        4.27259         29.9184         2.43449 
        4.28831         29.6977         2.41251 
        4.30404         29.4763         2.39078 
        4.31974         29.2128         2.36937 
        4.33543         28.9203         2.34823 
        4.35116         28.6926          2.3273 
        4.36688         28.4132         2.30664 
        4.38255         28.2379         2.28631 
        4.39825         27.9541         2.26617 
        4.41398         27.7108         2.24625 
         4.4297         27.4859         2.22658 
        4.44541         27.3305         2.20716 
        4.46111         27.0167         2.18798 
        4.47683         26.7863         2.16902 
        4.49251         26.5916         2.15032 
        4.50819         26.3801         2.13185 
         4.5239          26.069         2.11357 
        4.53962         25.9319         2.09548 
        4.55535         25.7029          2.0776 
        4.57106         25.4331         2.05996 
        4.58678         25.2902         2.04251 
         4.6025         25.0967         2.02527 
        4.61821         24.8865         2.00823 
        4.63391         24.5967         1.99141 
         4.6496         24.4241         1.97478 
        4.66532         24.2617         1.95833 
        4.68103         24.0564         1.94207 
        4.69673         23.8578         1.92601 
        4.71241         23.6927         1.91015 
        4.72811         23.4673         1.89444 
        4.74384         23.3103         1.87889 
        4.75955         23.1254         1.86354 
        4.77525         22.8708         1.84837 
        4.79096         22.6954         1.83335 
        4.80669          22.588          1.8185 
         4.8224         22.3724         1.80382 
        4.83809         22.1369         1.78933 
        4.85379         22.0064         1.77498 
         4.8695         21.8284         1.76078 
        4.88521         21.6154         1.74675 
        4.90093         21.5089         1.73286 
        4.91663          21.309         1.71915 
        4.93234         21.0858         1.70556 
        4.94807         20.9371         1.69211 
        4.96377         20.8055         1.67884 
        4.97943         20.6513         1.66573 
        4.99514         20.5191         1.65274 
        5.01086         20.3436         1.63987 
        5.02654         20.1553         1.62717 
        5.04227         20.0256         1.61457 
          5.058          19.839          1.6021 
        5.07371         19.6636         1.58979 
        5.08942         19.5067          1.5776 
        5.10513         19.4444         1.56555 
        5.12084         19.2847         1.55361 
        5.13656         19.0947          1.5418 
        5.15225         18.9747         1.53013 
        5.16796         18.8059         1.51857 
        5.18369         18.6458         1.50712 
         5.1994         18.4817          1.4958 
        5.21509         18.3578         1.48461 
        5.23079         18.2254         1.47353 
        5.24649         18.0808         1.46257 
        5.26217           17.96         1.45172 
        5.27788          17.847         1.44098 
        5.29359         17.6794         1.43033 
        5.30933         17.5146         1.41979 
        5.32504         17.4105         1.40936 
        5.34073          17.253         1.39906 
        5.35646         17.1435         1.38884 
        5.37218         17.0233         1.37871 
        5.38789         16.8706         1.36871 
        5.40357         16.7714         1.35882 
        5.41929         16.6602           1.349 
        5.43502         16.5186         1.33928 
         5.4507         16.3529         1.32968 
        5.46639         16.2457         1.32017 
        5.48212         16.1463         1.31073 
        5.49786         16.0269         1.30138 
        5.51353         15.9447         1.29216 
        5.52921         15.7993         1.28303 
        5.54495         15.7078         1.27395 
        5.56066         15.5633         1.26498 
        5.57637         15.4456         1.25609 
        5.59207         15.3302          1.2473 
        5.60778         15.2546         1.23858 
        5.62346         15.1149         1.22997 
        5.63916          15.016         1.22142 
        5.65487         14.8999         1.21296 
         5.6706         14.7854         1.20456 
        5.68633         14.7056         1.19625 
        5.70203         14.5837         1.18802 
        5.71773          14.488         1.17988 
        5.73344         14.3877         1.17181 
        5.74916          14.282         1.16381 
        5.76486         14.1811          1.1559 
        5.78054         14.0488         1.14807 
        5.79626         13.9593         1.14029 
          5.812          13.891         1.13258 
         5.8277         13.7694         1.12496 
        5.84339         13.6701         1.11741 
        5.85911         13.6038         1.10991 
        5.87484         13.4787         1.10249 
        5.89053         13.3567         1.09515 
        5.90623         13.3114         1.08787 
        5.92195         13.2035         1.08065 
        5.93767         13.1243          1.0735 
        5.95336         13.0101         1.06642 
        5.96905         12.9235         1.05942 
        5.98476         12.8511         1.05246 
        6.00048         12.7572         1.04557 
        6.01617         12.6792         1.03874 
        6.03185         12.5644         1.03199 
        6.04756         12.4954         1.02528 
        6.06331         12.4144         1.01862 
        6.07903         12.3261         1.01203 
        6.09473         12.2305          1.0055 
        6.11044         12.1397        0.999026 
        6.12616         12.0636        0.992611 
        6.14186         11.9988        0.986259 
        6.15755         11.8954        0.979963 
        6.17326         11.8194        0.973717 
        6.18898         11.7347        0.967524 
        6.20467         11.6349        0.961395 
        6.22036         11.5638        0.955321 
         6.2361         11.4968        0.949282 
         6.2518         11.4242        0.943307 
        6.26748          11.362        0.937396 
        6.28319         11.2688        0.931519 
        6.29893         11.2053        0.925689 
        6.31463         11.1187        0.919918 
        6.33033         11.0565        0.914199 
        6.34604         10.9617        0.908524 
        6.36177         10.8832        0.902893 
        6.37747         10.8349         0.89732 
