# k  (h/Mpc)    Pcb(k)  (Mpc/h)^3    Pcb_linear(k) (Mpc/h)^3   ShotnoiseSubtracted = true
      0.0200456         56.8442         57.6613 
      0.0350414         42.4003         42.3543 
      0.0492313         30.5775         30.4239 
      0.0637834         25.5356         25.4473 
      0.0800726         20.8409         20.8748 
       0.096163         15.2707         15.2269 
       0.111083         11.8964           11.85 
       0.126058         10.5124         10.4986 
       0.142273         9.21223         9.23198 
       0.158546          7.3958         7.37405 
        0.17375          6.0589         6.04572 
       0.188953         5.43752         5.43208 
       0.204907         4.97118         4.95189 
       0.220756          4.2725         4.26516 
        0.23588         3.66289         3.64776 
         0.2514         3.27256          3.2684 
       0.267535         3.00394         3.00697 
       0.283568         2.70145         2.70134 
       0.299022         2.39945         2.39279 
       0.314451         2.15626         2.16182 
       0.330372         1.99252         1.99468 
       0.346141         1.83294         1.83543 
       0.361624          1.6727          1.6711 
       0.377134         1.53239         1.52765 
       0.392932         1.40356         1.41401 
       0.408854         1.31537          1.3138 
       0.424564         1.21259          1.2161 
       0.440253         1.12428         1.12524 
       0.455999         1.04987         1.04763 
       0.471626        0.983545        0.980617 
        0.48727        0.916371        0.917771 
       0.502856        0.856069        0.858616 
       0.518488        0.808234        0.805035 
       0.534347        0.762101        0.756753 
       0.550082        0.711535        0.712771 
       0.565732        0.666379        0.671842 
       0.581496        0.633809         0.63365 
       0.597222        0.599769        0.598939 
       0.612804        0.566725         0.56732 
       0.628434          0.5396        0.537765 
       0.644267        0.509651        0.509849 
       0.660051         0.48295        0.484026 
       0.675724         0.46051        0.460289 
       0.691403        0.439203        0.438186 
       0.707174        0.417349        0.417412 
       0.722871        0.396358        0.398067 
        0.73838        0.380765        0.380155 
       0.754018        0.364725        0.363212 
       0.769845        0.348322        0.347119 
        0.78569        0.332459        0.331989 
       0.801365        0.317667        0.317915 
       0.817031         0.30489        0.304673 
       0.832809        0.292329        0.292108 
       0.848511        0.280098        0.280317 
       0.864097        0.268164        0.269267 
       0.879701        0.257467        0.258811 
       0.895507        0.249186        0.248794 
       0.911279        0.239311        0.239335 
        0.92691        0.229859        0.230454 
       0.942635        0.221903        0.221979 
       0.958396        0.213285        0.213919 
       0.974128         0.20567        0.206278 
       0.989692        0.198754        0.199091 
        1.00528        0.192377         0.19224 
        1.02113        0.184484        0.185607 
        1.03692        0.178704        0.179315 
        1.05264        0.172892        0.173348 
        1.06832        0.167339        0.167664 
        1.08405         0.16138        0.162222 
        1.09979        0.156065        0.157021 
        1.11537        0.152179        0.152102 
        1.13105        0.147137        0.147367 
        1.14679        0.142977        0.142817 
        1.16256        0.137626        0.138452 
        1.17828        0.133483        0.134286 
        1.19395        0.129383        0.130308 
         1.2097        0.125575        0.126471 
        1.22537        0.122568         0.12281 
          1.241        0.118776        0.119306 
        1.25666         0.11567        0.115931 
        1.27241        0.112177        0.112672 
        1.28819        0.109002        0.109534 
        1.30392        0.105857        0.106527 
        1.31957        0.103137        0.103646 
        1.33529        0.100062        0.100863 
        1.35108       0.0975573       0.0981721 
        1.36674        0.094451       0.0955995 
         1.3824       0.0928183       0.0931223 
        1.39811       0.0900654       0.0907256 
        1.41389       0.0877337       0.0884049 
        1.42964       0.0858222       0.0861701 
        1.44531       0.0832276       0.0840242 
        1.46101       0.0813273       0.0819475 
        1.47667       0.0790549       0.0799479 
        1.49229       0.0773475        0.078021 
        1.50793       0.0752655       0.0761561 
        1.52367       0.0735688       0.0743407 
        1.53953       0.0720673       0.0725728 
        1.55526       0.0703306       0.0708771 
        1.57092       0.0682755        0.069243 
        1.58662       0.0669833       0.0676571 
        1.60235       0.0656721       0.0661183 
        1.61809       0.0637093       0.0646269 
        1.63369       0.0624592       0.0631952 
        1.64941       0.0612878       0.0617971 
        1.66519       0.0597243       0.0604365 
        1.68085       0.0583217        0.059127 
        1.69652       0.0569807       0.0578563 
        1.71228       0.0560414        0.056616 
        1.72806       0.0544867       0.0554114 
        1.74368       0.0535386       0.0542542 
        1.75933       0.0524366       0.0531281 
        1.77505       0.0512445       0.0520289 
        1.79081       0.0503109       0.0509592 
         1.8065       0.0490452       0.0499244 
        1.82218       0.0481877       0.0489195 
        1.83797       0.0471878       0.0479355 
        1.85367       0.0462407       0.0469844 
        1.86928       0.0454296       0.0460649 
        1.88497       0.0445825       0.0451653 
        1.90073       0.0436211       0.0442865 
        1.91647       0.0426406       0.0434321 
        1.93218       0.0418232       0.0426023 
        1.94787       0.0409722       0.0417956 
        1.96363       0.0403194       0.0410067 
        1.97935       0.0394583       0.0402399 
        1.99499       0.0387615       0.0394973 
        2.01064       0.0381411       0.0387725 
         2.0264       0.0374562       0.0380615 
        2.04216        0.036609       0.0373688 
        2.05781       0.0360312       0.0366978 
        2.07353       0.0352053       0.0360411 
        2.08928       0.0346804       0.0353992 
        2.10499       0.0338934       0.0347747 
        2.12065       0.0334647       0.0341673 
        2.13633       0.0327834       0.0335739 
        2.15211       0.0323492        0.032991 
        2.16785       0.0317529       0.0324236 
        2.18349       0.0310305       0.0318733 
        2.19916       0.0307404       0.0313346 
        2.21489       0.0302338       0.0308067 
        2.23063       0.0296259       0.0302908 
         2.2463       0.0289906        0.029789 
        2.26194       0.0285463          0.0293 
        2.27765       0.0280895       0.0288195 
        2.29341       0.0277095       0.0283486 
        2.30914       0.0271878       0.0278893 
        2.32486       0.0267388       0.0274405 
        2.34061       0.0263172       0.0270009 
        2.35635       0.0258556       0.0265714 
        2.37203        0.025448       0.0261528 
        2.38768       0.0249923       0.0257442 
        2.40339       0.0246079       0.0253428 
        2.41914       0.0242709       0.0249492 
        2.43483       0.0237852       0.0245654 
         2.4505        0.023463       0.0241903 
        2.46622       0.0231281       0.0238218 
        2.48195       0.0227056       0.0234611 
        2.49759        0.022392       0.0231098 
        2.51328       0.0221278       0.0227648 
        2.52906       0.0217631       0.0224248 
        2.54479       0.0214431        0.022093 
        2.56049       0.0211137       0.0217686 
        2.57618       0.0207868       0.0214511 
        2.59189       0.0204833       0.0211394 
        2.60758       0.0201887       0.0208345 
        2.62325       0.0198839        0.020536 
        2.63898       0.0195613       0.0202424 
        2.65468        0.019299       0.0199552 
        2.67044       0.0190652       0.0196723 
        2.68618        0.018758       0.0193956 
        2.70184       0.0184719       0.0191254 
        2.71755       0.0181631       0.0188597 
        2.73329       0.0179246       0.0185987 
        2.74897       0.0177418       0.0183435 
        2.76462       0.0174358       0.0180937 
        2.78034       0.0171973       0.0178475 
        2.79607       0.0169879       0.0176057 
        2.81179        0.016738       0.0173687 
        2.82749       0.0164979       0.0171363 
        2.84321       0.0162763        0.016908 
        2.85893       0.0160237       0.0166839 
        2.87462       0.0158368       0.0164643 
        2.89033       0.0156709       0.0162485 
        2.90605       0.0154095       0.0160364 
        2.92176       0.0152501       0.0158282 
        2.93747        0.015016       0.0156238 
        2.95318       0.0148075        0.015423 
        2.96891       0.0146407       0.0152257 
        2.98456       0.0144928       0.0150327 
        3.00023       0.0142541       0.0148428 
        3.01596       0.0140136       0.0146556 
        3.03164        0.013936       0.0144723 
        3.04738       0.0137299       0.0142915 
         3.0631       0.0134905       0.0141139 
        3.07883       0.0133367       0.0139393 
        3.09456       0.0132298       0.0137678 
        3.11026       0.0130224       0.0135994 
        3.12596       0.0128924       0.0134338 
        3.14163        0.012704       0.0132714 
        3.15734         0.01256       0.0131114 
        3.17308       0.0123831       0.0129536 
        3.18879       0.0122768       0.0127988 
        3.20447       0.0121306       0.0126469 
         3.2202       0.0119736       0.0124969 
         3.2359       0.0118334       0.0123497 
        3.25157       0.0116728       0.0122051 
        3.26729       0.0115814       0.0120625 
        3.28304       0.0114128       0.0119219 
        3.29877       0.0112948       0.0117838 
        3.31446       0.0111579       0.0116481 
        3.33014       0.0109942       0.0115147 
        3.34585       0.0108588       0.0113832 
        3.36158       0.0107519       0.0112536 
        3.37727       0.0106595       0.0111264 
        3.39294       0.0105418       0.0110013 
        3.40867       0.0104423       0.0108777 
        3.42439       0.0103142       0.0107561 
        3.44008       0.0101956       0.0106366 
        3.45578       0.0100733       0.0105188 
        3.47153       0.0099721       0.0104026 
        3.48724      0.00989118       0.0102883 
        3.50292      0.00971043        0.010176 
        3.51859      0.00963583       0.0100655 
        3.53431      0.00955632      0.00995626 
        3.55007      0.00948363       0.0098484 
        3.56577       0.0093921      0.00974257 
        3.58146      0.00922694      0.00963835 
        3.59719      0.00915034      0.00953542 
        3.61292      0.00904018      0.00943405 
        3.62859      0.00897845      0.00933453 
        3.64429      0.00887761      0.00923628 
        3.66003      0.00880601      0.00913914 
        3.67578      0.00871602      0.00904345 
        3.69146      0.00862111      0.00894949 
        3.70712      0.00854522      0.00885705 
        3.72284      0.00844812      0.00876558 
        3.73853      0.00836447      0.00867558 
        3.75422      0.00830453       0.0085868 
        3.76993      0.00820829      0.00849921 
        3.78564      0.00817575      0.00841287 
        3.80137       0.0080829      0.00832761 
        3.81707      0.00797621      0.00824371 
        3.83279      0.00791797       0.0081609 
        3.84853      0.00784996      0.00807911 
        3.86424      0.00776179      0.00799861 
        3.87992      0.00769922      0.00791933 
        3.89561      0.00763861      0.00784112 
        3.91134      0.00757844      0.00776382 
        3.92704      0.00747654      0.00768766 
        3.94273      0.00745552       0.0076126 
        3.95845      0.00735805      0.00753841 
        3.97418       0.0072916       0.0074652 
        3.98988      0.00725743      0.00739307 
        4.00554      0.00715316      0.00732209 
        4.02125      0.00706941      0.00725185 
        4.03698      0.00700684      0.00718242 
        4.05268      0.00691598      0.00711407 
        4.06839      0.00683117      0.00704656 
         4.0841      0.00674774      0.00697996 
        4.09983      0.00667117      0.00691413 
        4.11555      0.00659543      0.00684917 
        4.13124      0.00651714      0.00678524 
        4.14693       0.0064604      0.00672207 
        4.16266      0.00636039      0.00665957 
        4.17839      0.00630499       0.0065979 
        4.19408      0.00623458      0.00653716 
        4.20977      0.00618832      0.00647716 
        4.22551      0.00612533      0.00641778 
        4.24123      0.00606995       0.0063592 
        4.25691      0.00600281      0.00630153 
        4.27259      0.00595214      0.00624455 
        4.28831       0.0059148      0.00618816 
        4.30404      0.00585523      0.00613243 
        4.31974      0.00579653       0.0060775 
        4.33543      0.00575078      0.00602329 
        4.35116      0.00570694      0.00596961 
        4.36688      0.00566723       0.0059166 
        4.38255      0.00563747      0.00586445 
        4.39825       0.0056137      0.00581281 
        4.41398      0.00557885      0.00576169 
         4.4297       0.0055506      0.00571125 
        4.44541      0.00552442      0.00566142 
        4.46111      0.00548477      0.00561223 
        4.47683      0.00548129       0.0055636 
        4.49251      0.00543173      0.00551564 
        4.50819      0.00542985      0.00546826 
         4.5239      0.00542081      0.00542137 
        4.53962      0.00540042      0.00537498 
        4.55535      0.00538583      0.00532912 
        4.57106      0.00539386      0.00528385 
        4.58678      0.00536933      0.00523911 
         4.6025      0.00537793      0.00519488 
        4.61821      0.00537687      0.00515117 
        4.63391      0.00536749      0.00510802 
         4.6496      0.00537443      0.00506538 
        4.66532      0.00535999      0.00502317 
        4.68103      0.00537859      0.00498146 
        4.69673      0.00536929      0.00494027 
        4.71241      0.00540077      0.00489959 
        4.72811      0.00541075       0.0048593 
        4.74384      0.00541591      0.00481942 
        4.75955      0.00544403      0.00478004 
        4.77525      0.00546453      0.00474113 
        4.79096      0.00548737      0.00470261 
        4.80669      0.00549878       0.0046645 
         4.8224      0.00552386      0.00462686 
        4.83809      0.00553279      0.00458968 
        4.85379      0.00560629      0.00455289 
         4.8695      0.00562651      0.00451647 
        4.88521      0.00563496      0.00448047 
        4.90093      0.00568866      0.00444485 
        4.91663      0.00574554      0.00440966 
        4.93234      0.00576641      0.00437481 
        4.94807      0.00583724      0.00434033 
        4.96377      0.00589762      0.00430627 
        4.97943      0.00593323      0.00427266 
        4.99514       0.0059842      0.00423932 
        5.01086      0.00601694      0.00420632 
        5.02654      0.00609791      0.00417375 
        5.04227      0.00614562      0.00414143 
          5.058      0.00623379      0.00410944 
        5.07371      0.00631231      0.00407786 
        5.08942      0.00638148       0.0040466 
        5.10513      0.00641718      0.00401567 
        5.12084      0.00652176      0.00398505 
        5.13656      0.00656148      0.00395476 
        5.15225      0.00666645      0.00392484 
        5.16796      0.00675597      0.00389518 
        5.18369      0.00685608       0.0038658 
         5.1994       0.0069708      0.00383678 
        5.21509      0.00704903      0.00380808 
        5.23079      0.00710278      0.00377965 
        5.24649      0.00727181      0.00375153 
        5.26217      0.00734698      0.00372371 
        5.27788      0.00746039      0.00369615 
        5.29359       0.0075991      0.00366885 
        5.30933      0.00769977       0.0036418 
        5.32504      0.00781595      0.00361506 
        5.34073      0.00797712      0.00358863 
        5.35646      0.00808388      0.00356241 
        5.37218      0.00818171      0.00353644 
        5.38789      0.00832352      0.00351078 
        5.40357      0.00847368       0.0034854 
        5.41929      0.00859854      0.00346022 
        5.43502      0.00878608      0.00343529 
         5.4507      0.00896705      0.00341066 
        5.46639      0.00914447      0.00338628 
        5.48212      0.00920123      0.00336207 
        5.49786      0.00946201      0.00333808 
        5.51353      0.00959844      0.00331444 
        5.52921      0.00975979        0.003291 
        5.54495      0.00996779      0.00326773 
        5.56066       0.0101597       0.0032447 
        5.57637       0.0103591      0.00322191 
        5.59207       0.0105552      0.00319935 
        5.60778       0.0107578        0.003177 
        5.62346       0.0110189       0.0031549 
        5.63916       0.0112031      0.00313299 
        5.65487       0.0113958      0.00311128 
         5.6706       0.0116501      0.00308974 
        5.68633       0.0119289      0.00306841 
        5.70203       0.0121527      0.00304732 
        5.71773       0.0124875      0.00302644 
        5.73344       0.0126499      0.00300574 
        5.74916       0.0129543      0.00298521 
        5.76486       0.0132901      0.00296491 
        5.78054       0.0135179      0.00294483 
        5.79626       0.0137587      0.00292488 
          5.812       0.0141286      0.00290509 
         5.8277       0.0144253      0.00288555 
        5.84339       0.0148155      0.00286619 
        5.85911       0.0151222      0.00284696 
        5.87484       0.0154759      0.00282792 
        5.89053       0.0158659       0.0028091 
        5.90623       0.0163105      0.00279043 
        5.92195       0.0166445      0.00277191 
        5.93767       0.0169875      0.00275356 
        5.95336       0.0173113      0.00273541 
        5.96905       0.0179016      0.00271743 
        5.98476       0.0181665      0.00269959 
        6.00048       0.0186091      0.00268191 
        6.01617       0.0190866      0.00266441 
        6.03185       0.0194247      0.00264708 
        6.04756       0.0200443      0.00262987 
        6.06331       0.0204736      0.00261278 
        6.07903       0.0210054      0.00259588 
        6.09473       0.0213655      0.00257914 
        6.11044       0.0220717      0.00256253 
        6.12616       0.0225872      0.00254608 
        6.14186       0.0230869      0.00252978 
        6.15755       0.0236783      0.00251363 
        6.17326        0.024307      0.00249762 
        6.18898       0.0250182      0.00248173 
        6.20467       0.0256522      0.00246601 
        6.22036       0.0263046      0.00245043 
         6.2361       0.0269791      0.00243494 
         6.2518       0.0277413      0.00241961 
        6.26748       0.0283299      0.00240445 
        6.28319       0.0291064      0.00238938 
        6.29893        0.029837      0.00237442 
        6.31463       0.0308241      0.00235962 
        6.33033       0.0315013      0.00234495 
        6.34604       0.0323495      0.00233039 
        6.36177       0.0333054      0.00231595 
        6.37747       0.0342299      0.00230165 
