# k  (h/Mpc)    Pcb(k)  (Mpc/h)^3    Pcb_linear(k) (Mpc/h)^3   ShotnoiseSubtracted = true
      0.0200456         25252.4         25924.5 
      0.0350414         18046.8         19042.5 
      0.0492313         13326.7         13678.6 
      0.0637834         11653.1         11441.1 
      0.0800726         9416.16         9385.29 
       0.096163         6552.05         6845.98 
       0.111083         5207.11         5327.73 
       0.126058         4782.23         4720.17 
       0.142273         4222.08         4150.69 
       0.158546         3770.35         3315.37 
        0.17375         2998.43         2718.15 
       0.188953         2934.29         2442.26 
       0.204907         2776.47         2226.36 
       0.220756         2426.92         1917.61 
        0.23588         2178.04         1640.03 
         0.2514         1901.49         1469.47 
       0.267535         1911.84         1351.93 
       0.283568         1737.84         1214.52 
       0.299022         1652.04          1075.8 
       0.314451         1573.59         971.952 
       0.330372         1438.88         896.805 
       0.346141         1405.75         825.207 
       0.361624         1350.49         751.323 
       0.377134          1262.6         686.831 
       0.392932         1207.79         635.735 
       0.408854         1191.55         590.683 
       0.424564         1097.51         546.756 
       0.440253         1074.81         505.909 
       0.455999         1052.63         471.015 
       0.471626         1014.13         440.884 
        0.48727         973.851         412.629 
       0.502856         941.433         386.033 
       0.518488         938.608         361.943 
       0.534347         881.039         340.235 
       0.550082          865.78         320.461 
       0.565732          854.87         302.059 
       0.581496         814.556         284.888 
       0.597222         793.943         269.282 
       0.612804         783.377         255.066 
       0.628434         762.825         241.778 
       0.644267         742.632         229.228 
       0.660051         726.812         217.617 
       0.675724         716.758         206.945 
       0.691403         695.877         197.008 
       0.707174         672.419         187.668 
       0.722871         659.672          178.97 
        0.73838         647.888         170.917 
       0.754018         636.707           163.3 
       0.769845         626.389         156.064 
        0.78569         615.874         149.262 
       0.801365         598.927         142.934 
       0.817031         586.654         136.981 
       0.832809         579.397         131.331 
       0.848511         567.016          126.03 
       0.864097         548.329         121.062 
       0.879701         540.571         116.361 
       0.895507         540.099         111.858 
       0.911279         526.844         107.605 
        0.92691         518.616         103.612 
       0.942635         503.973         99.8016 
       0.958396         492.613         96.1776 
       0.974128         487.106         92.7424 
       0.989692          484.02          89.511 
        1.00528         468.125         86.4307 
        1.02113         465.339         83.4487 
        1.03692         454.871           80.62 
        1.05264         448.747         77.9369 
        1.06832         438.257         75.3814 
        1.08405         432.623         72.9348 
        1.09979         425.546         70.5966 
        1.11537         418.542         68.3851 
        1.13105         412.606         66.2561 
        1.14679         400.942         64.2104 
        1.16256         392.375         62.2481 
        1.17828         391.829          60.375 
        1.19395          383.62         58.5861 
         1.2097         373.303         56.8614 
        1.22537          367.77         55.2151 
          1.241         361.459         53.6397 
        1.25666         358.182         52.1224 
        1.27241         351.536         50.6573 
        1.28819         344.451         49.2466 
        1.30392         338.528         47.8943 
        1.31957         333.966         46.5993 
        1.33529          331.08         45.3479 
        1.35108         323.359          44.138 
        1.36674           317.8         42.9814 
         1.3824         313.794         41.8677 
        1.39811         308.335         40.7901 
        1.41389         304.968         39.7467 
        1.42964         300.372          38.742 
        1.44531         297.128         37.7772 
        1.46101         289.573         36.8435 
        1.47667         285.985         35.9445 
        1.49229          282.62         35.0782 
        1.50793         275.437         34.2397 
        1.52367         273.966         33.4235 
        1.53953         268.464         32.6286 
        1.55526         265.247         31.8662 
        1.57092         261.967         31.1316 
        1.58662         258.703         30.4186 
        1.60235         254.073         29.7267 
        1.61809         250.051         29.0562 
        1.63369         247.302         28.4125 
        1.64941         242.935         27.7839 
        1.66519         240.517         27.1722 
        1.68085         237.838         26.5834 
        1.69652         233.922         26.0121 
        1.71228         228.061         25.4545 
        1.72806         225.041         24.9129 
        1.74368          221.62         24.3926 
        1.75933         219.504         23.8863 
        1.77505         216.792         23.3921 
        1.79081         213.875         22.9112 
         1.8065         208.884         22.4459 
        1.82218         206.634         21.9941 
        1.83797         206.056         21.5518 
        1.85367             202         21.1241 
        1.86928         198.165         20.7107 
        1.88497         196.025         20.3062 
        1.90073         193.082         19.9112 
        1.91647         191.433          19.527 
        1.93218         187.834         19.1539 
        1.94787          184.43         18.7912 
        1.96363         182.411         18.4365 
        1.97935         179.783         18.0918 
        1.99499         177.868         17.7579 
        2.01064         174.975         17.4321 
         2.0264         173.743         17.1124 
        2.04216         171.247          16.801 
        2.05781         168.636         16.4993 
        2.07353         166.572          16.204 
        2.08928         163.144         15.9154 
        2.10499         162.168         15.6347 
        2.12065         159.917         15.3616 
        2.13633         157.284         15.0948 
        2.15211         154.999         14.8327 
        2.16785         153.826         14.5776 
        2.18349         151.862         14.3302 
        2.19916         149.699          14.088 
        2.21489         148.085         13.8507 
        2.23063         145.966         13.6187 
         2.2463         143.579         13.3931 
        2.26194         141.419         13.1732 
        2.27765         140.217         12.9572 
        2.29341         138.293         12.7455 
        2.30914         136.935          12.539 
        2.32486         135.113         12.3372 
        2.34061         133.293         12.1396 
        2.35635         131.526         11.9465 
        2.37203         129.986         11.7583 
        2.38768         128.172         11.5745 
        2.40339         126.694         11.3941 
        2.41914         125.194         11.2171 
        2.43483         123.609         11.0446 
         2.4505         122.438         10.8759 
        2.46622         120.776         10.7103 
        2.48195         118.888         10.5481 
        2.49759         117.806         10.3901 
        2.51328         116.739          10.235 
        2.52906         115.138         10.0822 
        2.54479         113.388         9.93299 
        2.56049         111.463         9.78715 
        2.57618         110.594         9.64438 
        2.59189         109.744         9.50427 
        2.60758          108.23         9.36718 
        2.62325         106.745         9.23298 
        2.63898         105.568         9.10097 
        2.65468         104.168         8.97182 
        2.67044         102.916         8.84465 
        2.68618         102.154         8.72026 
        2.70184         101.094         8.59877 
        2.71755         99.4361         8.47931 
        2.73329         98.4494         8.36195 
        2.74897         97.4304         8.24721 
        2.76462         96.2088          8.1349 
        2.78034          94.985         8.02422 
        2.79607         93.8056         7.91551 
        2.81179         93.3674         7.80894 
        2.82749          92.015         7.70448 
        2.84321         90.7729         7.60181 
        2.85893         89.7786         7.50107 
        2.87462         88.8075         7.40233 
        2.89033         87.7654         7.30529 
        2.90605         86.8734         7.20992 
        2.92176         85.7535         7.11632 
        2.93747         84.9414         7.02443 
        2.95318         84.3243         6.93416 
        2.96891         83.5023         6.84545 
        2.98456         82.3319         6.75869 
        3.00023         81.4624         6.67331 
        3.01596         80.3816         6.58916 
        3.03164         79.6473         6.50671 
        3.04738         78.6317         6.42544 
         3.0631         77.7447         6.34559 
        3.07883         76.8765          6.2671 
        3.09456         76.2135         6.18997 
        3.11026          75.448         6.11426 
        3.12596         74.6579         6.03983 
        3.14163         73.8375         5.96682 
        3.15734         73.1186         5.89486 
        3.17308         72.2951         5.82392 
        3.18879          71.555         5.75434 
        3.20447         70.6072         5.68601 
         3.2202         70.0504         5.61859 
         3.2359         69.1449         5.55239 
        3.25157         68.7606         5.48742 
        3.26729          67.866          5.4233 
        3.28304         67.3197         5.36008 
        3.29877         66.4481         5.29796 
        3.31446         65.8655         5.23697 
        3.33014         65.0581           5.177 
        3.34585         64.2486         5.11788 
        3.36158         63.7598          5.0596 
        3.37727         63.2277         5.00242 
        3.39294         62.2951         4.94618 
        3.40867         61.8749         4.89061 
        3.42439         61.2401         4.83593 
        3.44008         60.5481         4.78219 
        3.45578         59.9129         4.72924 
        3.47153         59.2964         4.67698 
        3.48724         58.8287          4.6256 
        3.50292         58.3643         4.57513 
        3.51859         57.6105         4.52543 
        3.53431          57.043         4.47632 
        3.55007         56.6113         4.42783 
        3.56577         56.0681         4.38025 
        3.58146         55.5178         4.33339 
        3.59719         54.8839         4.28711 
        3.61292         54.3375         4.24154 
        3.62859         53.8516          4.1968 
        3.64429         53.4264         4.15262 
        3.66003         52.9017         4.10895 
        3.67578          52.252         4.06592 
        3.69146         51.8695         4.02368 
        3.70712         51.3816         3.98212 
        3.72284         50.9291           3.941 
        3.73853         50.4482         3.90053 
        3.75422         49.8393         3.86062 
        3.76993         49.5243         3.82123 
        3.78564         48.9058         3.78242 
        3.80137         48.5025         3.74408 
        3.81707         48.0175         3.70636 
        3.83279          47.672         3.66913 
        3.84853         47.1681         3.63236 
        3.86424         46.8116         3.59616 
        3.87992         46.3717         3.56052 
        3.89561         45.9736         3.52536 
        3.91134          45.571          3.4906 
        3.92704          45.125         3.45636 
        3.94273         44.6978         3.42261 
        3.95845         44.2647         3.38926 
        3.97418         43.8959         3.35634 
        3.98988         43.4334         3.32391 
        4.00554         43.0955           3.292 
        4.02125         42.6309         3.26042 
        4.03698         42.2104         3.22921 
        4.05268         41.9049         3.19848 
        4.06839          41.468         3.16813 
         4.0841         41.2225         3.13818 
        4.09983         40.8663         3.10858 
        4.11555         40.3422         3.07938 
        4.13124         40.0188         3.05064 
        4.14693         39.8368         3.02224 
        4.16266         39.4601         2.99413 
        4.17839         39.1233         2.96641 
        4.19408         38.6091          2.9391 
        4.20977         38.3739         2.91212 
        4.22551         38.0647         2.88543 
        4.24123         37.7218         2.85909 
        4.25691         37.3711         2.83316 
        4.27259         36.9316         2.80754 
        4.28831         36.7741         2.78219 
        4.30404          36.428         2.75713 
        4.31974         36.1066         2.73244 
        4.33543          35.771         2.70806 
        4.35116         35.5884         2.68393 
        4.36688         35.2659          2.6601 
        4.38255         34.8793         2.63665 
        4.39825         34.5677         2.61343 
        4.41398          34.284         2.59045 
         4.4297         34.0159         2.56777 
        4.44541         33.7362         2.54537 
        4.46111          33.446         2.52325 
        4.47683         33.1935         2.50139 
        4.49251         32.9004         2.47982 
        4.50819         32.5629         2.45852 
         4.5239          32.389         2.43744 
        4.53962         32.0444         2.41659 
        4.55535         31.7887         2.39596 
        4.57106         31.5197         2.37561 
        4.58678         31.1833          2.3555 
         4.6025         31.0422         2.33561 
        4.61821         30.7302         2.31596 
        4.63391         30.4665         2.29656 
         4.6496         30.1912         2.27739 
        4.66532         29.9951         2.25841 
        4.68103         29.7657         2.23966 
        4.69673         29.4755         2.22114 
        4.71241         29.2675         2.20285 
        4.72811         29.0452         2.18474 
        4.74384         28.7644          2.1668 
        4.75955          28.534          2.1491 
        4.77525         28.3556         2.13161 
        4.79096         28.0671         2.11429 
        4.80669         27.8789         2.09716 
         4.8224         27.6725         2.08023 
        4.83809          27.431         2.06352 
        4.85379         27.2234         2.04697 
         4.8695         26.9877          2.0306 
        4.88521         26.7733         2.01441 
        4.90093         26.5898          1.9984 
        4.91663         26.2933         1.98258 
        4.93234         26.1039         1.96691 
        4.94807         25.9385          1.9514 
        4.96377         25.7399          1.9361 
        4.97943         25.5407         1.92098 
        4.99514         25.2697         1.90599 
        5.01086         25.1221         1.89116 
        5.02654         24.9079         1.87651 
        5.04227         24.7033         1.86198 
          5.058         24.6188          1.8476 
        5.07371          24.354          1.8334 
        5.08942          24.151         1.81935 
        5.10513         23.9655         1.80544 
        5.12084         23.7967         1.79168 
        5.13656         23.6082         1.77806 
        5.15225         23.4189          1.7646 
        5.16796          23.251         1.75127 
        5.18369         23.0737         1.73806 
         5.1994         22.9058         1.72501 
        5.21509         22.7465         1.71211 
        5.23079         22.5073         1.69932 
        5.24649         22.3317         1.68668 
        5.26217         22.2055         1.67418 
        5.27788         22.0465         1.66178 
        5.29359         21.8864         1.64951 
        5.30933         21.6793         1.63735 
        5.32504         21.5167         1.62533 
        5.34073         21.3747         1.61344 
        5.35646         21.2247         1.60165 
        5.37218         21.0767         1.58998 
        5.38789         20.8817         1.57844 
        5.40357         20.7399         1.56703 
        5.41929         20.5533         1.55571 
        5.43502         20.4572          1.5445 
         5.4507         20.3281         1.53343 
        5.46639         20.1457         1.52247 
        5.48212          20.016         1.51158 
        5.49786         19.8269          1.5008 
        5.51353         19.6961         1.49017 
        5.52921         19.5091         1.47963 
        5.54495         19.3468         1.46917 
        5.56066         19.2611         1.45882 
        5.57637         19.0992         1.44857 
        5.59207         18.9443         1.43842 
        5.60778         18.8406         1.42838 
        5.62346           18.67         1.41844 
        5.63916         18.5483         1.40859 
        5.65487         18.4057         1.39883 
         5.6706         18.2847         1.38915 
        5.68633         18.1585         1.37955 
        5.70203         17.9938         1.37007 
        5.71773         17.8769         1.36068 
        5.73344         17.7631         1.35138 
        5.74916         17.6216         1.34215 
        5.76486         17.5084         1.33302 
        5.78054         17.3901         1.32399 
        5.79626         17.2855         1.31502 
          5.812         17.1177         1.30613 
         5.8277         17.0304         1.29734 
        5.84339         16.9404         1.28863 
        5.85911         16.8025         1.27999 
        5.87484         16.6532         1.27143 
        5.89053         16.5343         1.26297 
        5.90623         16.4714         1.25458 
        5.92195         16.3436         1.24625 
        5.93767         16.2317           1.238 
        5.95336         16.0802         1.22984 
        5.96905         15.9949         1.22176 
        5.98476         15.8821         1.21373 
        6.00048         15.7478         1.20578 
        6.01617          15.643         1.19791 
        6.03185         15.5548         1.19013 
        6.04756          15.408         1.18239 
        6.06331         15.3152          1.1747 
        6.07903         15.2052          1.1671 
        6.09473         15.1098         1.15958 
        6.11044         15.0062         1.15211 
        6.12616         14.8938         1.14471 
        6.14186          14.787         1.13739 
        6.15755         14.6949         1.13013 
        6.17326         14.5948         1.12292 
        6.18898          14.504         1.11578 
        6.20467         14.4018         1.10871 
        6.22036         14.2831         1.10171 
         6.2361         14.1899         1.09475 
         6.2518         14.1205         1.08785 
        6.26748         14.0283         1.08104 
        6.28319         13.9148         1.07426 
        6.29893         13.8103         1.06754 
        6.31463         13.7169         1.06088 
        6.33033         13.6357         1.05429 
        6.34604         13.5526         1.04774 
        6.36177         13.4682         1.04125 
        6.37747         13.3393         1.03482 
