# k  (h/Mpc)    Pcb(k)  (Mpc/h)^3    Pcb_linear(k) (Mpc/h)^3   ShotnoiseSubtracted = true
      0.0200456         17037.1         17337.8 
      0.0350414         13093.4         12735.2 
      0.0492313         8997.13         9147.95 
      0.0637834          7310.5         7651.58 
      0.0800726         5902.94          6276.7 
       0.096163          4715.9         4578.46 
       0.111083         3770.46         3563.08 
       0.126058         3122.02         3156.76 
       0.142273         2781.74          2775.9 
       0.158546         2300.22         2217.25 
        0.17375         2012.08         1817.84 
       0.188953         1883.51         1633.33 
       0.204907          1633.1         1488.95 
       0.220756         1479.23         1282.46 
        0.23588         1313.33         1096.82 
         0.2514         1180.42         982.752 
       0.267535         1147.43         904.145 
       0.283568         1016.03         812.245 
       0.299022         970.458         719.472 
       0.314451         1000.17         650.023 
       0.330372          870.22         599.766 
       0.346141         802.848         551.882 
       0.361624         770.528          502.47 
       0.377134         732.906         459.339 
       0.392932         705.186         425.167 
       0.408854         672.771         395.037 
       0.424564         655.051          365.66 
       0.440253         600.656         338.342 
       0.455999         575.062         315.005 
       0.471626         585.309         294.855 
        0.48727         553.082         275.958 
       0.502856         518.668         258.171 
       0.518488         512.893          242.06 
       0.534347         483.093         227.543 
       0.550082         463.146         214.318 
       0.565732         459.564         202.011 
       0.581496         447.514         190.528 
       0.597222         435.018         180.091 
       0.612804         425.074         170.583 
       0.628434         407.691         161.697 
       0.644267         393.133         153.303 
       0.660051         387.725         145.538 
       0.675724         381.078         138.401 
       0.691403         371.918         131.755 
       0.707174         358.257         125.509 
       0.722871         352.468         119.692 
        0.73838         347.345         114.306 
       0.754018         334.837         109.212 
       0.769845         332.595         104.373 
        0.78569         325.513         99.8234 
       0.801365         315.442         95.5916 
       0.817031         311.441         91.6099 
       0.832809         306.108         87.8319 
       0.848511         298.848         84.2866 
       0.864097         291.713         80.9641 
       0.879701         289.613           77.82 
       0.895507         281.169         74.8081 
       0.911279         274.183         71.9641 
        0.92691          271.96         69.2934 
       0.942635         269.389         66.7454 
       0.958396         261.452         64.3217 
       0.974128         258.238         62.0243 
       0.989692         248.891         59.8632 
        1.00528         248.372         57.8031 
        1.02113           244.5         55.8088 
        1.03692         238.753         53.9171 
        1.05264         234.903         52.1227 
        1.06832         234.243         50.4136 
        1.08405         227.707         48.7774 
        1.09979         225.945         47.2136 
        1.11537         220.826         45.7346 
        1.13105         216.987         44.3108 
        1.14679         214.995         42.9427 
        1.16256         212.169         41.6303 
        1.17828         209.347         40.3776 
        1.19395         203.688         39.1813 
         1.2097         203.122         38.0278 
        1.22537         200.914         36.9268 
          1.241         195.431         35.8732 
        1.25666         193.451         34.8584 
        1.27241         189.611         33.8786 
        1.28819         187.491         32.9351 
        1.30392         184.755         32.0308 
        1.31957         180.287         31.1647 
        1.33529         177.921         30.3278 
        1.35108         176.543         29.5187 
        1.36674         172.931         28.7451 
         1.3824         171.439         28.0003 
        1.39811         168.748         27.2796 
        1.41389         165.354         26.5818 
        1.42964         163.314         25.9099 
        1.44531         161.443         25.2646 
        1.46101         158.147         24.6402 
        1.47667         157.138          24.039 
        1.49229         154.661         23.4596 
        1.50793         151.884         22.8988 
        1.52367          150.36          22.353 
        1.53953         147.119         21.8214 
        1.55526         146.616         21.3115 
        1.57092         144.798         20.8202 
        1.58662         141.197         20.3433 
        1.60235         139.885         19.8806 
        1.61809         137.762         19.4322 
        1.63369         135.864         19.0017 
        1.64941          134.82         18.5813 
        1.66519         132.633         18.1722 
        1.68085         130.272         17.7785 
        1.69652         128.857         17.3964 
        1.71228         127.654         17.0235 
        1.72806         126.091         16.6613 
        1.74368          124.19         16.3133 
        1.75933         123.115         15.9747 
        1.77505         120.732         15.6442 
        1.79081         118.988         15.3226 
         1.8065         117.057         15.0114 
        1.82218         115.677         14.7092 
        1.83797         115.148         14.4134 
        1.85367         113.112         14.1274 
        1.86928         112.146         13.8509 
        1.88497         110.196         13.5804 
        1.90073          109.38         13.3162 
        1.91647         107.597         13.0593 
        1.93218         106.325         12.8098 
        1.94787         104.523         12.5672 
        1.96363         103.743           12.33 
        1.97935         102.453         12.0995 
        1.99499         101.687         11.8762 
        2.01064         99.2368         11.6582 
         2.0264         98.7164         11.4444 
        2.04216         96.5796         11.2362 
        2.05781          96.016         11.0344 
        2.07353         94.6528         10.8369 
        2.08928          93.361         10.6439 
        2.10499         92.3244         10.4561 
        2.12065         91.7209         10.2735 
        2.13633         90.5006         10.0951 
        2.15211           88.99         9.91983 
        2.16785         87.6877         9.74923 
        2.18349         86.4626         9.58374 
        2.19916         85.4914         9.42178 
        2.21489         84.6724         9.26306 
        2.23063         83.4055         9.10791 
         2.2463           82.73         8.95705 
        2.26194         81.6384            8.81 
        2.27765         80.6173         8.66552 
        2.29341         79.6674         8.52394 
        2.30914         78.6691         8.38583 
        2.32486          77.121         8.25088 
        2.34061         76.6724         8.11871 
        2.35635         75.5627         7.98956 
        2.37203         74.5442          7.8637 
        2.38768         73.8081         7.74082 
        2.40339         73.1533         7.62015 
        2.41914         71.8669         7.50179 
        2.43483         71.3001         7.38638 
         2.4505         70.3047         7.27361 
        2.46622         69.7079         7.16282 
        2.48195         68.7156         7.05435 
        2.49759         67.8579         6.94872 
        2.51328         67.0355           6.845 
        2.52906         65.9834         6.74275 
        2.54479         65.4263         6.64299 
        2.56049         64.7122         6.54545 
        2.57618         63.7585         6.44997 
        2.59189         63.3175         6.35627 
        2.60758           62.34         6.26459 
        2.62325         61.6334         6.17484 
        2.63898         61.0076         6.08655 
        2.65468          60.387         6.00018 
        2.67044          59.675         5.91513 
        2.68618         59.0674         5.83194 
        2.70184         58.2355         5.75069 
        2.71755         57.4799          5.6708 
        2.73329         56.9283         5.59231 
        2.74897         56.4176         5.51558 
        2.76462         55.9739         5.44046 
        2.78034         55.2689         5.36644 
        2.79607         54.5179         5.29374 
        2.81179         53.8203         5.22247 
        2.82749         53.3491          5.1526 
        2.84321         52.8335         5.08394 
        2.85893         52.2249         5.01657 
        2.87462          51.551         4.95053 
        2.89033         50.8676         4.88564 
        2.90605         50.4069         4.82186 
        2.92176         49.9328         4.75925 
        2.93747         49.2877          4.6978 
        2.95318         48.8334         4.63743 
        2.96891         48.2331          4.5781 
        2.98456         47.7106         4.52008 
        3.00023         47.0166         4.46298 
        3.01596         46.6386          4.4067 
        3.03164         46.2164         4.35156 
        3.04738         45.7135         4.29721 
         3.0631         45.1041         4.24381 
        3.07883         44.6708         4.19132 
        3.09456         44.0909         4.13973 
        3.11026         43.6927          4.0891 
        3.12596          43.316         4.03932 
        3.14163         42.7935         3.99049 
        3.15734         42.3205         3.94237 
        3.17308         41.9531         3.89492 
        3.18879         41.5761         3.84839 
        3.20447         41.1612          3.8027 
         3.2202         40.6199          3.7576 
         3.2359         40.2841         3.71333 
        3.25157         39.8113         3.66988 
        3.26729         39.3602           3.627 
        3.28304          39.066         3.58472 
        3.29877         38.4713         3.54317 
        3.31446         38.2371         3.50238 
        3.33014         37.8226         3.46228 
        3.34585         37.3175         3.42274 
        3.36158         37.0032         3.38376 
        3.37727         36.6592         3.34552 
        3.39294         36.2534         3.30791 
        3.40867         35.9208         3.27074 
        3.42439         35.4839         3.23417 
        3.44008         35.2001         3.19824 
        3.45578         34.7592         3.16282 
        3.47153         34.5139         3.12787 
        3.48724         34.1174         3.09351 
        3.50292         33.7506         3.05975 
        3.51859         33.5662         3.02652 
        3.53431         33.2322         2.99368 
        3.55007         32.7152         2.96124 
        3.56577         32.6586         2.92942 
        3.58146         32.1743         2.89809 
        3.59719           31.84         2.86714 
        3.61292         31.5921         2.83666 
        3.62859         31.2467         2.80673 
        3.64429         30.9858         2.77719 
        3.66003         30.6646         2.74798 
        3.67578         30.4299         2.71921 
        3.69146         30.1212         2.69096 
        3.70712          29.777         2.66316 
        3.72284         29.4881         2.63566 
        3.73853         29.3183          2.6086 
        3.75422         29.0218          2.5819 
        3.76993         28.7397         2.55557 
        3.78564         28.4659         2.52961 
        3.80137         28.2171         2.50397 
        3.81707         27.9355         2.47874 
        3.83279          27.652         2.45384 
        3.84853         27.4045         2.42925 
        3.86424         27.0865         2.40504 
        3.87992         26.8253         2.38121 
        3.89561         26.6755         2.35769 
        3.91134         26.4069         2.33445 
        3.92704         26.1006         2.31155 
        3.94273         25.8394         2.28898 
        3.95845          25.715         2.26667 
        3.97418         25.3921         2.24466 
        3.98988         25.1496         2.22297 
        4.00554         24.8668         2.20163 
        4.02125         24.7297         2.18051 
        4.03698         24.5148         2.15963 
        4.05268         24.2787         2.13908 
        4.06839         24.0107         2.11878 
         4.0841         23.8781         2.09875 
        4.09983         23.5568         2.07896 
        4.11555         23.3762         2.05943 
        4.13124         23.2887         2.04021 
        4.14693         22.9446         2.02121 
        4.16266         22.7947         2.00242 
        4.17839         22.6584         1.98388 
        4.19408         22.3771         1.96561 
        4.20977         22.2262         1.94757 
        4.22551         22.0155         1.92972 
        4.24123         21.8064          1.9121 
        4.25691          21.601         1.89476 
        4.27259         21.4471         1.87763 
        4.28831         21.2545         1.86067 
        4.30404         21.0749         1.84392 
        4.31974         20.8429          1.8274 
        4.33543         20.7065          1.8111 
        4.35116         20.5106         1.79496 
        4.36688         20.3218         1.77902 
        4.38255         20.1279         1.76334 
        4.39825         20.0046         1.74781 
        4.41398         19.8238         1.73244 
         4.4297         19.6193         1.71727 
        4.44541         19.4259         1.70229 
        4.46111         19.2924          1.6875 
        4.47683         19.1181         1.67288 
        4.49251         19.0005         1.65846 
        4.50819         18.8247         1.64421 
         4.5239         18.6696         1.63011 
        4.53962         18.5324         1.61617 
        4.55535         18.3381         1.60237 
        4.57106         18.2337         1.58876 
        4.58678         18.0991         1.57531 
         4.6025         17.8375         1.56201 
        4.61821          17.734         1.54887 
        4.63391         17.6043         1.53589 
         4.6496         17.4829         1.52307 
        4.66532         17.2885         1.51038 
        4.68103         17.1791         1.49784 
        4.69673         17.0669         1.48545 
        4.71241         16.9582         1.47322 
        4.72811         16.7734         1.46111 
        4.74384          16.622         1.44912 
        4.75955         16.5064         1.43728 
        4.77525         16.3777         1.42558 
        4.79096          16.197           1.414 
        4.80669         16.0815         1.40254 
         4.8224         15.9351         1.39122 
        4.83809         15.8212         1.38004 
        4.85379          15.728         1.36897 
         4.8695          15.593         1.35802 
        4.88521         15.4874          1.3472 
        4.90093         15.3577         1.33649 
        4.91663         15.1861         1.32591 
        4.93234          15.085         1.31543 
        4.94807         14.9942         1.30506 
        4.96377         14.8696         1.29482 
        4.97943         14.7308         1.28472 
        4.99514         14.6147         1.27469 
        5.01086         14.5499         1.26477 
        5.02654         14.4118         1.25497 
        5.04227         14.2631         1.24526 
          5.058         14.1696         1.23564 
        5.07371         14.0571         1.22614 
        5.08942         13.9868         1.21674 
        5.10513         13.8744         1.20744 
        5.12084         13.7456         1.19824 
        5.13656          13.657         1.18913 
        5.15225         13.5287         1.18013 
        5.16796          13.408         1.17121 
        5.18369         13.3145         1.16238 
         5.1994         13.2437         1.15365 
        5.21509         13.1246         1.14502 
        5.23079          13.035         1.13648 
        5.24649         12.9258         1.12802 
        5.26217          12.838         1.11966 
        5.27788         12.7249         1.11137 
        5.29359         12.6102         1.10316 
        5.30933         12.5518         1.09503 
        5.32504         12.4765         1.08699 
        5.34073          12.346         1.07904 
        5.35646         12.2519         1.07115 
        5.37218         12.1457         1.06335 
        5.38789          12.055         1.05563 
        5.40357         11.9992           1.048 
        5.41929         11.9002         1.04043 
        5.43502          11.806         1.03293 
         5.4507         11.7386         1.02553 
        5.46639         11.6304          1.0182 
        5.48212         11.5507         1.01092 
        5.49786         11.4764          1.0037 
        5.51353         11.3786        0.996594 
        5.52921         11.3173        0.989548 
        5.54495         11.2421         0.98255 
        5.56066         11.1435        0.975627 
        5.57637          11.042        0.968772 
        5.59207         10.9878         0.96199 
        5.60778         10.9104         0.95527 
        5.62346         10.7923        0.948625 
        5.63916         10.7428        0.942036 
        5.65487         10.6878        0.935507 
         5.6706         10.5831        0.929033 
        5.68633         10.5084        0.922618 
        5.70203         10.4305        0.916277 
        5.71773         10.3576        0.909997 
        5.73344          10.275        0.903773 
        5.74916         10.2236        0.897602 
        5.76486         10.1521        0.891497 
        5.78054         10.0745        0.885459 
        5.79626         10.0273         0.87946 
          5.812         9.92711        0.873511 
         5.8277         9.85645        0.867635 
        5.84339          9.7805        0.861813 
        5.85911         9.70934        0.856033 
        5.87484         9.64913        0.850308 
        5.89053         9.57381        0.844647 
        5.90623         9.50978        0.839035 
        5.92195         9.44267        0.833465 
        5.93767         9.40147        0.827949 
        5.95336         9.31033        0.822492 
        5.96905         9.25811        0.817086 
        5.98476         9.20112        0.811722 
        6.00048         9.14289        0.806404 
        6.01617         9.06455        0.801142 
        6.03185          9.0049        0.795933 
        6.04756         8.93338        0.790758 
        6.06331         8.89067        0.785618 
        6.07903         8.82997        0.780535 
        6.09473         8.76674        0.775502 
        6.11044         8.69602         0.77051 
        6.12616         8.65001        0.765562 
        6.14186         8.57624        0.760663 
        6.15755         8.53182        0.755807 
        6.17326         8.47551         0.75099 
        6.18898          8.4042        0.746213 
        6.20467         8.35347        0.741487 
        6.22036         8.30048        0.736801 
         6.2361         8.24453        0.732144 
         6.2518         8.20389        0.727536 
        6.26748         8.13363        0.722977 
        6.28319         8.09315        0.718444 
        6.29893         8.04821        0.713947 
        6.31463         7.97542        0.709497 
        6.33033         7.93451        0.705086 
        6.34604         7.87642        0.700709 
        6.36177          7.8262        0.696366 
        6.37747          7.7665        0.692068 
