# k  (h/Mpc)    Pcb(k)  (Mpc/h)^3    Pcb_linear(k) (Mpc/h)^3   ShotnoiseSubtracted = true
      0.0200456         3975.29         4042.47 
      0.0350414          2922.5         2969.34 
      0.0492313         2133.75         2132.93 
      0.0637834         1812.48         1784.04 
      0.0800726         1478.03         1463.47 
       0.096163         1054.31         1067.51 
       0.111083         818.444         830.767 
       0.126058         744.781         736.029 
       0.142273         658.828         647.227 
       0.158546         536.535         516.974 
        0.17375         428.944         423.848 
       0.188953         400.019         380.828 
       0.204907         379.251         347.163 
       0.220756         320.844         299.018 
        0.23588         277.424         255.734 
         0.2514         244.163         229.138 
       0.267535         230.544          210.81 
       0.283568         209.844         189.383 
       0.299022         191.251         167.752 
       0.314451         171.935         151.559 
       0.330372         160.287         139.841 
       0.346141         145.805         128.677 
       0.361624         136.979         117.156 
       0.377134         128.762         107.099 
       0.392932         115.556         99.1318 
       0.408854          111.53         92.1067 
       0.424564         106.477         85.2572 
       0.440253         98.7382         78.8876 
       0.455999         93.0946         73.4466 
       0.471626         86.5469         68.7482 
        0.48727         83.6012         64.3423 
       0.502856         79.1475         60.1951 
       0.518488         76.0846         56.4387 
       0.534347         73.1594         53.0538 
       0.550082         67.3261         49.9703 
       0.565732          63.724         47.1009 
       0.581496         61.9074         44.4234 
       0.597222         59.9305         41.9899 
       0.612804         56.4114         39.7732 
       0.628434         54.8246         37.7011 
       0.644267         53.3391         35.7441 
       0.660051         51.1479         33.9336 
       0.675724         48.7518         32.2695 
       0.691403           47.29           30.72 
       0.707174         45.9371         29.2635 
       0.722871         44.2184         27.9073 
        0.73838         42.9401         26.6516 
       0.754018         41.0347         25.4637 
       0.769845         40.0648         24.3355 
        0.78569         38.8757         23.2748 
       0.801365         37.5098         22.2881 
       0.817031         36.6892         21.3597 
       0.832809         35.9971         20.4789 
       0.848511         33.9216         19.6522 
       0.864097         33.3757         18.8776 
       0.879701         32.7269         18.1445 
       0.895507         32.0864         17.4422 
       0.911279          31.078         16.7791 
        0.92691         30.3263         16.1564 
       0.942635         29.2144         15.5623 
       0.958396         28.8306         14.9972 
       0.974128         27.9774         14.4616 
       0.989692         27.6842         13.9577 
        1.00528         27.0442         13.4774 
        1.02113         26.0367         13.0124 
        1.03692         25.5407         12.5713 
        1.05264          25.098         12.1529 
        1.06832          24.528         11.7544 
        1.08405         23.9465         11.3729 
        1.09979          23.485         11.0083 
        1.11537         22.9957         10.6635 
        1.13105         22.6981         10.3315 
        1.14679         22.3782         10.0125 
        1.16256         21.5915          9.7065 
        1.17828         21.5231         9.41443 
        1.19395         20.8547         9.13549 
         1.2097         20.6956         8.86655 
        1.22537         20.1912         8.60984 
          1.241         19.8751         8.36417 
        1.25666         19.3802         8.12758 
        1.27241         19.0388         7.89912 
        1.28819         18.6666         7.67915 
        1.30392         18.5242         7.46828 
        1.31957         18.2902         7.26635 
        1.33529         18.0031         7.07122 
        1.35108         17.5728         6.88256 
        1.36674         17.3808          6.7022 
         1.3824         16.9927         6.52854 
        1.39811         16.7515         6.36051 
        1.41389         16.5869         6.19781 
        1.42964         16.3473         6.04113 
        1.44531         16.1946         5.89069 
        1.46101         15.7275          5.7451 
        1.47667         15.5642         5.60492 
        1.49229         15.3868         5.46983 
        1.50793         15.1631         5.33908 
        1.52367         14.9527         5.21181 
        1.53953         14.7526         5.08787 
        1.55526         14.5217         4.96899 
        1.57092         14.3165         4.85443 
        1.58662         14.1861         4.74324 
        1.60235         13.9461         4.63536 
        1.61809         13.7943         4.53081 
        1.63369         13.6002         4.43043 
        1.64941         13.3779         4.33241 
        1.66519         13.2926         4.23703 
        1.68085         13.0849         4.14522 
        1.69652         12.9101         4.05614 
        1.71228         12.7362         3.96918 
        1.72806         12.6719         3.88473 
        1.74368          12.455         3.80361 
        1.75933         12.3171         3.72466 
        1.77505         12.1637          3.6476 
        1.79081         11.9666          3.5726 
         1.8065         11.8989         3.50005 
        1.82218          11.686          3.4296 
        1.83797         11.6052         3.36062 
        1.85367         11.4324         3.29394 
        1.86928         11.4203         3.22948 
        1.88497         11.1674         3.16641 
        1.90073          11.133          3.1048 
        1.91647         11.0204          3.0449 
        1.93218         10.9109         2.98672 
        1.94787         10.7405         2.93017 
        1.96363         10.6654         2.87486 
        1.97935         10.5048         2.82111 
        1.99499         10.3654         2.76904 
        2.01064         10.2746         2.71823 
         2.0264          10.192         2.66838 
        2.04216         10.0777         2.61982 
        2.05781         9.92981         2.57278 
        2.07353         9.87574         2.52674 
        2.08928         9.77733         2.48173 
        2.10499         9.72513         2.43795 
        2.12065         9.56727         2.39537 
        2.13633         9.53896         2.35377 
        2.15211         9.38744          2.3129 
        2.16785         9.32657         2.27313 
        2.18349         9.25663         2.23454 
        2.19916         9.14852         2.19678 
        2.21489         9.03751         2.15977 
        2.23063         8.96527          2.1236 
         2.2463         8.85349         2.08842 
        2.26194         8.76548         2.05414 
        2.27765         8.73237         2.02045 
        2.29341         8.63611         1.98744 
        2.30914         8.51911         1.95524 
        2.32486         8.44275         1.92377 
        2.34061         8.38434         1.89295 
        2.35635         8.34049         1.86284 
        2.37203         8.24642          1.8335 
        2.38768         8.13256         1.80485 
        2.40339         8.09278         1.77671 
        2.41914         7.97334         1.74911 
        2.43483         7.95785         1.72221 
         2.4505         7.88358         1.69591 
        2.46622         7.80634         1.67008 
        2.48195         7.72647         1.64479 
        2.49759         7.69151         1.62016 
        2.51328         7.59755         1.59598 
        2.52906         7.56667         1.57214 
        2.54479         7.48109         1.54888 
        2.56049         7.42532         1.52614 
        2.57618         7.37335         1.50387 
        2.59189         7.26921         1.48203 
        2.60758          7.2573         1.46065 
        2.62325         7.17374         1.43972 
        2.63898         7.08348         1.41914 
        2.65468         7.02525           1.399 
        2.67044          6.9892         1.37917 
        2.68618         6.94434         1.35977 
        2.70184           6.874         1.34083 
        2.71755         6.80463          1.3222 
        2.73329         6.76992          1.3039 
        2.74897         6.72715         1.28601 
        2.76462         6.68136          1.2685 
        2.78034         6.59867         1.25124 
        2.79607          6.5533         1.23429 
        2.81179         6.52316         1.21767 
        2.82749         6.44383         1.20138 
        2.84321         6.44935         1.18537 
        2.85893         6.37542         1.16966 
        2.87462         6.29889         1.15426 
        2.89033         6.25467         1.13913 
        2.90605         6.20116         1.12426 
        2.92176         6.14166         1.10967 
        2.93747         6.10675         1.09534 
        2.95318         6.08162         1.08126 
        2.96891         6.01659         1.06743 
        2.98456         5.97725          1.0539 
        3.00023         5.91379         1.04059 
        3.01596         5.88037         1.02746 
        3.03164         5.85552         1.01461 
        3.04738         5.81251         1.00193 
         3.0631         5.75258        0.989484 
        3.07883         5.70962        0.977246 
        3.09456         5.67018        0.965218 
        3.11026         5.64725        0.953412 
        3.12596         5.59968        0.941806 
        3.14163         5.54128        0.930422 
        3.15734         5.50071          0.9192 
        3.17308         5.47593        0.908138 
        3.18879         5.42082         0.89729 
        3.20447         5.40603        0.886635 
         3.2202         5.34006        0.876122 
         3.2359         5.32615        0.865799 
        3.25157         5.26706        0.855668 
        3.26729         5.25352        0.845669 
        3.28304         5.20228        0.835812 
        3.29877         5.15915        0.826125 
        3.31446          5.1178        0.816615 
        3.33014         5.10022        0.807263 
        3.34585         5.06257        0.798045 
        3.36158         5.03912        0.788957 
        3.37727         4.99554        0.780041 
        3.39294         4.97616        0.771271 
        3.40867         4.91814        0.762606 
        3.42439         4.89521        0.754079 
        3.44008          4.8557          0.7457 
        3.45578         4.81994        0.737443 
        3.47153         4.78867        0.729294 
        3.48724         4.76194        0.721283 
        3.50292         4.72974        0.713411 
        3.51859         4.69088        0.705662 
        3.53431         4.64897        0.698004 
        3.55007         4.64011        0.690443 
        3.56577         4.61511        0.683023 
        3.58146         4.57932        0.675717 
        3.59719         4.54947        0.668501 
        3.61292         4.52043        0.661394 
        3.62859         4.47707        0.654417 
        3.64429         4.45056        0.647529 
        3.66003         4.43367        0.640719 
        3.67578         4.39843         0.63401 
        3.69146          4.3575        0.627423 
        3.70712         4.34055        0.620942 
        3.72284         4.30917         0.61453 
        3.73853         4.28898        0.608219 
        3.75422         4.25672        0.601996 
        3.76993         4.22076        0.595855 
        3.78564         4.20092        0.589802 
        3.80137          4.1814        0.583824 
        3.81707         4.14306        0.577942 
        3.83279         4.11935        0.572137 
        3.84853         4.07676        0.566403 
        3.86424         4.06391        0.560759 
        3.87992         4.03799        0.555201 
        3.89561         4.02013        0.549718 
        3.91134           3.982        0.544299 
        3.92704         3.95808        0.538959 
        3.94273         3.93844        0.533697 
        3.95845         3.91963        0.528496 
        3.97418         3.88433        0.523363 
        3.98988         3.86691        0.518306 
        4.00554         3.83792         0.51333 
        4.02125         3.79984        0.508406 
        4.03698         3.77977        0.503539 
        4.05268         3.75314        0.498747 
        4.06839         3.74109        0.494014 
         4.0841         3.70267        0.489345 
        4.09983         3.67812        0.484729 
        4.11555         3.65482        0.480176 
        4.13124         3.63354        0.475693 
        4.14693         3.60642        0.471265 
        4.16266         3.58773        0.466883 
        4.17839         3.56775         0.46256 
        4.19408         3.53217        0.458301 
        4.20977         3.51351        0.454095 
        4.22551          3.4857        0.449932 
        4.24123         3.46525        0.445825 
        4.25691         3.44505        0.441782 
        4.27259         3.43283        0.437787 
        4.28831         3.40184        0.433834 
        4.30404         3.37879        0.429927 
        4.31974         3.36394        0.426076 
        4.33543         3.33663        0.422275 
        4.35116         3.31138        0.418512 
        4.36688         3.30414        0.414796 
        4.38255         3.27586        0.411139 
        4.39825         3.26242        0.407519 
        4.41398         3.24698        0.403936 
         4.4297         3.22083        0.400399 
        4.44541         3.20115        0.396906 
        4.46111         3.18094        0.393457 
        4.47683         3.15269        0.390048 
        4.49251          3.1411        0.386685 
        4.50819          3.1211        0.383364 
         4.5239         3.10533        0.380077 
        4.53962         3.08464        0.376825 
        4.55535         3.06892        0.373609 
        4.57106         3.05184        0.370436 
        4.58678         3.02698        0.367299 
         4.6025         3.00979        0.364198 
        4.61821          2.9973        0.361133 
        4.63391         2.98092        0.358108 
         4.6496         2.96108        0.355119 
        4.66532         2.92907         0.35216 
        4.68103         2.92172        0.349236 
        4.69673         2.90386        0.346348 
        4.71241         2.88239        0.343496 
        4.72811         2.87031        0.340671 
        4.74384         2.85711        0.337875 
        4.75955         2.84374        0.335115 
        4.77525          2.8279        0.332387 
        4.79096         2.80037        0.329687 
        4.80669         2.79118        0.327015 
         4.8224         2.78378        0.324376 
        4.83809         2.76024        0.321769 
        4.85379         2.74675         0.31919 
         4.8695         2.73124        0.316636 
        4.88521         2.71524        0.314112 
        4.90093         2.69387        0.311616 
        4.91663         2.67799        0.309149 
        4.93234         2.66599        0.306706 
        4.94807          2.6521        0.304288 
        4.96377         2.63189          0.3019 
        4.97943         2.62122        0.299544 
        4.99514         2.60258        0.297207 
        5.01086         2.58549        0.294893 
        5.02654         2.57762        0.292609 
        5.04227         2.56695        0.290344 
          5.058         2.55168        0.288101 
        5.07371         2.53156        0.285887 
        5.08942         2.52438        0.283696 
        5.10513         2.50689        0.281527 
        5.12084         2.49938        0.279381 
        5.13656         2.48157        0.277257 
        5.15225         2.46596        0.275159 
        5.16796         2.44763         0.27308 
        5.18369         2.43636         0.27102 
         5.1994         2.42712        0.268985 
        5.21509         2.41322        0.266974 
        5.23079         2.40094         0.26498 
        5.24649         2.38709        0.263009 
        5.26217         2.37873        0.261059 
        5.27788         2.35598        0.259126 
        5.29359         2.34846        0.257213 
        5.30933         2.33985        0.255316 
        5.32504         2.32213        0.253442 
        5.34073         2.31072        0.251588 
        5.35646         2.29775         0.24975 
        5.37218         2.28559         0.24793 
        5.38789           2.279        0.246131 
        5.40357         2.26563        0.244352 
        5.41929         2.25501        0.242586 
        5.43502         2.24144        0.240838 
         5.4507         2.22857        0.239112 
        5.46639         2.22087        0.237402 
        5.48212         2.21029        0.235705 
        5.49786          2.2014        0.234023 
        5.51353         2.18162        0.232366 
        5.52921         2.17351        0.230723 
        5.54495         2.16443        0.229091 
        5.56066         2.15552        0.227477 
        5.57637         2.14359        0.225879 
        5.59207         2.13357        0.224297 
        5.60778         2.12384         0.22273 
        5.62346         2.11367        0.221181 
        5.63916         2.09747        0.219645 
        5.65487         2.08947        0.218123 
         5.6706           2.082        0.216613 
        5.68633         2.06706        0.215117 
        5.70203         2.05886        0.213639 
        5.71773          2.0537        0.212175 
        5.73344         2.03853        0.210723 
        5.74916           2.026        0.209285 
        5.76486         2.02226        0.207861 
        5.78054         2.01085        0.206453 
        5.79626         2.00107        0.205055 
          5.812          1.9901        0.203668 
         5.8277         1.97839        0.202297 
        5.84339         1.97277         0.20094 
        5.85911         1.96215        0.199592 
        5.87484          1.9554        0.198258 
        5.89053         1.94297        0.196938 
        5.90623         1.93411        0.195629 
        5.92195         1.92523         0.19433 
        5.93767         1.91636        0.193044 
        5.95336         1.90655        0.191772 
        5.96905         1.89827        0.190511 
        5.98476         1.88739        0.189261 
        6.00048         1.87764        0.188021 
        6.01617         1.87324        0.186794 
        6.03185         1.86451        0.185579 
        6.04756         1.85408        0.184373 
        6.06331         1.84404        0.183174 
        6.07903         1.83681        0.181989 
        6.09473         1.83372        0.180816 
        6.11044         1.82034        0.179652 
        6.12616         1.81213        0.178498 
        6.14186         1.80338        0.177356 
        6.15755         1.79518        0.176224 
        6.17326         1.78735        0.175101 
        6.18898          1.7802        0.173987 
        6.20467         1.77254        0.172885 
        6.22036         1.76352        0.171792 
         6.2361         1.75649        0.170707 
         6.2518         1.74744        0.169632 
        6.26748         1.73976        0.168569 
        6.28319          1.7335        0.167512 
        6.29893         1.72944        0.166464 
        6.31463         1.71786        0.165426 
        6.33033         1.70861        0.164398 
        6.34604         1.70157        0.163377 
        6.36177         1.69584        0.162364 
        6.37747         1.68856        0.161362 
