# k  (h/Mpc)    Pcb(k)  (Mpc/h)^3    Pcb_linear(k) (Mpc/h)^3   ShotnoiseSubtracted = true
      0.0200456         120.222         121.929 
      0.0350414         91.3013         90.7047 
      0.0492313         68.5696         68.3238 
      0.0637834         58.0023         58.3231 
      0.0800726         45.5777         45.7669 
       0.096163         33.7521         33.4164 
       0.111083         28.0562         27.8109 
       0.126058         24.8335         24.9611 
       0.142273         20.4873          20.548 
       0.158546          16.417          16.347 
        0.17375         14.4364         14.3676 
       0.188953         13.0618         13.0878 
       0.204907         11.1774         11.2807 
       0.220756         9.59235         9.57774 
        0.23588          8.5969         8.60467 
         0.2514         7.86835         7.88242 
       0.267535         7.01249         7.00654 
       0.283568         6.19055         6.18205 
       0.299022         5.62573          5.6237 
       0.314451         5.21908         5.18434 
       0.330372         4.72489         4.71366 
       0.346141          4.2873         4.27393 
       0.361624         3.93343         3.93151 
       0.377134         3.63733          3.6454 
       0.392932          3.4056         3.36454 
       0.408854         3.09979           3.099 
       0.424564         2.90284         2.87536 
       0.440253         2.69151          2.6815 
       0.455999          2.4937         2.49992 
       0.471626         2.32716         2.33228 
        0.48727         2.19834         2.18227 
       0.502856         2.06498         2.04878 
       0.518488         1.91984         1.92516 
       0.534347         1.79715         1.80861 
       0.550082         1.71015         1.70314 
       0.565732         1.62612         1.60754 
       0.581496         1.52496         1.51861 
       0.597222         1.44071         1.43616 
       0.612804         1.36377         1.36058 
       0.628434         1.29259         1.29063 
       0.644267         1.23194         1.22489 
       0.660051          1.1714         1.16392 
       0.675724         1.10849         1.10749 
       0.691403         1.05579          1.0548 
       0.707174         1.00667         1.00529 
       0.722871        0.972335        0.959197 
        0.73838        0.916102        0.916522 
       0.754018        0.875209        0.876156 
       0.769845        0.832272        0.837812 
        0.78569        0.802586        0.801761 
       0.801365        0.770856        0.768218 
       0.817031        0.739849        0.736645 
       0.832809        0.705949        0.706671 
       0.848511        0.679336        0.678524 
       0.864097        0.655494        0.652126 
       0.879701        0.632556        0.627127 
       0.895507         0.60167        0.603162 
       0.911279        0.582797        0.580516 
        0.92691        0.564734        0.559237 
       0.942635        0.538419        0.538922 
       0.958396        0.520837        0.519587 
       0.974128        0.502481        0.501249 
       0.989692         0.48528        0.483989 
        1.00528        0.466193        0.467528 
        1.02113        0.454505        0.451585 
        1.03692        0.439446        0.436455 
        1.05264        0.422514        0.422098 
        1.06832        0.409512        0.408419 
        1.08405        0.394878        0.395317 
        1.09979        0.383772        0.382791 
        1.11537        0.369327         0.37094 
        1.13105        0.357038        0.359526 
        1.14679        0.347804        0.348556 
        1.16256        0.338632        0.338028 
        1.17828        0.328603        0.327976 
        1.19395        0.318871        0.318372 
         1.2097        0.308556        0.309109 
        1.22537        0.298629        0.300264 
          1.241        0.290493        0.291797 
        1.25666        0.283864         0.28364 
        1.27241        0.274711         0.27576 
        1.28819         0.26654         0.26817 
        1.30392        0.260435        0.260892 
        1.31957        0.252664         0.25392 
        1.33529        0.246822         0.24718 
        1.35108        0.238939        0.240662 
        1.36674        0.233515        0.234428 
         1.3824        0.227159        0.228423 
        1.39811         0.22042        0.222612 
        1.41389        0.216165        0.216983 
        1.42964        0.210071         0.21156 
        1.44531        0.204584        0.206352 
        1.46101        0.199023         0.20131 
        1.47667         0.19469        0.196454 
        1.49229        0.189868        0.191773 
        1.50793        0.185516        0.187241 
        1.52367        0.180729        0.182828 
        1.53953        0.175932         0.17853 
        1.55526        0.172083        0.174406 
        1.57092        0.169025         0.17043 
        1.58662        0.164747        0.166571 
        1.60235        0.160812        0.162825 
        1.61809        0.156892        0.159194 
        1.63369        0.153252        0.155707 
        1.64941        0.150021        0.152301 
        1.66519        0.146916        0.148986 
        1.68085        0.143187        0.145794 
        1.69652        0.140454        0.142696 
        1.71228        0.136908        0.139671 
        1.72806        0.134581        0.136733 
        1.74368         0.13146        0.133909 
        1.75933        0.128877        0.131161 
        1.77505        0.126404        0.128478 
        1.79081        0.123248        0.125866 
         1.8065        0.121026        0.123339 
        1.82218        0.117981        0.120884 
        1.83797        0.115709         0.11848 
        1.85367        0.113274        0.116155 
        1.86928        0.110638        0.113907 
        1.88497        0.108675        0.111708 
        1.90073        0.106195        0.109558 
        1.91647        0.104997        0.107468 
        1.93218        0.103334        0.105438 
        1.94787        0.100379        0.103463 
        1.96363       0.0985201        0.101532 
        1.97935       0.0966393        0.099655 
        1.99499       0.0948537       0.0978363 
        2.01064       0.0929809       0.0960608 
         2.0264       0.0915016       0.0943187 
        2.04216       0.0896603       0.0926212 
        2.05781       0.0877541       0.0909766 
        2.07353       0.0863892       0.0893665 
        2.08928       0.0849427       0.0877923 
        2.10499       0.0832543       0.0862607 
        2.12065       0.0817374       0.0847705 
        2.13633       0.0803638       0.0833147 
        2.15211       0.0790457        0.081884 
        2.16785       0.0770928       0.0804913 
        2.18349       0.0760486       0.0791401 
        2.19916       0.0745433       0.0778173 
        2.21489       0.0732052       0.0765208 
        2.23063       0.0722296       0.0752532 
         2.2463       0.0709524       0.0740203 
        2.26194       0.0697817       0.0728185 
        2.27765       0.0686418       0.0716374 
        2.29341        0.067158       0.0704797 
        2.30914       0.0660797       0.0693503 
        2.32486       0.0649158       0.0682465 
        2.34061       0.0638208       0.0671651 
        2.35635       0.0628999       0.0661084 
        2.37203       0.0623341       0.0650783 
        2.38768        0.061169       0.0640725 
        2.40339       0.0600598       0.0630846 
        2.41914       0.0589314       0.0621154 
        2.43483       0.0582482       0.0611702 
         2.4505       0.0571248       0.0602464 
        2.46622       0.0562003       0.0593388 
        2.48195        0.055325       0.0584499 
        2.49759       0.0544313       0.0575842 
        2.51328       0.0533278        0.056734 
        2.52906       0.0527442       0.0558957 
        2.54479       0.0520423       0.0550777 
        2.56049       0.0510665       0.0542778 
        2.57618       0.0504223       0.0534946 
        2.59189       0.0494191       0.0527259 
        2.60758       0.0489443       0.0519736 
        2.62325       0.0479915       0.0512371 
        2.63898       0.0474863       0.0505124 
        2.65468       0.0465554       0.0498034 
        2.67044       0.0459361       0.0491051 
        2.68618       0.0452187       0.0484219 
        2.70184        0.044787       0.0477546 
        2.71755       0.0440293       0.0470983 
        2.73329         0.04345       0.0464535 
        2.74897       0.0427703       0.0458229 
        2.76462       0.0420676       0.0452056 
        2.78034       0.0415525       0.0445972 
        2.79607       0.0409676       0.0439995 
        2.81179        0.040319       0.0434136 
        2.82749       0.0398831        0.042839 
        2.84321       0.0392499       0.0422743 
        2.85893       0.0386778       0.0417201 
        2.87462       0.0381392       0.0411769 
        2.89033       0.0376176       0.0406429 
        2.90605       0.0371256        0.040118 
        2.92176       0.0367574       0.0396027 
        2.93747       0.0360878       0.0390969 
        2.95318       0.0357328       0.0385998 
        2.96891       0.0351425       0.0381113 
        2.98456       0.0346193       0.0376335 
        3.00023       0.0343969       0.0371632 
        3.01596       0.0337656       0.0366996 
        3.03164       0.0333814       0.0362452 
        3.04738       0.0329346       0.0357974 
         3.0631       0.0323308       0.0353573 
        3.07883       0.0321159       0.0349247 
        3.09456       0.0317093       0.0344994 
        3.11026       0.0311885       0.0340819 
        3.12596       0.0309613       0.0336715 
        3.14163       0.0304934       0.0332688 
        3.15734       0.0302029       0.0328719 
        3.17308       0.0298068       0.0324805 
        3.18879       0.0293879       0.0320966 
        3.20447       0.0289999       0.0317196 
         3.2202       0.0286867       0.0313475 
         3.2359       0.0283447       0.0309821 
        3.25157       0.0279944       0.0306234 
        3.26729       0.0276726       0.0302694 
        3.28304       0.0273836       0.0299203 
        3.29877       0.0270422       0.0295772 
        3.31446       0.0266513       0.0292404 
        3.33014        0.026405       0.0289091 
        3.34585       0.0261094       0.0285825 
        3.36158       0.0257682       0.0282604 
        3.37727       0.0254411       0.0279444 
        3.39294       0.0251574       0.0276336 
        3.40867       0.0249909       0.0273265 
        3.42439       0.0246419       0.0270242 
        3.44008       0.0244282       0.0267271 
        3.45578       0.0241086       0.0264343 
        3.47153       0.0239267       0.0261452 
        3.48724       0.0236127       0.0258611 
        3.50292       0.0234469       0.0255819 
        3.51859       0.0231658       0.0253069 
        3.53431        0.022833       0.0250352 
        3.55007       0.0226257       0.0247669 
        3.56577       0.0224147       0.0245036 
        3.58146       0.0221574       0.0242442 
        3.59719       0.0220137       0.0239881 
        3.61292        0.021716       0.0237357 
        3.62859       0.0214752        0.023488 
        3.64429       0.0212784       0.0232434 
        3.66003       0.0211452       0.0230015 
        3.67578       0.0209046       0.0227632 
        3.69146       0.0207395       0.0225292 
        3.70712       0.0205089        0.022299 
        3.72284        0.020315       0.0220711 
        3.73853       0.0201251       0.0218469 
        3.75422       0.0199167       0.0216257 
        3.76993       0.0197561       0.0214074 
        3.78564       0.0195515       0.0211923 
        3.80137        0.019413       0.0209797 
        3.81707       0.0191966       0.0207706 
        3.83279       0.0190101       0.0205642 
        3.84853       0.0188673       0.0203602 
        3.86424       0.0186915       0.0201595 
        3.87992       0.0185664       0.0199618 
        3.89561       0.0183886       0.0197667 
        3.91134       0.0182298       0.0195739 
        3.92704        0.018045       0.0193839 
        3.94273       0.0178859       0.0191967 
        3.95845       0.0177211       0.0190115 
        3.97418       0.0175929       0.0188289 
        3.98988        0.017353       0.0186488 
        4.00554       0.0172729       0.0184717 
        4.02125       0.0170683       0.0182963 
        4.03698       0.0168157        0.018123 
        4.05268       0.0166348       0.0179524 
        4.06839       0.0164362       0.0177838 
         4.0841       0.0161964       0.0176175 
        4.09983       0.0159769       0.0174531 
        4.11555       0.0157866       0.0172908 
        4.13124       0.0155716       0.0171311 
        4.14693       0.0153901       0.0169733 
        4.16266       0.0152141       0.0168171 
        4.17839       0.0150416       0.0166631 
        4.19408       0.0148406       0.0165113 
        4.20977       0.0146746       0.0163613 
        4.22551       0.0145439       0.0162129 
        4.24123       0.0143854       0.0160665 
        4.25691        0.014279       0.0159223 
        4.27259       0.0140899       0.0157798 
        4.28831       0.0139886       0.0156388 
        4.30404       0.0138234       0.0154994 
        4.31974       0.0137606       0.0153621 
        4.33543       0.0136073       0.0152265 
        4.35116       0.0134715       0.0150922 
        4.36688        0.013414       0.0149596 
        4.38255        0.013327       0.0148291 
        4.39825       0.0132835       0.0146999 
        4.41398       0.0131492        0.014572 
         4.4297       0.0130865       0.0144457 
        4.44541       0.0129779        0.014321 
        4.46111       0.0128984       0.0141979 
        4.47683       0.0129093       0.0140761 
        4.49251       0.0128169       0.0139561 
        4.50819       0.0127644       0.0138374 
         4.5239       0.0127153         0.01372 
        4.53962       0.0126986       0.0136039 
        4.55535       0.0126349        0.013489 
        4.57106       0.0126675       0.0133756 
        4.58678       0.0126104       0.0132635 
         4.6025       0.0125921       0.0131527 
        4.61821       0.0125847       0.0130432 
        4.63391       0.0125966       0.0129351 
         4.6496       0.0125617       0.0128282 
        4.66532       0.0125619       0.0127224 
        4.68103       0.0125927       0.0126179 
        4.69673       0.0125825       0.0125147 
        4.71241       0.0126659       0.0124127 
        4.72811       0.0126424       0.0123117 
        4.74384        0.012699       0.0122117 
        4.75955       0.0127028       0.0121129 
        4.77525       0.0127489       0.0120154 
        4.79096       0.0128212       0.0119188 
        4.80669       0.0128815       0.0118232 
         4.8224       0.0129313       0.0117288 
        4.83809       0.0130187       0.0116355 
        4.85379       0.0131153       0.0115432 
         4.8695       0.0131528       0.0114518 
        4.88521       0.0132336       0.0113615 
        4.90093       0.0133016       0.0112721 
        4.91663       0.0134417       0.0111838 
        4.93234       0.0135344       0.0110963 
        4.94807       0.0136027       0.0110098 
        4.96377       0.0137434       0.0109243 
        4.97943       0.0139839       0.0108399 
        4.99514        0.014016       0.0107562 
        5.01086       0.0141648       0.0106733 
        5.02654       0.0142703       0.0105915 
        5.04227       0.0144118       0.0105104 
          5.058       0.0145925         0.01043 
        5.07371       0.0146782       0.0103507 
        5.08942       0.0149462       0.0102722 
        5.10513       0.0150348       0.0101945 
        5.12084       0.0152111       0.0101176 
        5.13656        0.015409       0.0100414 
        5.15225       0.0156356      0.00996625 
        5.16796       0.0158938      0.00989171 
        5.18369       0.0160383      0.00981787 
         5.1994       0.0162514      0.00974493 
        5.21509       0.0164535       0.0096728 
        5.23079       0.0167135      0.00960133 
        5.24649       0.0169844      0.00953063 
        5.26217       0.0171576      0.00946071 
        5.27788       0.0174476      0.00939139 
        5.29359       0.0176774      0.00932276 
        5.30933       0.0180306      0.00925472 
        5.32504        0.018301      0.00918748 
        5.34073       0.0185761      0.00912099 
        5.35646       0.0189514      0.00905503 
        5.37218       0.0191579      0.00898972 
        5.38789       0.0194482      0.00892516 
        5.40357       0.0198354      0.00886131 
        5.41929       0.0201966      0.00879796 
        5.43502       0.0205604      0.00873522 
         5.4507       0.0208915      0.00867324 
        5.46639       0.0212198      0.00861187 
        5.48212       0.0216149      0.00855095 
        5.49786       0.0221872      0.00849055 
        5.51353       0.0225438      0.00843104 
        5.52921       0.0228254      0.00837204 
        5.54495        0.023325      0.00831344 
        5.56066       0.0238873      0.00825547 
        5.57637       0.0242305      0.00819807 
        5.59207       0.0248201      0.00814127 
        5.60778       0.0252179      0.00808498 
        5.62346       0.0256282      0.00802932 
        5.63916       0.0261431      0.00797413 
        5.65487       0.0267237      0.00791943 
         5.6706       0.0272259      0.00786519 
        5.68633       0.0278982      0.00781144 
        5.70203       0.0284999      0.00775831 
        5.71773       0.0290818      0.00770568 
        5.73344        0.029444      0.00765352 
        5.74916       0.0301503       0.0076018 
        5.76486       0.0309993      0.00755063 
        5.78054       0.0315336      0.00750001 
        5.79626       0.0321632      0.00744972 
          5.812       0.0330672      0.00739985 
         5.8277       0.0335505      0.00735058 
        5.84339       0.0343343      0.00730176 
        5.85911       0.0352595       0.0072533 
        5.87484       0.0359845      0.00720529 
        5.89053       0.0367923      0.00715781 
        5.90623       0.0377115      0.00711075 
        5.92195       0.0383664      0.00706402 
        5.93767       0.0394108      0.00701775 
        5.95336       0.0402236      0.00697197 
        5.96905       0.0412048      0.00692662 
        5.98476       0.0417469      0.00688161 
        6.00048       0.0433521        0.006837 
        6.01617       0.0439778      0.00679284 
        6.03185       0.0449793      0.00674912 
        6.04756       0.0461985      0.00670569 
        6.06331       0.0474202      0.00666256 
        6.07903        0.048322       0.0066199 
        6.09473       0.0499419      0.00657765 
        6.11044       0.0511796      0.00653574 
        6.12616       0.0521739       0.0064942 
        6.14186       0.0533483      0.00645306 
        6.15755       0.0545514      0.00641229 
        6.17326       0.0559967      0.00637185 
        6.18898       0.0574453      0.00633173 
        6.20467       0.0591614      0.00629204 
        6.22036       0.0605699      0.00625269 
         6.2361       0.0620193      0.00621358 
         6.2518       0.0636434      0.00617486 
        6.26748       0.0645801      0.00613657 
        6.28319       0.0670971      0.00609849 
        6.29893       0.0684286      0.00606071 
        6.31463        0.070494      0.00602332 
        6.33033        0.071522      0.00598625 
        6.34604       0.0738658      0.00594948 
        6.36177       0.0753792      0.00591298 
        6.37747       0.0779452      0.00587686 
