# k  (h/Mpc)    Pcb(k)  (Mpc/h)^3    Pcb_linear(k) (Mpc/h)^3   ShotnoiseSubtracted = true
      0.0200456         1577.18         1602.28 
      0.0350414         1182.73         1191.96 
      0.0492313         899.273         897.847 
      0.0637834         771.935         766.427 
      0.0800726         606.961         601.426 
       0.096163         437.412         439.127 
       0.111083         360.651         365.465 
       0.126058         328.838         328.016 
       0.142273         273.982         270.022 
       0.158546         219.594         214.816 
        0.17375         188.186         188.806 
       0.188953         174.525         171.988 
       0.204907         156.452          148.24 
       0.220756         130.906         125.862 
        0.23588         117.009         113.074 
         0.2514         105.664         103.583 
       0.267535         95.6502         92.0733 
       0.283568         85.4386         81.2387 
       0.299022         78.4119         73.9015 
       0.314451         70.7308         68.1278 
       0.330372          65.388         61.9425 
       0.346141          59.372          56.164 
       0.361624         55.2762         51.6643 
       0.377134         52.0698         47.9044 
       0.392932         46.2516         44.2137 
       0.408854          44.429         40.7242 
       0.424564         41.6479         37.7854 
       0.440253         38.5293         35.2377 
       0.455999         36.4048         32.8516 
       0.471626         34.1947         30.6487 
        0.48727         32.3521         28.6774 
       0.502856         30.3043         26.9232 
       0.518488         29.0014         25.2987 
       0.534347         27.7807         23.7671 
       0.550082         25.4459         22.3811 
       0.565732         23.6614         21.1248 
       0.581496         23.2358         19.9562 
       0.597222         22.3912         18.8727 
       0.612804         20.8876         17.8795 
       0.628434          20.154         16.9602 
       0.644267         19.4997         16.0963 
       0.660051         18.4406         15.2951 
       0.675724         17.5297         14.5536 
       0.691403          16.974         13.8613 
       0.707174         16.2647         13.2106 
       0.722871         15.6227         12.6049 
        0.73838          15.066         12.0441 
       0.754018          14.545         11.5136 
       0.769845         13.9256         11.0097 
        0.78569         13.5095          10.536 
       0.801365         12.9679         10.0952 
       0.817031         12.5924          9.6803 
       0.832809         12.2701         9.28641 
       0.848511         11.5491         8.91653 
       0.864097         11.2547         8.56963 
       0.879701         10.9209         8.24112 
       0.895507         10.4786         7.92619 
       0.911279         10.3244          7.6286 
        0.92691          9.9826         7.34897 
       0.942635         9.55582         7.08201 
       0.958396         9.28679         6.82793 
       0.974128         9.05751         6.58694 
       0.989692         8.94309         6.36013 
        1.00528         8.59686         6.14382 
        1.02113         8.27763         5.93431 
        1.03692         8.13354         5.73549 
        1.05264         7.89351         5.54682 
        1.06832         7.72624         5.36706 
        1.08405         7.42531         5.19489 
        1.09979         7.27339         5.03028 
        1.11537          7.1415         4.87454 
        1.13105         6.95037         4.72456 
        1.14679         6.80082         4.58039 
        1.16256          6.6042         4.44205 
        1.17828         6.50046         4.30995 
        1.19395         6.30752         4.18374 
         1.2097         6.11444         4.06202 
        1.22537         5.97872         3.94579 
          1.241         5.88015         3.83453 
        1.25666         5.82951         3.72733 
        1.27241         5.62188         3.62378 
        1.28819         5.49312         3.52404 
        1.30392         5.41243          3.4284 
        1.31957          5.3012         3.33678 
        1.33529         5.18749         3.24821 
        1.35108         5.06248         3.16255 
        1.36674         5.00554         3.08063 
         1.3824         4.82093         3.00172 
        1.39811         4.76106         2.92536 
        1.41389         4.68862         2.85138 
        1.42964         4.59966         2.78013 
        1.44531         4.51881         2.71169 
        1.46101          4.4294         2.64543 
        1.47667         4.31879         2.58162 
        1.49229         4.28294          2.5201 
        1.50793          4.1678         2.46055 
        1.52367         4.14333         2.40256 
        1.53953         4.02965         2.34607 
        1.55526         3.95377         2.29188 
        1.57092         3.91167         2.23964 
        1.58662         3.82455         2.18892 
        1.60235          3.7663          2.1397 
        1.61809          3.7037         2.09198 
        1.63369         3.64951         2.04616 
        1.64941         3.58465          2.0014 
        1.66519         3.53654         1.95783 
        1.68085         3.45752         1.91589 
        1.69652         3.40389         1.87517 
        1.71228         3.36265         1.83543 
        1.72806         3.29685         1.79681 
        1.74368         3.24785         1.75971 
        1.75933         3.19923          1.7236 
        1.77505         3.15738         1.68834 
        1.79081         3.09879         1.65401 
         1.8065         3.05866          1.6208 
        1.82218         3.02662         1.58854 
        1.83797         2.99424         1.55695 
        1.85367          2.9445          1.5264 
        1.86928         2.90426         1.49686 
        1.88497         2.84697         1.46796 
        1.90073         2.80652         1.43971 
        1.91647         2.76966         1.41225 
        1.93218         2.74972         1.38557 
        1.94787         2.70709         1.35962 
        1.96363         2.66174         1.33424 
        1.97935         2.62306         1.30957 
        1.99499         2.57278         1.28567 
        2.01064         2.55437         1.26234 
         2.0264         2.53798         1.23945 
        2.04216         2.49786         1.21714 
        2.05781         2.45968         1.19553 
        2.07353         2.43501         1.17437 
        2.08928         2.40361         1.15368 
        2.10499         2.37155         1.13356 
        2.12065          2.3577         1.11398 
        2.13633          2.3151         1.09484 
        2.15211          2.2835         1.07604 
        2.16785         2.26075         1.05774 
        2.18349         2.23907         1.03998 
        2.19916         2.19333          1.0226 
        2.21489         2.17478         1.00556 
        2.23063         2.14787        0.988907 
         2.2463         2.13125        0.972706 
        2.26194         2.09583        0.956912 
        2.27765         2.07755        0.941392 
        2.29341         2.05844        0.926178 
        2.30914         2.03646        0.911336 
        2.32486         2.01721        0.896831 
        2.34061         1.98656        0.882621 
        2.35635         1.95706        0.868735 
        2.37203         1.94981        0.855198 
        2.38768         1.92991        0.841981 
        2.40339          1.9111        0.828998 
        2.41914         1.88779        0.816262 
        2.43483         1.86617        0.803841 
         2.4505         1.84045        0.791702 
        2.46622         1.82839        0.779774 
        2.48195          1.8124        0.768094 
        2.49759         1.79249        0.756718 
        2.51328         1.76834        0.745545 
        2.52906         1.75616         0.73453 
        2.54479         1.73712         0.72378 
        2.56049         1.71787        0.713268 
        2.57618          1.7053        0.702976 
        2.59189         1.69288        0.692874 
        2.60758          1.6669        0.682989 
        2.62325         1.65541         0.67331 
        2.63898          1.6388        0.663786 
        2.65468         1.62491        0.654469 
        2.67044         1.61138        0.645293 
        2.68618         1.58765        0.636315 
        2.70184         1.57399        0.627546 
        2.71755         1.56206        0.618922 
        2.73329         1.54747        0.610448 
        2.74897         1.53365        0.602162 
        2.76462         1.51856         0.59405 
        2.78034         1.51221        0.586055 
        2.79607         1.49185        0.578201 
        2.81179         1.47697          0.5705 
        2.82749         1.46849         0.56295 
        2.84321         1.45677         0.55553 
        2.85893         1.43997        0.548247 
        2.87462         1.43282        0.541108 
        2.89033         1.41142        0.534091 
        2.90605         1.40302        0.527193 
        2.92176          1.3923        0.520422 
        2.93747         1.38217        0.513775 
        2.95318         1.37044        0.507243 
        2.96891         1.35722        0.500823 
        2.98456         1.35155        0.494544 
        3.00023         1.33599        0.488364 
        3.01596         1.32968        0.482271 
        3.03164         1.31959        0.476301 
        3.04738          1.2986        0.470416 
         3.0631         1.29233        0.464632 
        3.07883         1.28463        0.458947 
        3.09456         1.27661        0.453359 
        3.11026         1.26389        0.447873 
        3.12596         1.25417        0.442479 
        3.14163         1.24415        0.437188 
        3.15734         1.23771        0.431972 
        3.17308         1.22521        0.426828 
        3.18879         1.21728        0.421784 
        3.20447         1.20535        0.416829 
         3.2202         1.19817        0.411939 
         3.2359         1.19113        0.407137 
        3.25157         1.17997        0.402424 
        3.26729         1.17353        0.397772 
        3.28304         1.16271        0.393184 
        3.29877         1.15238        0.388676 
        3.31446         1.14585        0.384249 
        3.33014          1.1413        0.379896 
        3.34585         1.13111        0.375604 
        3.36158         1.11867        0.371372 
        3.37727         1.11706         0.36722 
        3.39294         1.10786        0.363135 
        3.40867         1.10047        0.359099 
        3.42439         1.09006        0.355126 
        3.44008         1.08484        0.351222 
        3.45578         1.07854        0.347374 
        3.47153         1.06903        0.343576 
        3.48724         1.06369        0.339842 
        3.50292         1.05992        0.336173 
        3.51859         1.05101         0.33256 
        3.53431         1.04455        0.328989 
        3.55007         1.04005        0.325463 
        3.56577         1.03052        0.322003 
        3.58146         1.02356        0.318595 
        3.59719         1.01857        0.315229 
        3.61292         1.01263        0.311913 
        3.62859         1.00165        0.308657 
        3.64429         1.00039        0.305443 
        3.66003        0.991655        0.302264 
        3.67578        0.984679        0.299133 
        3.69146        0.981092        0.296058 
        3.70712        0.971573        0.293032 
        3.72284        0.969715        0.290038 
        3.73853        0.959795        0.287091 
        3.75422        0.953918        0.284185 
        3.76993        0.953513        0.281316 
        3.78564        0.946383        0.278489 
        3.80137        0.938089        0.275696 
        3.81707        0.935362        0.272948 
        3.83279        0.927081        0.270235 
        3.84853        0.920919        0.267555 
        3.86424        0.917741        0.264917 
        3.87992        0.912461        0.262319 
        3.89561        0.906991        0.259756 
        3.91134        0.900507        0.257222 
        3.92704        0.894723        0.254725 
        3.94273        0.891514        0.252265 
        3.95845        0.885512        0.249832 
        3.97418        0.878978        0.247431 
        3.98988        0.873973        0.245066 
        4.00554        0.870241        0.242738 
        4.02125        0.862051        0.240433 
        4.03698        0.852678        0.238156 
        4.05268        0.847114        0.235913 
        4.06839         0.84058        0.233698 
         4.0841        0.836051        0.231512 
        4.09983        0.830956        0.229352 
        4.11555        0.824415         0.22722 
        4.13124        0.817749        0.225121 
        4.14693        0.812016        0.223047 
        4.16266        0.806791        0.220995 
        4.17839        0.802967         0.21897 
        4.19408        0.797006        0.216976 
        4.20977        0.791549        0.215005 
        4.22551        0.786681        0.213054 
        4.24123        0.780971         0.21113 
        4.25691        0.776768        0.209235 
        4.27259        0.771941        0.207363 
        4.28831        0.766906        0.205511 
        4.30404        0.762619        0.203679 
        4.31974        0.756683        0.201874 
        4.33543        0.753328        0.200092 
        4.35116        0.749909        0.198327 
        4.36688        0.744143        0.196585 
        4.38255        0.741728         0.19487 
        4.39825        0.737962        0.193172 
        4.41398        0.731933        0.191491 
         4.4297        0.728204        0.189832 
        4.44541        0.724623        0.188193 
        4.46111        0.723249        0.186575 
        4.47683        0.718396        0.184975 
        4.49251        0.714776        0.183397 
        4.50819        0.710832        0.181839 
         4.5239        0.709124        0.180296 
        4.53962        0.705395        0.178769 
        4.55535        0.703263         0.17726 
        4.57106        0.698448         0.17577 
        4.58678        0.695108        0.174297 
         4.6025        0.692331        0.172841 
        4.61821        0.690096        0.171401 
        4.63391        0.685506        0.169981 
         4.6496        0.682973        0.168577 
        4.66532        0.681876        0.167187 
        4.68103        0.678386        0.165813 
        4.69673        0.676696        0.164456 
        4.71241        0.671584        0.163116 
        4.72811        0.671804        0.161788 
        4.74384        0.667969        0.160474 
        4.75955        0.665866        0.159177 
        4.77525        0.663122        0.157895 
        4.79096        0.662186        0.156625 
        4.80669        0.658789        0.155369 
         4.8224        0.658578        0.154129 
        4.83809        0.654553        0.152903 
        4.85379        0.654565         0.15169 
         4.8695        0.652377        0.150489 
        4.88521        0.649021        0.149302 
        4.90093        0.648598        0.148127 
        4.91663         0.64495        0.146967 
        4.93234        0.643526        0.145818 
        4.94807        0.643249         0.14468 
        4.96377        0.641521        0.143557 
        4.97943        0.640121        0.142448 
        4.99514        0.636553        0.141348 
        5.01086        0.637267        0.140259 
        5.02654        0.634969        0.139184 
        5.04227         0.63406        0.138117 
          5.058        0.631928        0.137062 
        5.07371        0.630188        0.136019 
        5.08942        0.630284        0.134987 
        5.10513        0.627327        0.133966 
        5.12084        0.627039        0.132955 
        5.13656        0.626493        0.131955 
        5.15225        0.626026        0.130967 
        5.16796         0.62337        0.129988 
        5.18369         0.62432        0.129017 
         5.1994        0.624236        0.128059 
        5.21509        0.621674        0.127111 
        5.23079        0.621361        0.126172 
        5.24649        0.620629        0.125243 
        5.26217          0.6187        0.124324 
        5.27788        0.619099        0.123413 
        5.29359        0.618418        0.122511 
        5.30933        0.617142        0.121617 
        5.32504        0.617387        0.120733 
        5.34073        0.616217         0.11986 
        5.35646        0.616143        0.118993 
        5.37218        0.616716        0.118134 
        5.38789        0.614464        0.117286 
        5.40357        0.614973        0.116447 
        5.41929        0.615122        0.115615 
        5.43502        0.613982         0.11479 
         5.4507        0.614449        0.113976 
        5.46639        0.614202        0.113169 
        5.48212         0.61148        0.112369 
        5.49786        0.611757        0.111575 
        5.51353         0.61214        0.110793 
        5.52921        0.611161        0.110018 
        5.54495        0.611826        0.109247 
        5.56066        0.611154        0.108486 
        5.57637        0.610474        0.107731 
        5.59207        0.611103        0.106985 
        5.60778        0.611692        0.106245 
        5.62346          0.6097        0.105514 
        5.63916        0.610369        0.104789 
        5.65487        0.610663         0.10407 
         5.6706        0.611058        0.103357 
        5.68633        0.610366        0.102651 
        5.70203        0.610825        0.101952 
        5.71773         0.61011        0.101261 
        5.73344        0.609343        0.100575 
        5.74916          0.6106       0.0998957 
        5.76486        0.610369       0.0992233 
        5.78054        0.610077       0.0985581 
        5.79626        0.609882       0.0978973 
          5.812         0.61115       0.0972419 
         5.8277        0.610738       0.0965944 
        5.84339        0.610476       0.0959529 
        5.85911        0.610345       0.0953161 
        5.87484        0.610027       0.0946852 
        5.89053        0.610436       0.0940613 
        5.90623        0.610227       0.0934428 
        5.92195        0.610828       0.0928288 
        5.93767        0.610654       0.0922207 
        5.95336            0.61       0.0916191 
        5.96905        0.610137       0.0910232 
        5.98476        0.610239       0.0904317 
        6.00048        0.612141       0.0898454 
        6.01617        0.611575       0.0892651 
        6.03185        0.610509       0.0886907 
        6.04756        0.611107         0.08812 
        6.06331        0.612659       0.0875531 
        6.07903        0.612777       0.0869925 
        6.09473        0.613199       0.0864373 
        6.11044        0.612762       0.0858865 
        6.12616        0.612727       0.0853407 
        6.14186        0.611416       0.0848001 
        6.15755        0.612789       0.0842644 
        6.17326        0.613178       0.0837329 
        6.18898        0.612989       0.0832057 
        6.20467        0.614859       0.0826841 
        6.22036        0.612668        0.082167 
         6.2361         0.61358        0.081653 
         6.2518        0.612715       0.0811443 
        6.26748        0.613731        0.080641 
        6.28319         0.61592       0.0801407 
        6.29893        0.614253       0.0796442 
        6.31463        0.614551       0.0791528 
        6.33033        0.613348       0.0786657 
        6.34604        0.613934       0.0781825 
        6.36177        0.613607       0.0777028 
        6.37747        0.615847       0.0772281 
