# k  (h/Mpc)    Pcb(k)  (Mpc/h)^3    Pcb_linear(k) (Mpc/h)^3   ShotnoiseSubtracted = true
      0.0200456         13.8928          14.094 
      0.0350414          10.514         10.4847 
      0.0492313         7.92786         7.89765 
      0.0637834         6.73404         6.74165 
      0.0800726         5.29339         5.29027 
       0.096163         3.88715         3.86265 
       0.111083         3.22296         3.21471 
       0.126058         2.87885          2.8853 
       0.142273         2.37903         2.37517 
       0.158546         1.90053         1.88957 
        0.17375         1.66154         1.66077 
       0.188953         1.50988         1.51284 
       0.204907         1.30884         1.30395 
       0.220756         1.11199         1.10711 
        0.23588        0.996695        0.994627 
         0.2514        0.910246        0.911141 
       0.267535        0.810245        0.809896 
       0.283568        0.716223        0.714593 
       0.299022        0.651157        0.650053 
       0.314451        0.598014        0.599266 
       0.330372        0.544917        0.544859 
       0.346141        0.494427         0.49403 
       0.361624        0.455086         0.45445 
       0.377134        0.422046        0.421377 
       0.392932        0.387645        0.388913 
       0.408854        0.358838        0.358218 
       0.424564        0.332079        0.332368 
       0.440253        0.309998        0.309958 
       0.455999        0.289599         0.28897 
       0.471626        0.270274        0.269592 
        0.48727          0.2523        0.252252 
       0.502856        0.236687        0.236822 
       0.518488        0.223238        0.222532 
       0.534347        0.210079        0.209061 
       0.550082        0.196969        0.196869 
       0.565732        0.185317        0.185818 
       0.581496        0.175759        0.175539 
       0.597222        0.166375        0.166008 
       0.612804        0.157472        0.157272 
       0.628434        0.149695        0.149186 
       0.644267        0.141804        0.141587 
       0.660051        0.134633        0.134539 
       0.675724        0.128288        0.128016 
       0.691403        0.122364        0.121926 
       0.707174        0.116482        0.116203 
       0.722871         0.11087        0.110875 
        0.73838        0.106322        0.105942 
       0.754018        0.101747        0.101276 
       0.769845       0.0973431        0.096844 
        0.78569       0.0930093       0.0926768 
       0.801365       0.0890227       0.0887995 
       0.817031       0.0854525       0.0851499 
       0.832809       0.0819856       0.0816852 
       0.848511       0.0787057       0.0784317 
       0.864097       0.0755167       0.0753803 
       0.879701       0.0725725       0.0724906 
       0.895507       0.0700898       0.0697204 
       0.911279       0.0673665       0.0671027 
        0.92691       0.0648022       0.0646431 
       0.942635       0.0625941       0.0622949 
       0.958396       0.0602491       0.0600599 
       0.974128       0.0581582       0.0579401 
       0.989692       0.0561822       0.0559451 
        1.00528       0.0543669       0.0540423 
        1.02113       0.0523257       0.0521994 
        1.03692       0.0506242       0.0504505 
        1.05264       0.0490107        0.048791 
        1.06832       0.0474352       0.0472097 
        1.08405       0.0458824       0.0456953 
        1.09979       0.0443813       0.0442474 
        1.11537       0.0431999       0.0428775 
        1.13105       0.0418336       0.0415582 
        1.14679       0.0406124       0.0402901 
        1.16256       0.0392464       0.0390732 
        1.17828       0.0380869       0.0379112 
        1.19395        0.036991       0.0368011 
         1.2097       0.0359088       0.0357304 
        1.22537       0.0349697        0.034708 
          1.241       0.0339651       0.0337293 
        1.25666       0.0330274       0.0327864 
        1.27241       0.0321009       0.0318755 
        1.28819       0.0312328       0.0309982 
        1.30392       0.0303507       0.0301569 
        1.31957       0.0295832        0.029351 
        1.33529       0.0287373       0.0285719 
        1.35108         0.02805       0.0278184 
        1.36674       0.0272231       0.0270979 
         1.3824        0.026666       0.0264038 
        1.39811       0.0259485        0.025732 
        1.41389       0.0252718       0.0250814 
        1.42964       0.0247071       0.0244546 
        1.44531       0.0240472       0.0238526 
        1.46101       0.0234853       0.0232698 
        1.47667       0.0228908       0.0227084 
        1.49229       0.0223653       0.0221674 
        1.50793       0.0218118       0.0216435 
        1.52367       0.0213131       0.0211334 
        1.53953       0.0208684       0.0206366 
        1.55526       0.0203815       0.0201598 
        1.57092       0.0198514       0.0197003 
        1.58662       0.0194569       0.0192542 
        1.60235       0.0190539       0.0188212 
        1.61809       0.0185702       0.0184015 
        1.63369       0.0181799       0.0179984 
        1.64941       0.0178281       0.0176047 
        1.66519       0.0174188       0.0172215 
        1.68085       0.0170337       0.0168525 
        1.69652       0.0166599       0.0164944 
        1.71228       0.0163615       0.0161448 
        1.72806       0.0159615       0.0158051 
        1.74368       0.0156635       0.0154788 
        1.75933       0.0153541       0.0151611 
        1.77505       0.0150268        0.014851 
        1.79081       0.0147395        0.014549 
         1.8065       0.0144203       0.0142569 
        1.82218        0.014157       0.0139731 
        1.83797       0.0138802       0.0136952 
        1.85367       0.0136081       0.0134265 
        1.86928       0.0133711       0.0131667 
        1.88497       0.0131145       0.0129124 
        1.90073        0.012868        0.012664 
        1.91647       0.0125819       0.0124224 
        1.93218       0.0123545       0.0121877 
        1.94787       0.0121273       0.0119595 
        1.96363       0.0119238       0.0117363 
        1.97935       0.0116946       0.0115193 
        1.99499       0.0114858        0.011309 
        2.01064       0.0113004       0.0111038 
         2.0264       0.0111017       0.0109024 
        2.04216       0.0108729       0.0107062 
        2.05781       0.0106989       0.0105161 
        2.07353       0.0104869         0.01033 
        2.08928       0.0103264        0.010148 
        2.10499       0.0101155        0.009971 
        2.12065      0.00997152      0.00979876 
        2.13633        0.009798      0.00963047 
        2.15211      0.00964509       0.0094651 
        2.16785      0.00949192      0.00930411 
        2.18349      0.00930561      0.00914792 
        2.19916        0.009184      0.00899503 
        2.21489      0.00903693      0.00884515 
        2.23063      0.00887311      0.00869863 
         2.2463      0.00870527      0.00855612 
        2.26194      0.00857649       0.0084172 
        2.27765      0.00844512      0.00828068 
        2.29341       0.0083226      0.00814686 
        2.30914      0.00818325       0.0080163 
        2.32486      0.00805822      0.00788871 
        2.34061      0.00793487      0.00776372 
        2.35635      0.00780103      0.00764157 
        2.37203      0.00768265       0.0075225 
        2.38768      0.00755246      0.00740624 
        2.40339       0.0074504      0.00729204 
        2.41914      0.00734257      0.00718001 
        2.43483      0.00721198      0.00707075 
         2.4505      0.00712277      0.00696397 
        2.46622      0.00702049      0.00685906 
        2.48195       0.0069082      0.00675632 
        2.49759      0.00680164      0.00665625 
        2.51328      0.00672551      0.00655797 
        2.52906      0.00662682      0.00646107 
        2.54479       0.0065285      0.00636652 
        2.56049         0.00644      0.00627405 
        2.57618      0.00634388      0.00618353 
        2.59189      0.00625769      0.00609467 
        2.60758      0.00616055      0.00600771 
        2.62325      0.00608328      0.00592257 
        2.63898      0.00598933       0.0058388 
        2.65468      0.00591793      0.00575685 
        2.67044      0.00583752      0.00567613 
        2.68618      0.00575638      0.00559716 
        2.70184      0.00566855      0.00552003 
        2.71755      0.00559694      0.00544417 
        2.73329      0.00551341      0.00536963 
        2.74897      0.00545942      0.00529674 
        2.76462      0.00537814      0.00522539 
        2.78034      0.00530401      0.00515506 
        2.79607      0.00523891      0.00508597 
        2.81179      0.00517072      0.00501824 
        2.82749      0.00510176      0.00495183 
        2.84321      0.00503633      0.00488656 
        2.85893      0.00496573      0.00482249 
        2.87462      0.00490251       0.0047597 
        2.89033      0.00485594      0.00469797 
        2.90605      0.00478996       0.0046373 
        2.92176      0.00473508      0.00457774 
        2.93747      0.00466603      0.00451927 
        2.95318      0.00461285      0.00446181 
        2.96891      0.00456197      0.00440534 
        2.98456      0.00450875      0.00435011 
        3.00023      0.00444587      0.00429575 
        3.01596      0.00438183      0.00424216 
        3.03164      0.00434594      0.00418964 
        3.04738      0.00428783      0.00413787 
         3.0631      0.00422614        0.004087 
        3.07883      0.00417964      0.00403699 
        3.09456      0.00414224      0.00398784 
        3.11026      0.00408868      0.00393958 
        3.12596       0.0040412      0.00389214 
        3.14163      0.00398764       0.0038456 
        3.15734      0.00394304      0.00379971 
        3.17308      0.00389298      0.00375447 
        3.18879      0.00386112       0.0037101 
        3.20447      0.00381239      0.00366651 
         3.2202      0.00377116       0.0036235 
         3.2359      0.00372631      0.00358126 
        3.25157      0.00368531       0.0035398 
        3.26729      0.00365188      0.00349888 
        3.28304      0.00360455      0.00345853 
        3.29877      0.00356788      0.00341888 
        3.31446      0.00352923      0.00337994 
        3.33014      0.00348571      0.00334164 
        3.34585      0.00343998      0.00330389 
        3.36158      0.00341031      0.00326667 
        3.37727      0.00337606      0.00323014 
        3.39294      0.00334459      0.00319421 
        3.40867      0.00330826      0.00315871 
        3.42439       0.0032704      0.00312376 
        3.44008       0.0032377      0.00308942 
        3.45578        0.003198      0.00305558 
        3.47153      0.00317153      0.00302217 
        3.48724      0.00313954      0.00298932 
        3.50292      0.00309552      0.00295705 
        3.51859      0.00306845      0.00292527 
        3.53431      0.00304037      0.00289386 
        3.55007      0.00301834      0.00286284 
        3.56577      0.00298848       0.0028324 
        3.58146      0.00294512      0.00280243 
        3.59719      0.00291769      0.00277282 
        3.61292      0.00288811      0.00274365 
        3.62859      0.00286641      0.00271501 
        3.64429      0.00283044      0.00268674 
        3.66003      0.00280763      0.00265878 
        3.67578      0.00278059      0.00263124 
        3.69146      0.00274919      0.00260419 
        3.70712      0.00272909      0.00257757 
        3.72284      0.00269946      0.00255124 
        3.73853      0.00267515      0.00252532 
        3.75422      0.00264905      0.00249975 
        3.76993      0.00262276      0.00247452 
        3.78564      0.00260492      0.00244965 
        3.80137      0.00258018      0.00242508 
        3.81707      0.00255464      0.00240091 
        3.83279      0.00253249      0.00237704 
        3.84853      0.00250811      0.00235347 
        3.86424      0.00248005      0.00233027 
        3.87992      0.00246045      0.00230741 
        3.89561      0.00243903      0.00228487 
        3.91134      0.00241858      0.00226258 
        3.92704      0.00238984      0.00224062 
        3.94273      0.00238243      0.00221897 
        3.95845      0.00234934      0.00219757 
        3.97418      0.00232689      0.00217646 
        3.98988      0.00231809      0.00215565 
        4.00554      0.00229068      0.00213517 
        4.02125      0.00226301       0.0021149 
        4.03698      0.00224031      0.00209487 
        4.05268      0.00221931      0.00207514 
        4.06839      0.00220403      0.00205566 
         4.0841      0.00217923      0.00203643 
        4.09983      0.00216499      0.00201743 
        4.11555      0.00215079      0.00199867 
        4.13124      0.00213023      0.00198021 
        4.14693      0.00211682      0.00196197 
        4.16266      0.00209602      0.00194392 
        4.17839      0.00208217      0.00192611 
        4.19408      0.00206754      0.00190856 
        4.20977      0.00205838      0.00189123 
        4.22551      0.00204207      0.00187407 
        4.24123      0.00202724      0.00185715 
        4.25691       0.0020121      0.00184048 
        4.27259      0.00199848      0.00182401 
        4.28831      0.00198962      0.00180771 
        4.30404      0.00197803       0.0017916 
        4.31974      0.00196627      0.00177573 
        4.33543      0.00195428      0.00176005 
        4.35116      0.00194496      0.00174453 
        4.36688      0.00193271       0.0017292 
        4.38255      0.00192717      0.00171412 
        4.39825      0.00191835      0.00169918 
        4.41398      0.00190854       0.0016844 
         4.4297      0.00190251       0.0016698 
        4.44541      0.00189593      0.00165539 
        4.46111      0.00188832      0.00164116 
        4.47683      0.00188265      0.00162708 
        4.49251       0.0018753       0.0016132 
        4.50819       0.0018714      0.00159949 
         4.5239      0.00187094      0.00158592 
        4.53962      0.00186367      0.00157249 
        4.55535      0.00186091      0.00155921 
        4.57106      0.00186121      0.00154611 
        4.58678      0.00185669      0.00153315 
         4.6025      0.00185553      0.00152034 
        4.61821      0.00185793      0.00150768 
        4.63391        0.001854      0.00149518 
         4.6496      0.00185679      0.00148284 
        4.66532       0.0018552      0.00147061 
        4.68103      0.00186073      0.00145852 
        4.69673       0.0018554      0.00144659 
        4.71241       0.0018621       0.0014348 
        4.72811      0.00186643      0.00142313 
        4.74384      0.00186811      0.00141157 
        4.75955      0.00187166      0.00140015 
        4.77525      0.00187836      0.00138888 
        4.79096      0.00188405      0.00137771 
        4.80669      0.00188722      0.00136666 
         4.8224      0.00189463      0.00135575 
        4.83809      0.00190424      0.00134496 
        4.85379      0.00191845      0.00133429 
         4.8695      0.00192463      0.00132373 
        4.88521      0.00192594      0.00131329 
        4.90093      0.00194552      0.00130296 
        4.91663      0.00195212      0.00129275 
        4.93234      0.00196298      0.00128264 
        4.94807      0.00198325      0.00127263 
        4.96377      0.00199819      0.00126275 
        4.97943      0.00200927        0.001253 
        4.99514      0.00203157      0.00124332 
        5.01086      0.00203343      0.00123374 
        5.02654      0.00204977      0.00122429 
        5.04227      0.00207004      0.00121491 
          5.058      0.00209056      0.00120562 
        5.07371      0.00211425      0.00119645 
        5.08942      0.00213089      0.00118738 
        5.10513      0.00214489       0.0011784 
        5.12084       0.0021757       0.0011695 
        5.13656      0.00218908      0.00116071 
        5.15225      0.00222267      0.00115201 
        5.16796      0.00224169       0.0011434 
        5.18369      0.00227243      0.00113486 
         5.1994      0.00230231      0.00112643 
        5.21509      0.00232263      0.00111809 
        5.23079      0.00234972      0.00110983 
        5.24649      0.00238628      0.00110166 
        5.26217      0.00240793      0.00109358 
        5.27788      0.00244143      0.00108557 
        5.29359      0.00247567      0.00107763 
        5.30933      0.00251226      0.00106977 
        5.32504      0.00254773        0.001062 
        5.34073      0.00258739      0.00105431 
        5.35646      0.00262095      0.00104669 
        5.37218      0.00265762      0.00103914 
        5.38789      0.00269299      0.00103167 
        5.40357      0.00274114      0.00102429 
        5.41929      0.00277722      0.00101697 
        5.43502       0.0028274      0.00100972 
         5.4507      0.00287976      0.00100255 
        5.46639      0.00291707     0.000995459 
        5.48212      0.00296294     0.000988417 
        5.49786      0.00304139     0.000981435 
        5.51353      0.00306967     0.000974557 
        5.52921      0.00311246     0.000967737 
        5.54495      0.00317214     0.000960964 
        5.56066      0.00323581     0.000954263 
        5.57637       0.0032917     0.000947627 
        5.59207      0.00335497     0.000941061 
        5.60778      0.00341818     0.000934556 
        5.62346       0.0034718     0.000928121 
        5.63916      0.00353629     0.000921742 
        5.65487      0.00361614     0.000915419 
         5.6706      0.00367058     0.000909149 
        5.68633      0.00375396     0.000902936 
        5.70203      0.00382279     0.000896794 
        5.71773       0.0039288     0.000890711 
        5.73344      0.00397218     0.000884682 
        5.74916      0.00405809     0.000878703 
        5.76486      0.00414785     0.000872789 
        5.78054      0.00424337     0.000866938 
        5.79626      0.00431747     0.000861125 
          5.812      0.00442678      0.00085536 
         5.8277      0.00449551     0.000849665 
        5.84339      0.00463632     0.000844022 
        5.85911      0.00469913      0.00083842 
        5.87484      0.00481019      0.00083287 
        5.89053      0.00492981     0.000827383 
        5.90623      0.00506808     0.000821942 
        5.92195      0.00515196     0.000816541 
        5.93767      0.00525948     0.000811192 
        5.95336      0.00538314     0.000805901 
        5.96905      0.00552395     0.000800659 
        5.98476      0.00563851     0.000795456 
        6.00048      0.00577606     0.000790299 
        6.01617      0.00589517     0.000785194 
        6.03185      0.00603502     0.000780142 
        6.04756       0.0061964     0.000775122 
        6.06331      0.00635737     0.000770135 
        6.07903      0.00646995     0.000765204 
        6.09473      0.00666823      0.00076032 
        6.11044      0.00682392     0.000755476 
        6.12616      0.00697098     0.000750674 
        6.14186      0.00714165      0.00074592 
        6.15755       0.0073351     0.000741207 
        6.17326         0.00756     0.000736532 
        6.18898      0.00772582     0.000731895 
        6.20467      0.00789792     0.000727306 
        6.22036      0.00813172     0.000722758 
         6.2361      0.00832486     0.000718237 
         6.2518      0.00853807     0.000713762 
        6.26748      0.00873738     0.000709335 
        6.28319       0.0090133     0.000704934 
        6.29893      0.00922342     0.000700567 
        6.31463      0.00946928     0.000696244 
        6.33033      0.00974146      0.00069196 
        6.34604       0.0099116     0.000687709 
        6.36177        0.010249      0.00068349 
        6.37747       0.0105541     0.000679315 
