# k  (h/Mpc)    Pcb(k)  (Mpc/h)^3    Pcb_linear(k) (Mpc/h)^3   ShotnoiseSubtracted = true
      0.0200456         1871.12         1901.25 
      0.0350414         1401.85         1414.37 
      0.0492313         1066.65         1065.38 
      0.0637834         916.592         909.436 
      0.0800726         720.702         713.647 
       0.096163         518.532         521.064 
       0.111083         427.354         433.658 
       0.126058         390.379         389.221 
       0.142273         325.592         320.406 
       0.158546         261.311         254.899 
        0.17375         223.437         224.035 
       0.188953         207.748         204.079 
       0.204907         186.808           175.9 
       0.220756         156.258         149.346 
        0.23588         139.618         134.173 
         0.2514         125.905         122.911 
       0.267535         114.323         109.253 
       0.283568         102.283         96.3972 
       0.299022         93.9725         87.6908 
       0.314451         84.7764         80.8399 
       0.330372          78.449         73.5005 
       0.346141         71.2059         66.6437 
       0.361624         66.4202         61.3044 
       0.377134         62.6509          56.843 
       0.392932         55.6443         52.4636 
       0.408854         53.5294          48.323 
       0.424564           50.36         44.8358 
       0.440253         46.5638         41.8128 
       0.455999         44.0112         38.9815 
       0.471626         41.2951         36.3675 
        0.48727         39.2318         34.0283 
       0.502856         36.7968         31.9468 
       0.518488         35.2226         30.0192 
       0.534347          33.785         28.2019 
       0.550082         30.9554         26.5572 
       0.565732         28.8499         25.0665 
       0.581496         28.3207         23.6799 
       0.597222         27.3376         22.3942 
       0.612804         25.5175         21.2156 
       0.628434         24.6261         20.1249 
       0.644267         23.9141         19.0998 
       0.660051         22.6418          18.149 
       0.675724         21.5163         17.2692 
       0.691403         20.8421         16.4476 
       0.707174         20.0461         15.6756 
       0.722871         19.2554         14.9568 
        0.73838         18.5839         14.2914 
       0.754018         17.9199          13.662 
       0.769845         17.2287         13.0641 
        0.78569         16.7112         12.5019 
       0.801365         16.0632         11.9789 
       0.817031         15.6189         11.4866 
       0.832809         15.2582         11.0192 
       0.848511         14.3475         10.5803 
       0.864097         14.0301         10.1687 
       0.879701         13.6314         9.77884 
       0.895507         13.1068         9.40515 
       0.911279          12.883         9.05203 
        0.92691         12.4834         8.72023 
       0.942635         11.9567         8.40346 
       0.958396         11.6483         8.10196 
       0.974128         11.3552         7.81601 
       0.989692         11.2348         7.54688 
        1.00528         10.8374          7.2902 
        1.02113         10.4208          7.0416 
        1.03692         10.2287         6.80568 
        1.05264         9.95777         6.58181 
        1.06832         9.74758          6.3685 
        1.08405         9.39752         6.16421 
        1.09979         9.20141         5.96889 
        1.11537         9.05102         5.78409 
        1.13105         8.81115         5.60612 
        1.14679         8.64221         5.43506 
        1.16256         8.38359          5.2709 
        1.17828         8.28404         5.11415 
        1.19395         8.01468          4.9644 
         1.2097         7.81382         4.81996 
        1.22537         7.63301         4.68204 
          1.241         7.51868         4.55002 
        1.25666         7.43521         4.42282 
        1.27241         7.19887         4.29995 
        1.28819         7.03523          4.1816 
        1.30392         6.94219         4.06811 
        1.31957             6.8         3.95939 
        1.33529         6.67359          3.8543 
        1.35108         6.50115         3.75265 
        1.36674         6.45965         3.65545 
         1.3824         6.22114         3.56182 
        1.39811         6.14985          3.4712 
        1.41389         6.05626         3.38343 
        1.42964         5.95124         3.29888 
        1.44531         5.84884         3.21767 
        1.46101         5.73137         3.13905 
        1.47667         5.61087         3.06332 
        1.49229         5.56162         2.99033 
        1.50793         5.41055         2.91967 
        1.52367         5.37914         2.85086 
        1.53953         5.24951         2.78383 
        1.55526         5.15575         2.71952 
        1.57092         5.11115         2.65753 
        1.58662         4.98872         2.59735 
        1.60235           4.926         2.53894 
        1.61809         4.84388         2.48232 
        1.63369         4.76684         2.42795 
        1.64941         4.69858         2.37484 
        1.66519         4.63776         2.32315 
        1.68085         4.54386         2.27338 
        1.69652          4.4705         2.22507 
        1.71228         4.41617          2.1779 
        1.72806         4.34388         2.13208 
        1.74368         4.27165         2.08806 
        1.75933         4.22545          2.0452 
        1.77505         4.16855         2.00337 
        1.79081          4.0842         1.96264 
         1.8065         4.04529         1.92323 
        1.82218         4.00087         1.88495 
        1.83797         3.96122         1.84746 
        1.85367         3.88907         1.81121 
        1.86928         3.84513         1.77617 
        1.88497         3.77878         1.74186 
        1.90073         3.72246         1.70835 
        1.91647         3.67318         1.67576 
        1.93218         3.65017          1.6441 
        1.94787         3.60745         1.61331 
        1.96363          3.5458          1.5832 
        1.97935          3.4968         1.55393 
        1.99499         3.43361         1.52557 
        2.01064         3.41082         1.49788 
         2.0264          3.3762         1.47072 
        2.04216         3.33878         1.44425 
        2.05781          3.2893         1.41861 
        2.07353         3.25288          1.3935 
        2.08928         3.22238         1.36895 
        2.10499         3.17661         1.34507 
        2.12065           3.159         1.32183 
        2.13633         3.10596         1.29913 
        2.15211         3.06873         1.27682 
        2.16785         3.04026         1.25511 
        2.18349         3.01057         1.23404 
        2.19916         2.94888         1.21341 
        2.21489         2.93488         1.19319 
        2.23063          2.8933         1.17343 
         2.2463         2.87254          1.1542 
        2.26194         2.83262         1.13546 
        2.27765         2.81158         1.11705 
        2.29341            2.78           1.099 
        2.30914         2.74977         1.08138 
        2.32486         2.73132         1.06417 
        2.34061         2.69267         1.04731 
        2.35635         2.65111         1.03083 
        2.37203         2.64582         1.01477 
        2.38768         2.61782        0.999088 
        2.40339         2.59382        0.983683 
        2.41914         2.56128         0.96857 
        2.43483         2.53865        0.953831 
         2.4505         2.50098        0.939427 
        2.46622          2.4942        0.925274 
        2.48195         2.45948        0.911414 
        2.49759         2.43885        0.897915 
        2.51328         2.41367        0.884658 
        2.52906         2.40098        0.871587 
        2.54479         2.36963        0.858831 
        2.56049         2.34707        0.846358 
        2.57618         2.32987        0.834146 
        2.59189         2.31997        0.822159 
        2.60758         2.28187        0.810428 
        2.62325         2.26677        0.798943 
        2.63898         2.24102        0.787643 
        2.65468          2.2236        0.776588 
        2.67044          2.2112        0.765699 
        2.68618         2.18031        0.755046 
        2.70184         2.16413        0.744641 
        2.71755         2.14882        0.734407 
        2.73329          2.1259        0.724353 
        2.74897         2.11174        0.714521 
        2.76462          2.0904        0.704895 
        2.78034         2.08331        0.695408 
        2.79607         2.05342        0.686088 
        2.81179         2.03887        0.676951 
        2.82749         2.02524        0.667992 
        2.84321         2.00774        0.659187 
        2.85893         1.99087        0.650545 
        2.87462         1.97599        0.642074 
        2.89033         1.95053        0.633747 
        2.90605         1.93779        0.625563 
        2.92176         1.92809        0.617528 
        2.93747         1.91116        0.609641 
        2.95318         1.89601         0.60189 
        2.96891         1.88077        0.594272 
        2.98456         1.86924        0.586821 
        3.00023         1.85218        0.579488 
        3.01596         1.84277        0.572259 
        3.03164          1.8295        0.565175 
        3.04738         1.80504        0.558191 
         3.0631         1.79231        0.551329 
        3.07883         1.78397        0.544583 
        3.09456         1.77604        0.537952 
        3.11026         1.75606        0.531442 
        3.12596         1.74499        0.525042 
        3.14163         1.73249        0.518764 
        3.15734         1.72142        0.512574 
        3.17308         1.70586        0.506471 
        3.18879         1.70056        0.500485 
        3.20447         1.68225        0.494606 
         3.2202          1.6699        0.488804 
         3.2359         1.66014        0.483106 
        3.25157          1.6489        0.477513 
        3.26729         1.63493        0.471992 
        3.28304         1.62817        0.466549 
        3.29877         1.61146          0.4612 
        3.31446         1.59867        0.455947 
        3.33014         1.59644        0.450781 
        3.34585         1.58364        0.445688 
        3.36158         1.56655        0.440667 
        3.37727         1.56356         0.43574 
        3.39294         1.54767        0.430893 
        3.40867         1.53698        0.426103 
        3.42439         1.52792         0.42139 
        3.44008         1.52058        0.416757 
        3.45578         1.51278        0.412191 
        3.47153         1.49839        0.407685 
        3.48724         1.48917        0.403254 
        3.50292         1.48363          0.3989 
        3.51859         1.47688        0.394613 
        3.53431         1.46396        0.390376 
        3.55007          1.4566        0.386192 
        3.56577         1.44601        0.382086 
        3.58146         1.43909        0.378042 
        3.59719         1.42691        0.374048 
        3.61292         1.42358        0.370113 
        3.62859         1.40977         0.36625 
        3.64429         1.40299        0.362436 
        3.66003         1.39235        0.358664 
        3.67578          1.3839        0.354949 
        3.69146         1.37908          0.3513 
        3.70712         1.36397         0.34771 
        3.72284         1.36412        0.344157 
        3.73853         1.35081         0.34066 
        3.75422         1.34439        0.337211 
        3.76993         1.33923        0.333808 
        3.78564         1.33045        0.330453 
        3.80137         1.31841        0.327139 
        3.81707          1.3158        0.323878 
        3.83279         1.30403        0.320659 
        3.84853         1.29749        0.317479 
        3.86424         1.29127        0.314349 
        3.87992         1.28668        0.311266 
        3.89561         1.27759        0.308224 
        3.91134         1.26949        0.305218 
        3.92704           1.261        0.302255 
        3.94273         1.25755        0.299335 
        3.95845         1.24869        0.296448 
        3.97418         1.24039          0.2936 
        3.98988           1.232        0.290793 
        4.00554         1.22735         0.28803 
        4.02125         1.21752        0.285296 
        4.03698         1.20685        0.282594 
        4.05268         1.19858        0.279933 
        4.06839         1.18682        0.277304 
         4.0841         1.18342        0.274711 
        4.09983         1.17533        0.272147 
        4.11555         1.16809        0.269617 
        4.13124         1.15923        0.267127 
        4.14693         1.14984        0.264666 
        4.16266         1.14303        0.262231 
        4.17839          1.1387        0.259828 
        4.19408         1.13112        0.257461 
        4.20977         1.12276        0.255123 
        4.22551         1.11718        0.252809 
        4.24123         1.11031        0.250525 
        4.25691          1.1027        0.248277 
        4.27259          1.0962        0.246056 
        4.28831         1.09025        0.243857 
        4.30404         1.08627        0.241684 
        4.31974         1.07434        0.239542 
        4.33543         1.07078        0.237427 
        4.35116         1.06571        0.235334 
        4.36688         1.05813        0.233266 
        4.38255          1.0541        0.231231 
        4.39825         1.05077        0.229216 
        4.41398         1.04224        0.227222 
         4.4297         1.03597        0.225253 
        4.44541         1.03122        0.223309 
        4.46111         1.02915        0.221389 
        4.47683          1.0233         0.21949 
        4.49251         1.01732        0.217618 
        4.50819         1.01236        0.215768 
         4.5239         1.00599        0.213937 
        4.53962         1.00366        0.212126 
        4.55535        0.996853        0.210335 
        4.57106        0.994276        0.208567 
        4.58678        0.988148        0.206819 
         4.6025        0.984766        0.205091 
        4.61821        0.981027        0.203383 
        4.63391        0.974011        0.201698 
         4.6496        0.969264        0.200032 
        4.66532        0.967603        0.198382 
        4.68103        0.962372        0.196752 
        4.69673        0.959884        0.195142 
        4.71241        0.953033        0.193552 
        4.72811        0.952816        0.191977 
        4.74384        0.945779        0.190418 
        4.75955        0.942298        0.188878 
        4.77525        0.937642        0.187357 
        4.79096        0.934917         0.18585 
        4.80669        0.933336         0.18436 
         4.8224          0.9287        0.182888 
        4.83809        0.924787        0.181433 
        4.85379           0.923        0.179994 
         4.8695        0.920294        0.178569 
        4.88521        0.913209         0.17716 
        4.90093        0.912854        0.175767 
        4.91663        0.909858         0.17439 
        4.93234        0.904868        0.173026 
        4.94807        0.902722        0.171676 
        4.96377        0.899929        0.170343 
        4.97943        0.897235        0.169027 
        4.99514         0.89375        0.167722 
        5.01086        0.892291         0.16643 
        5.02654        0.889178        0.165155 
        5.04227        0.884938        0.163889 
          5.058        0.882317        0.162636 
        5.07371        0.880342        0.161399 
        5.08942        0.877611        0.160175 
        5.10513        0.875141        0.158963 
        5.12084        0.873344        0.157764 
        5.13656        0.870219        0.156577 
        5.15225        0.869119        0.155404 
        5.16796        0.863814        0.154242 
        5.18369        0.862445        0.153091 
         5.1994        0.861299        0.151953 
        5.21509         0.85865        0.150829 
        5.23079        0.857819        0.149714 
        5.24649         0.85605        0.148612 
        5.26217        0.851028        0.147522 
        5.27788        0.850818        0.146441 
        5.29359        0.848694        0.145371 
        5.30933        0.846782         0.14431 
        5.32504        0.845352        0.143261 
        5.34073        0.842954        0.142224 
        5.35646        0.841237        0.141196 
        5.37218        0.840067        0.140177 
        5.38789        0.838019        0.139171 
        5.40357        0.835129        0.138175 
        5.41929        0.835788        0.137187 
        5.43502        0.832786        0.136209 
         5.4507        0.833196        0.135243 
        5.46639        0.829404        0.134285 
        5.48212        0.826058        0.133336 
        5.49786        0.825536        0.132394 
        5.51353        0.822952        0.131466 
        5.52921        0.823229        0.130546 
        5.54495        0.822134        0.129632 
        5.56066         0.81843        0.128728 
        5.57637        0.818998        0.127833 
        5.59207         0.81726        0.126947 
        5.60778        0.815833         0.12607 
        5.62346        0.814956        0.125202 
        5.63916        0.812501        0.124341 
        5.65487        0.811182        0.123488 
         5.6706        0.812726        0.122642 
        5.68633         0.80921        0.121804 
        5.70203        0.807149        0.120976 
        5.71773        0.806869        0.120155 
        5.73344        0.803495        0.119342 
        5.74916        0.805823        0.118535 
        5.76486         0.80243        0.117738 
        5.78054        0.801009        0.116948 
        5.79626        0.800068        0.116164 
          5.812        0.800567        0.115386 
         5.8277        0.798226        0.114618 
        5.84339        0.796498        0.113857 
        5.85911        0.794984        0.113101 
        5.87484        0.794558        0.112353 
        5.89053        0.793436        0.111612 
        5.90623        0.792101        0.110878 
        5.92195        0.790312         0.11015 
        5.93767        0.788759        0.109428 
        5.95336        0.788891        0.108714 
        5.96905         0.78744        0.108007 
        5.98476        0.785141        0.107306 
        6.00048        0.787027         0.10661 
        6.01617        0.783682        0.105921 
        6.03185        0.782455         0.10524 
        6.04756        0.782492        0.104562 
        6.06331        0.782565         0.10389 
        6.07903        0.780026        0.103225 
        6.09473        0.779993        0.102566 
        6.11044        0.779046        0.101912 
        6.12616        0.777037        0.101265 
        6.14186        0.776536        0.100623 
        6.15755         0.77515       0.0999874 
        6.17326        0.775131       0.0993567 
        6.18898        0.773705       0.0987312 
        6.20467        0.774263       0.0981122 
        6.22036        0.770187       0.0974987 
         6.2361        0.770926       0.0968888 
         6.2518        0.769147       0.0962851 
        6.26748        0.769136       0.0956879 
        6.28319        0.769099       0.0950943 
        6.29893        0.765545       0.0945051 
        6.31463        0.766723        0.093922 
        6.33033        0.765883       0.0933441 
        6.34604        0.764257       0.0927707 
        6.36177        0.762983       0.0922015 
        6.37747        0.763336       0.0916383 
