# k  (h/Mpc)    Pcb(k)  (Mpc/h)^3    Pcb_linear(k) (Mpc/h)^3   ShotnoiseSubtracted = true
      0.0200456         4106.09         4165.47 
      0.0350414         3155.54         3098.75 
      0.0492313         2330.01         2334.15 
      0.0637834         1945.98          1992.5 
      0.0800726          1525.8         1563.54 
       0.096163         1168.67         1141.61 
       0.111083         980.467         950.106 
       0.126058          841.47         852.749 
       0.142273         699.618         701.982 
       0.158546         572.185         558.462 
        0.17375          509.37         490.842 
       0.188953         463.973         447.119 
       0.204907         388.721         385.382 
       0.220756         345.557         327.205 
        0.23588         310.105         293.962 
         0.2514         281.471         269.288 
       0.267535          262.68         239.365 
       0.283568         230.001         211.198 
       0.299022         215.751         192.123 
       0.314451         207.921         177.113 
       0.330372         182.584         161.033 
       0.346141         168.342         146.011 
       0.361624         157.736         134.313 
       0.377134         144.603         124.538 
       0.392932         140.876         114.943 
       0.408854         131.143         105.871 
       0.424564         125.454         98.2313 
       0.440253         114.448         91.6082 
       0.455999         106.065         85.4051 
       0.471626         101.726          79.678 
        0.48727          99.021         74.5531 
       0.502856         91.5593         69.9927 
       0.518488         88.0776         65.7695 
       0.534347         83.2524         61.7879 
       0.550082         80.6033         58.1845 
       0.565732         78.2236         54.9184 
       0.581496          72.839         51.8805 
       0.597222         70.0584         49.0637 
       0.612804         67.8192         46.4816 
       0.628434          66.328         44.0919 
       0.644267          62.867         41.8459 
       0.660051         60.4177          39.763 
       0.675724         58.4018         37.8353 
       0.691403         57.5026         36.0354 
       0.707174         55.6133         34.3439 
       0.722871         53.9031         32.7691 
        0.73838         51.6035         31.3112 
       0.754018          49.084         29.9322 
       0.769845         48.4146         28.6222 
        0.78569         46.7233         27.3906 
       0.801365         45.5476         26.2447 
       0.817031         43.8376         25.1661 
       0.832809         43.1473         24.1421 
       0.848511         41.8107         23.1805 
       0.864097         40.8897         22.2786 
       0.879701         40.1618         21.4246 
       0.895507         38.7596         20.6059 
       0.911279         37.6636         19.8322 
        0.92691         36.9512         19.1053 
       0.942635         36.2393         18.4112 
       0.958396         35.5432         17.7507 
       0.974128         34.6054         17.1242 
       0.989692         33.4129         16.5346 
        1.00528         33.1064         15.9722 
        1.02113          32.256         15.4275 
        1.03692         31.7088         14.9107 
        1.05264         31.0714         14.4202 
        1.06832         30.5256         13.9528 
        1.08405         29.6731         13.5053 
        1.09979         29.3684         13.0773 
        1.11537         28.5053         12.6724 
        1.13105         28.0667         12.2825 
        1.14679         27.3976         11.9077 
        1.16256         27.0292         11.5481 
        1.17828         26.6361         11.2047 
        1.19395         26.1902         10.8766 
         1.2097         25.6124         10.5601 
        1.22537         25.2081          10.258 
          1.241           24.77         9.96869 
        1.25666         24.4707         9.69001 
        1.27241         24.0417         9.42081 
        1.28819         23.1775         9.16152 
        1.30392         23.4837         8.91287 
        1.31957         22.8573         8.67468 
        1.33529         22.4336         8.44443 
        1.35108         22.2582         8.22174 
        1.36674         21.8469         8.00877 
         1.3824         21.4557         7.80364 
        1.39811          21.054          7.6051 
        1.41389         20.8294          7.4128 
        1.42964         20.5881         7.22755 
        1.44531         20.2726         7.04963 
        1.46101         19.9909         6.87738 
        1.47667          19.735         6.71148 
        1.49229         19.3288         6.55156 
        1.50793         19.1561         6.39674 
        1.52367         18.9351         6.24598 
        1.53953          18.636         6.09913 
        1.55526         18.3384         5.95824 
        1.57092         18.3036         5.82243 
        1.58662         18.0377         5.69058 
        1.60235          17.713         5.56261 
        1.61809         17.5716         5.43855 
        1.63369         17.2749         5.31943 
        1.64941         17.1245         5.20307 
        1.66519         16.8192         5.08981 
        1.68085         16.5443         4.98077 
        1.69652         16.5817         4.87492 
        1.71228         16.2428         4.77159 
        1.72806         16.0127         4.67121 
        1.74368         15.8885         4.57476 
        1.75933         15.7461         4.48087 
        1.77505         15.5243          4.3892 
        1.79081         15.3548         4.29997 
         1.8065         15.2599         4.21363 
        1.82218         15.1032         4.12976 
        1.83797         14.9481         4.04763 
        1.85367         14.8199         3.96821 
        1.86928         14.6316         3.89142 
        1.88497         14.4764         3.81627 
        1.90073         14.2726         3.74285 
        1.91647         13.9673         3.67145 
        1.93218         13.9841         3.60208 
        1.94787         13.7228         3.53463 
        1.96363         13.6847         3.46866 
        1.97935         13.5551         3.40452 
        1.99499         13.3892         3.34239 
        2.01064         13.2596         3.28173 
         2.0264         13.0496         3.22222 
        2.04216         13.0991         3.16422 
        2.05781         12.9283         3.10804 
        2.07353         12.7741         3.05304 
        2.08928         12.5848         2.99926 
        2.10499         12.4581         2.94693 
        2.12065          12.405         2.89602 
        2.13633         12.2562         2.84629 
        2.15211          12.143         2.79741 
        2.16785         11.9894         2.74983 
        2.18349         11.9015         2.70367 
        2.19916         11.7629         2.65848 
        2.21489         11.6892         2.61419 
        2.23063         11.6326         2.57088 
         2.2463         11.4222         2.52876 
        2.26194         11.3482          2.4877 
        2.27765         11.2228         2.44735 
        2.29341         11.0712          2.4078 
        2.30914         11.0676         2.36922 
        2.32486          10.939         2.33151 
        2.34061         10.8727         2.29457 
        2.35635         10.7403         2.25847 
        2.37203         10.6265         2.22328 
        2.38768         10.5212         2.18891 
        2.40339         10.4775         2.15516 
        2.41914         10.3595         2.12205 
        2.43483         10.3101         2.08976 
         2.4505         10.2206          2.0582 
        2.46622          10.087         2.02719 
        2.48195          10.072         1.99683 
        2.49759         9.88899         1.96725 
        2.51328         9.86987         1.93821 
        2.52906         9.75959         1.90957 
        2.54479         9.65691         1.88162 
        2.56049         9.59648          1.8543 
        2.57618         9.53027         1.82754 
        2.59189         9.51577         1.80128 
        2.60758         9.37473         1.77558 
        2.62325         9.29572         1.75042 
        2.63898         9.28116         1.72566 
        2.65468         9.14551         1.70144 
        2.67044          9.0804         1.67758 
        2.68618         8.98347         1.65424 
        2.70184         8.96796         1.63144 
        2.71755         8.85647         1.60902 
        2.73329            8.75         1.58699 
        2.74897         8.71653         1.56545 
        2.76462         8.67872         1.54436 
        2.78034         8.59035         1.52358 
        2.79607         8.53359         1.50316 
        2.81179         8.45175         1.48314 
        2.82749         8.38473         1.46351 
        2.84321         8.32686         1.44422 
        2.85893         8.28134         1.42529 
        2.87462         8.20831         1.40673 
        2.89033         8.12902         1.38849 
        2.90605         8.08386         1.37055 
        2.92176         8.00781         1.35295 
        2.93747         7.94286         1.33567 
        2.95318         7.87366         1.31869 
        2.96891         7.81348           1.302 
        2.98456         7.76064         1.28567 
        3.00023         7.72701         1.26961 
        3.01596         7.60836         1.25377 
        3.03164         7.58694         1.23825 
        3.04738         7.53574         1.22295 
         3.0631         7.47475         1.20791 
        3.07883         7.42642         1.19313 
        3.09456         7.33036         1.17861 
        3.11026          7.3083         1.16434 
        3.12596         7.24415         1.15032 
        3.14163          7.2171         1.13657 
        3.15734         7.14734           1.123 
        3.17308         7.12158         1.10963 
        3.18879         7.05061         1.09652 
        3.20447         6.99713         1.08364 
         3.2202         6.94248         1.07093 
         3.2359         6.89315         1.05844 
        3.25157          6.8522         1.04619 
        3.26729         6.80192         1.03409 
        3.28304         6.75215         1.02217 
        3.29877         6.71716         1.01045 
        3.31446         6.68172         0.99894 
        3.33014         6.60456        0.987623 
        3.34585         6.56738        0.976464 
        3.36158         6.51299        0.965464 
        3.37727         6.47641        0.954668 
        3.39294         6.43049         0.94405 
        3.40867          6.3938        0.933556 
        3.42439         6.31657        0.923228 
        3.44008         6.27875        0.913079 
        3.45578         6.24175        0.903076 
        3.47153         6.19084        0.893202 
        3.48724         6.15366        0.883494 
        3.50292         6.11296        0.873955 
        3.51859         6.06996        0.864563 
        3.53431          6.0338         0.85528 
        3.55007         5.99382        0.846113 
        3.56577         5.92687        0.837117 
        3.58146         5.89799        0.828257 
        3.59719          5.8659        0.819506 
        3.61292         5.83213        0.810885 
        3.62859         5.78914        0.802423 
        3.64429         5.74833        0.794065 
        3.66003         5.71695        0.785803 
        3.67578         5.68461        0.777662 
        3.69146          5.6345        0.769668 
        3.70712         5.60474        0.761802 
        3.72284         5.56975        0.754018 
        3.73853         5.51888        0.746357 
        3.75422         5.47773        0.738801 
        3.76993         5.46128        0.731343 
        3.78564         5.41749        0.723993 
        3.80137         5.36961        0.716733 
        3.81707         5.33078        0.709588 
        3.83279         5.31355        0.702536 
        3.84853         5.25842        0.695569 
        3.86424         5.23242        0.688711 
        3.87992         5.20915        0.681956 
        3.89561         5.17194        0.675293 
        3.91134          5.1319        0.668705 
        3.92704         5.08853        0.662214 
        3.94273          5.0631        0.655817 
        3.95845         5.02475        0.649493 
        3.97418         4.99698        0.643252 
        3.98988         4.96485        0.637102 
        4.00554         4.93511        0.631049 
        4.02125         4.89013        0.625059 
        4.03698         4.86526        0.619138 
        4.05268         4.82611        0.613308 
        4.06839         4.79222        0.607549 
         4.0841         4.76057        0.601867 
        4.09983          4.7318         0.59625 
        4.11555         4.69281        0.590708 
        4.13124         4.67256        0.585252 
        4.14693         4.65021        0.579861 
        4.16266         4.60349        0.574525 
        4.17839         4.57867        0.569261 
        4.19408         4.55095        0.564076 
        4.20977         4.51491        0.558953 
        4.22551         4.48175        0.553882 
        4.24123         4.44059         0.54888 
        4.25691         4.42481        0.543953 
        4.27259         4.39579        0.539087 
        4.28831         4.35654         0.53427 
        4.30404         4.33799        0.529508 
        4.31974         4.30268        0.524816 
        4.33543         4.27722        0.520183 
        4.35116         4.25323        0.515595 
        4.36688         4.23594        0.511065 
        4.38255         4.21081        0.506607 
        4.39825         4.18261        0.502193 
        4.41398         4.15538        0.497823 
         4.4297         4.13371         0.49351 
        4.44541         4.10197         0.48925 
        4.46111         4.05914        0.485043 
        4.47683         4.03636        0.480884 
        4.49251         4.02031        0.476782 
        4.50819         3.99785        0.472729 
         4.5239         3.95983        0.468718 
        4.53962         3.93319        0.464749 
        4.55535         3.92094        0.460825 
        4.57106         3.88961        0.456952 
        4.58678         3.86397        0.453123 
         4.6025         3.84948        0.449337 
        4.61821         3.81888        0.445595 
        4.63391         3.79028        0.441902 
         4.6496         3.76949        0.438252 
        4.66532         3.75087        0.434638 
        4.68103         3.72578        0.431067 
        4.69673         3.70495        0.427539 
        4.71241         3.67896        0.424055 
        4.72811         3.65637        0.420605 
        4.74384         3.64667        0.417188 
        4.75955         3.60741        0.413816 
        4.77525         3.58838        0.410482 
        4.79096         3.56868        0.407182 
        4.80669         3.54631        0.403916 
         4.8224         3.52775        0.400691 
        4.83809         3.51291        0.397504 
        4.85379         3.48056        0.394351 
         4.8695         3.46405        0.391229 
        4.88521          3.4415        0.388143 
        4.90093         3.42355         0.38509 
        4.91663         3.40648        0.382072 
        4.93234         3.37943        0.379085 
        4.94807         3.36937        0.376127 
        4.96377         3.34276        0.373207 
        4.97943         3.32841        0.370324 
        4.99514         3.30242        0.367464 
        5.01086         3.27823        0.364633 
        5.02654         3.26177        0.361839 
        5.04227         3.24678        0.359067 
          5.058         3.23155        0.356322 
        5.07371         3.21043        0.353612 
        5.08942         3.18019        0.350929 
        5.10513         3.17342        0.348275 
        5.12084         3.14894        0.345647 
        5.13656         3.13135        0.343047 
        5.15225         3.11527        0.340478 
        5.16796         3.09515        0.337931 
        5.18369         3.07288        0.335409 
         5.1994          3.0579        0.332917 
        5.21509         3.04378        0.330453 
        5.23079         3.02994        0.328011 
        5.24649         3.00651        0.325596 
        5.26217         2.99016        0.323207 
        5.27788         2.97847        0.320839 
        5.29359         2.96114        0.318494 
        5.30933         2.94686         0.31617 
        5.32504         2.93046        0.313873 
        5.34073         2.90486        0.311601 
        5.35646         2.89305        0.309348 
        5.37218         2.87826        0.307116 
        5.38789         2.85989        0.304911 
        5.40357         2.84521         0.30273 
        5.41929         2.83543        0.300565 
        5.43502         2.81511        0.298422 
         5.4507         2.79218        0.296305 
        5.46639            2.78        0.294208 
        5.48212         2.76999        0.292127 
        5.49786          2.7533        0.290063 
        5.51353         2.73381         0.28803 
        5.52921         2.72078        0.286015 
        5.54495         2.70504        0.284013 
        5.56066         2.68669        0.282032 
        5.57637         2.67949        0.280071 
        5.59207          2.6626        0.278131 
        5.60778         2.65315        0.276208 
        5.62346         2.62853        0.274306 
        5.63916         2.62063        0.272421 
        5.65487         2.59973        0.270552 
         5.6706         2.59319        0.268699 
        5.68633         2.58155        0.266863 
        5.70203         2.56291        0.265048 
        5.71773         2.55042         0.26325 
        5.73344         2.53176        0.261468 
        5.74916         2.52204        0.259701 
        5.76486         2.50973        0.257953 
        5.78054         2.49281        0.256223 
        5.79626         2.48331        0.254505 
          5.812         2.46467        0.252802 
         5.8277         2.45513        0.251118 
        5.84339         2.44527        0.249451 
        5.85911         2.43019        0.247795 
        5.87484          2.4157        0.246155 
        5.89053         2.40812        0.244533 
        5.90623         2.39203        0.242925 
        5.92195         2.37924        0.241329 
        5.93767         2.37024        0.239748 
        5.95336         2.35801        0.238184 
        5.96905         2.34606        0.236635 
        5.98476         2.32892        0.235097 
        6.00048         2.31821        0.233573 
        6.01617         2.30891        0.232064 
        6.03185         2.29466        0.230571 
        6.04756         2.28649        0.229087 
        6.06331         2.27681        0.227614 
        6.07903         2.26303        0.226156 
        6.09473         2.24796        0.224713 
        6.11044         2.24436        0.223281 
        6.12616          2.2299        0.221862 
        6.14186         2.22084        0.220457 
        6.15755          2.2062        0.219064 
        6.17326         2.19494        0.217682 
        6.18898         2.18511        0.216311 
        6.20467         2.17101        0.214955 
        6.22036          2.1631        0.213611 
         6.2361          2.1513        0.212275 
         6.2518         2.14482        0.210952 
        6.26748         2.13348        0.209644 
        6.28319         2.12452        0.208343 
        6.29893         2.11178        0.207053 
        6.31463         2.09974        0.205775 
        6.33033         2.08661        0.204509 
        6.34604         2.07727        0.203252 
        6.36177         2.07014        0.202006 
        6.37747         2.06147        0.200771 
