# k  (h/Mpc)    Pcb(k)  (Mpc/h)^3    Pcb_linear(k) (Mpc/h)^3   ShotnoiseSubtracted = true
      0.0200456         6939.96         7071.75 
      0.0350414         5141.99         5260.78 
      0.0492313         3938.81          3962.7 
      0.0637834         3425.33         3382.67 
      0.0800726            2691         2654.43 
       0.096163         1905.19         1938.11 
       0.111083          1565.6            1613 
       0.126058          1453.5         1447.72 
       0.142273         1225.19         1191.76 
       0.158546         1010.24         948.106 
        0.17375         842.046         833.306 
       0.188953         806.084         759.078 
       0.204907         743.914         654.266 
       0.220756         627.979         555.499 
        0.23588         559.307         499.061 
         0.2514         495.661         457.172 
       0.267535         470.294         406.371 
       0.283568         426.851         358.552 
       0.299022         397.015         326.169 
       0.314451         367.675         300.686 
       0.330372         340.329         273.387 
       0.346141         307.447         247.883 
       0.361624         294.245         228.023 
       0.377134         276.892         211.429 
       0.392932         255.982          195.14 
       0.408854         246.071         179.739 
       0.424564         236.256         166.768 
       0.440253         223.717         155.524 
       0.455999         211.132         144.993 
       0.471626         195.281          135.27 
        0.48727         190.612         126.569 
       0.502856         183.041         118.827 
       0.518488         178.938         111.657 
       0.534347         170.448         104.898 
       0.550082         158.685         98.7803 
       0.565732         154.058         93.2354 
       0.581496         147.518          88.078 
       0.597222         143.111         83.2958 
       0.612804          136.72         78.9122 
       0.628434         133.874         74.8551 
       0.644267         129.442         71.0422 
       0.660051         126.803         67.5059 
       0.675724         123.081         64.2332 
       0.691403         119.423         61.1775 
       0.707174         114.904         58.3059 
       0.722871         113.037         55.6324 
        0.73838         110.913         53.1573 
       0.754018         105.858         50.8161 
       0.769845         103.965         48.5922 
        0.78569         101.443         46.5012 
       0.801365         98.5503         44.5558 
       0.817031         95.2874         42.7246 
       0.832809         94.2599         40.9862 
       0.848511         90.8282         39.3537 
       0.864097         88.4114         37.8226 
       0.879701          87.595         36.3727 
       0.895507         85.6956         34.9827 
       0.911279         84.4745         33.6693 
        0.92691         82.2052         32.4351 
       0.942635         79.9106         31.2569 
       0.958396         79.6246         30.1355 
       0.974128         77.6298         29.0719 
       0.989692         75.8572         28.0708 
        1.00528         74.5183         27.1161 
        1.02113         72.9058         26.1914 
        1.03692         71.1127         25.3139 
        1.05264         70.6419         24.4812 
        1.06832          69.041         23.6878 
        1.08405         68.1865          22.928 
        1.09979         67.3491         22.2015 
        1.11537         64.9069         21.5141 
        1.13105         65.3483         20.8521 
        1.14679         64.0614         20.2159 
        1.16256         62.9045         19.6053 
        1.17828         61.3602         19.0222 
        1.19395          60.916         18.4652 
         1.2097         59.5932          17.928 
        1.22537         59.4356          17.415 
          1.241         57.9897         16.9239 
        1.25666         56.8882         16.4508 
        1.27241         56.5087         15.9938 
        1.28819         55.1725         15.5536 
        1.30392         54.3539         15.1315 
        1.31957         54.0419         14.7271 
        1.33529         53.3711         14.3362 
        1.35108         52.7892         13.9581 
        1.36674         51.9245         13.5966 
         1.3824         50.7302         13.2483 
        1.39811         50.5652         12.9112 
        1.41389         49.7142         12.5848 
        1.42964          48.969         12.2703 
        1.44531         48.4998         11.9682 
        1.46101         47.3719         11.6758 
        1.47667          47.384         11.3941 
        1.49229         46.9015         11.1226 
        1.50793         45.9599         10.8598 
        1.52367         45.4734         10.6039 
        1.53953         45.1201         10.3545 
        1.55526         44.3448         10.1153 
        1.57092         43.9676         9.88477 
        1.58662          43.368         9.66093 
        1.60235           42.95         9.44368 
        1.61809         42.2295         9.23307 
        1.63369         41.6691         9.03084 
        1.64941         41.0711         8.83329 
        1.66519         40.6921         8.64101 
        1.68085         40.3374         8.45589 
        1.69652         39.8434          8.2762 
        1.71228         39.5949         8.10077 
        1.72806         38.9546         7.93035 
        1.74368         38.4869          7.7666 
        1.75933         38.0415          7.6072 
        1.77505         37.7838         7.45158 
        1.79081         37.1678         7.30009 
         1.8065         36.7884         7.15351 
        1.82218         36.5046         7.01113 
        1.83797         36.0029         6.87169 
        1.85367         35.5224         6.73686 
        1.86928         35.2598          6.6065 
        1.88497         34.7314         6.47891 
        1.90073         34.6367         6.35427 
        1.91647         34.1423         6.23305 
        1.93218         33.8104         6.11528 
        1.94787         33.4568         6.00077 
        1.96363         33.2142         5.88876 
        1.97935         32.8169         5.77988 
        1.99499         32.3938          5.6744 
        2.01064          32.138         5.57142 
         2.0264          31.625         5.47038 
        2.04216         31.2799         5.37193 
        2.05781         31.0605         5.27654 
        2.07353         30.7304         5.18316 
        2.08928         30.6759         5.09186 
        2.10499         30.2998         5.00302 
        2.12065         29.7945          4.9166 
        2.13633         29.6355         4.83216 
        2.15211         29.0748         4.74918 
        2.16785         28.9154         4.66841 
        2.18349         28.7684         4.59004 
        2.19916         28.4467         4.51332 
        2.21489         28.0524         4.43812 
        2.23063         27.8741          4.3646 
         2.2463         27.7005          4.2931 
        2.26194         27.4035         4.22339 
        2.27765         27.0757         4.15489 
        2.29341         26.7413         4.08775 
        2.30914         26.6649         4.02224 
        2.32486         26.3253         3.95822 
        2.34061         26.0666          3.8955 
        2.35635         25.7332         3.83421 
        2.37203         25.5605         3.77447 
        2.38768         25.3321         3.71614 
        2.40339         25.1927         3.65884 
        2.41914         24.8883         3.60262 
        2.43483         24.5606          3.5478 
         2.4505          24.346         3.49423 
        2.46622         24.1087         3.44158 
        2.48195         23.9016         3.39003 
        2.49759         23.6317         3.33982 
        2.51328         23.4277         3.29051 
        2.52906         23.2716         3.24189 
        2.54479         22.9689         3.19445 
        2.56049         22.7096         3.14805 
        2.57618         22.5461         3.10263 
        2.59189         22.4042         3.05804 
        2.60758         22.2045         3.01441 
        2.62325         21.9781         2.97169 
        2.63898         21.8439         2.92966 
        2.65468         21.6281         2.88854 
        2.67044         21.3767         2.84804 
        2.68618         21.2143         2.80842 
        2.70184         21.0432         2.76971 
        2.71755         20.8041         2.73165 
        2.73329         20.6329         2.69425 
        2.74897          20.361         2.65768 
        2.76462         20.4417         2.62188 
        2.78034         20.1201         2.58659 
        2.79607         19.9111         2.55192 
        2.81179         19.7935         2.51794 
        2.82749         19.6246         2.48462 
        2.84321         19.4469         2.45187 
        2.85893         19.2521         2.41972 
        2.87462         19.0556         2.38821 
        2.89033         18.9005         2.35724 
        2.90605         18.7967          2.3268 
        2.92176         18.5235         2.29692 
        2.93747         18.4412         2.26758 
        2.95318         18.2445         2.23875 
        2.96891         18.0699         2.21041 
        2.98456         17.9239          2.1827 
        3.00023         17.7978         2.15542 
        3.01596         17.6401         2.12853 
        3.03164         17.4909         2.10218 
        3.04738         17.2868         2.07621 
         3.0631         17.1537         2.05068 
        3.07883         17.0128         2.02559 
        3.09456         16.8838         2.00093 
        3.11026         16.7263         1.97672 
        3.12596         16.5398         1.95291 
        3.14163         16.5043         1.92956 
        3.15734         16.2604         1.90653 
        3.17308         16.1389         1.88383 
        3.18879         16.0146         1.86157 
        3.20447         15.8593          1.8397 
         3.2202         15.7271         1.81812 
         3.2359         15.6192         1.79693 
        3.25157         15.5269         1.77612 
        3.26729         15.3215         1.75559 
        3.28304         15.2258         1.73534 
        3.29877         15.0722         1.71545 
        3.31446         14.9273         1.69591 
        3.33014         14.7885         1.67669 
        3.34585         14.6842         1.65775 
        3.36158         14.5902         1.63907 
        3.37727         14.4342         1.62075 
        3.39294          14.336         1.60272 
        3.40867         14.1895          1.5849 
        3.42439           14.09         1.56737 
        3.44008         14.0125         1.55014 
        3.45578         13.8857         1.53316 
        3.47153         13.7676          1.5164 
        3.48724         13.6598         1.49991 
        3.50292         13.4743         1.48372 
        3.51859         13.4198         1.46777 
        3.53431         13.3251         1.45202 
        3.55007          13.227         1.43645 
        3.56577         13.1029         1.42118 
        3.58146         13.0211         1.40614 
        3.59719         12.8534         1.39128 
        3.61292         12.7809         1.37665 
        3.62859         12.6397         1.36228 
        3.64429         12.5535         1.34809 
        3.66003         12.4411         1.33406 
        3.67578         12.3663         1.32024 
        3.69146         12.2611         1.30667 
        3.70712         12.1337         1.29332 
        3.72284         12.0575          1.2801 
        3.73853         11.9598          1.2671 
        3.75422         11.8879         1.25427 
        3.76993         11.7705         1.24161 
        3.78564         11.6489         1.22913 
        3.80137         11.5786          1.2168 
        3.81707         11.4664         1.20467 
        3.83279         11.3966          1.1927 
        3.84853         11.2875         1.18087 
        3.86424         11.1976         1.16923 
        3.87992          11.108         1.15776 
        3.89561         11.0325         1.14645 
        3.91134         10.9749         1.13527 
        3.92704         10.8439         1.12425 
        3.94273         10.7782         1.11339 
        3.95845         10.6983         1.10265 
        3.97418          10.597         1.09205 
        3.98988         10.5089         1.08161 
        4.00554         10.4349         1.07134 
        4.02125         10.3526         1.06117 
        4.03698         10.2687         1.05112 
        4.05268         10.2047         1.04122 
        4.06839         10.0814         1.03144 
         4.0841          10.051         1.02179 
        4.09983         9.95254         1.01226 
        4.11555         9.86619         1.00285 
        4.13124         9.80082        0.993586 
        4.14693         9.70677        0.984433 
        4.16266         9.64387        0.975376 
        4.17839         9.56697        0.966439 
        4.19408         9.50946        0.957635 
        4.20977         9.41985        0.948938 
        4.22551         9.35561        0.940329 
        4.24123         9.28857        0.931837 
        4.25691         9.19223        0.923474 
        4.27259         9.14141        0.915211 
        4.28831         9.06305        0.907034 
        4.30404         8.99789         0.89895 
        4.31974         8.91958        0.890983 
        4.33543         8.83285        0.883118 
        4.35116         8.77564         0.87533 
        4.36688         8.72218        0.867639 
        4.38255         8.64828        0.860071 
        4.39825         8.56016        0.852577 
        4.41398         8.53453        0.845158 
         4.4297          8.4578        0.837836 
        4.44541         8.38317        0.830603 
        4.46111         8.32322        0.823462 
        4.47683         8.25322          0.8164 
        4.49251         8.21262        0.809436 
        4.50819         8.14887        0.802556 
         4.5239         8.09017        0.795747 
        4.53962         8.01692        0.789008 
        4.55535         7.95497        0.782346 
        4.57106         7.89576         0.77577 
        4.58678          7.8344         0.76927 
         4.6025         7.78255        0.762843 
        4.61821         7.71372        0.756491 
        4.63391         7.66535         0.75022 
         4.6496         7.60288        0.744023 
        4.66532          7.5659        0.737888 
        4.68103         7.47359        0.731825 
        4.69673         7.43141        0.725837 
        4.71241         7.39459        0.719922 
        4.72811         7.30698        0.714064 
        4.74384          7.2652        0.708264 
        4.75955         7.20472        0.702538 
        4.77525         7.18196        0.696878 
        4.79096         7.10328        0.691275 
        4.80669          7.0652        0.685732 
         4.8224         7.01963        0.680256 
        4.83809         6.95233        0.674846 
        4.85379         6.88907        0.669492 
         4.8695         6.85045        0.664192 
        4.88521         6.80466        0.658953 
        4.90093         6.74673         0.65377 
        4.91663         6.70685        0.648647 
        4.93234         6.65034        0.643575 
        4.94807         6.61543        0.638554 
        4.96377         6.57177        0.633596 
        4.97943         6.51387        0.628702 
        4.99514         6.47017        0.623847 
        5.01086         6.42123         0.61904 
        5.02654         6.37502        0.614297 
        5.04227         6.32682         0.60959 
          5.058         6.29787         0.60493 
        5.07371         6.24026        0.600329 
        5.08942         6.19566        0.595775 
        5.10513         6.14994        0.591269 
        5.12084         6.12703        0.586807 
        5.13656         6.07832        0.582393 
        5.15225         6.03899        0.578031 
        5.16796         5.98695        0.573708 
        5.18369         5.94556        0.569426 
         5.1994         5.90289        0.565195 
        5.21509         5.87017        0.561012 
        5.23079         5.82996        0.556866 
        5.24649         5.77929        0.552766 
        5.26217         5.75129        0.548711 
        5.27788         5.69358         0.54469 
        5.29359         5.67373         0.54071 
        5.30933         5.63549        0.536764 
        5.32504         5.58861        0.532864 
        5.34073         5.55433        0.529008 
        5.35646         5.50392        0.525182 
        5.37218         5.48041        0.521394 
        5.38789         5.44414        0.517649 
        5.40357         5.39508        0.513946 
        5.41929         5.36548        0.510272 
        5.43502         5.33864        0.506633 
         5.4507         5.29262        0.503039 
        5.46639         5.24895        0.499479 
        5.48212         5.21273        0.495946 
        5.49786         5.18595        0.492442 
        5.51353         5.15212        0.488991 
        5.52921         5.12105        0.485569 
        5.54495         5.07806        0.482171 
        5.56066         5.05009        0.478808 
        5.57637         5.01703        0.475479 
        5.59207         4.98331        0.472185 
        5.60778         4.95214         0.46892 
        5.62346         4.91988        0.465692 
        5.63916         4.88905        0.462491 
        5.65487         4.84566        0.459318 
         5.6706         4.81405        0.456172 
        5.68633         4.79322        0.453055 
        5.70203         4.75708        0.449973 
        5.71773         4.73482        0.446921 
        5.73344         4.70098        0.443896 
        5.74916         4.66566        0.440896 
        5.76486           4.634        0.437928 
        5.78054          4.6057        0.434992 
        5.79626         4.57674        0.432076 
          5.812         4.54826        0.429183 
         5.8277         4.52146        0.426326 
        5.84339         4.49139        0.423494 
        5.85911         4.46373        0.420683 
        5.87484          4.4391        0.417899 
        5.89053         4.41816        0.415145 
        5.90623          4.3751        0.412415 
        5.92195         4.34837        0.409706 
        5.93767         4.33102        0.407022 
        5.95336         4.29889        0.404367 
        5.96905         4.26249        0.401736 
        5.98476         4.24176        0.399126 
        6.00048         4.21359        0.396538 
        6.01617         4.19463        0.393977 
        6.03185         4.16094        0.391442 
        6.04756         4.14894        0.388923 
        6.06331         4.10748        0.386421 
        6.07903         4.08722        0.383947 
        6.09473         4.06756        0.381496 
        6.11044         4.03373        0.379066 
        6.12616          4.0218        0.376656 
        6.14186         3.98376        0.374271 
        6.15755         3.96762        0.371906 
        6.17326         3.94432         0.36956 
        6.18898         3.91698        0.367234 
        6.20467         3.88826        0.364931 
        6.22036         3.87747        0.362649 
         6.2361         3.84153        0.360381 
         6.2518         3.82929        0.358135 
        6.26748         3.80143        0.355914 
        6.28319         3.78037        0.353706 
        6.29893          3.7502        0.351515 
        6.31463         3.72982        0.349346 
        6.33033         3.70832        0.347196 
        6.34604         3.67922        0.345063 
        6.36177         3.66145        0.342946 
        6.37747         3.63989        0.340851 
