# k  (h/Mpc)    Pcb(k)  (Mpc/h)^3    Pcb_linear(k) (Mpc/h)^3   ShotnoiseSubtracted = true
      0.0200456         14995.4           15255 
      0.0350414         11653.9         11348.4 
      0.0492313         8401.51         8548.27 
      0.0637834         6945.72         7297.04 
      0.0800726         5421.86         5726.09 
       0.096163          4307.2         4180.86 
       0.111083         3627.14         3479.54 
       0.126058         3037.59         3122.99 
       0.142273         2592.44         2570.84 
       0.158546         2142.43         2045.23 
        0.17375         1933.08         1797.59 
       0.188953         1813.15         1637.47 
       0.204907         1544.19         1411.37 
       0.220756         1392.03         1198.31 
        0.23588         1253.67         1076.57 
         0.2514         1131.73         986.202 
       0.267535         1095.92         876.616 
       0.283568          966.99         773.462 
       0.299022         927.822         703.605 
       0.314451         954.317         648.634 
       0.330372         828.459         589.745 
       0.346141         766.741         534.729 
       0.361624         736.643         491.888 
       0.377134         698.967         456.091 
       0.392932         675.784         420.952 
       0.408854         644.485         387.729 
       0.424564         627.457         359.749 
       0.440253         574.787         335.493 
       0.455999         551.438         312.776 
       0.471626         560.429         291.802 
        0.48727         530.757         273.033 
       0.502856         495.289         256.332 
       0.518488          493.36         240.865 
       0.534347         462.445         226.283 
       0.550082         446.212         213.087 
       0.565732         443.338         201.126 
       0.581496         430.797             190 
       0.597222         418.701         179.684 
       0.612804         409.776         170.228 
       0.628434         393.381         161.476 
       0.644267         379.038         153.251 
       0.660051         373.804         145.622 
       0.675724         369.075         138.563 
       0.691403           359.7         131.971 
       0.707174         346.513         125.776 
       0.722871         341.295         120.009 
        0.73838         338.081          114.67 
       0.754018         324.894         109.619 
       0.769845         323.209         104.822 
        0.78569         316.512         100.312 
       0.801365         308.066         96.1149 
       0.817031         302.582         92.1647 
       0.832809         298.654         88.4145 
       0.848511         291.116          84.893 
       0.864097           284.6         81.5902 
       0.879701         282.917         78.4625 
       0.895507         275.449          75.464 
       0.911279         268.413         72.6307 
        0.92691         266.363         69.9685 
       0.942635         264.717         67.4268 
       0.958396         257.517         65.0077 
       0.974128         253.602         62.7133 
       0.989692         245.088         60.5539 
        1.00528          244.49         58.4944 
        1.02113         240.871         56.4997 
        1.03692         235.597         54.6067 
        1.05264         232.295         52.8104 
        1.06832          231.66         51.0989 
        1.08405         225.316         49.4598 
        1.09979         224.081         47.8926 
        1.11537         219.198         46.4098 
        1.13105         215.772         44.9818 
        1.14679         213.749         43.6092 
        1.16256         210.821         42.2921 
        1.17828          208.37         41.0344 
        1.19395         202.747         39.8328 
         1.2097         202.373         38.6739 
        1.22537          200.86         37.5673 
          1.241         196.269         36.5079 
        1.25666         193.277         35.4873 
        1.27241         189.247         34.5015 
        1.28819         187.682         33.5519 
        1.30392         184.605         32.6413 
        1.31957         180.939         31.7689 
        1.33529         179.103         30.9257 
        1.35108         176.827         30.1102 
        1.36674         174.298         29.3302 
         1.3824         172.967          28.579 
        1.39811          169.14         27.8519 
        1.41389         167.217         27.1476 
        1.42964         164.762         26.4692 
        1.44531         163.047         25.8176 
        1.46101         159.912         25.1868 
        1.47667         159.386         24.5792 
        1.49229         156.757         23.9935 
        1.50793         154.141         23.4265 
        1.52367         152.673         22.8744 
        1.53953         149.783         22.3366 
        1.55526         149.318         21.8206 
        1.57092         147.175         21.3232 
        1.58662         144.225         20.8404 
        1.60235         142.522         20.3717 
        1.61809         140.832         19.9174 
        1.63369         139.132         19.4812 
        1.64941         138.185          19.055 
        1.66519         135.731         18.6402 
        1.68085          133.86         18.2409 
        1.69652         132.573         17.8532 
        1.71228         131.499         17.4748 
        1.72806         129.429         17.1072 
        1.74368         127.566          16.754 
        1.75933         126.516         16.4101 
        1.77505         124.119         16.0744 
        1.79081         123.025         15.7476 
         1.8065         120.871         15.4314 
        1.82218         119.558         15.1243 
        1.83797         119.278         14.8235 
        1.85367         116.698         14.5326 
        1.86928         116.411         14.2514 
        1.88497         114.514         13.9762 
        1.90073         113.528         13.7073 
        1.91647         111.551         13.4458 
        1.93218         110.214         13.1918 
        1.94787         108.812         12.9447 
        1.96363         107.907         12.7031 
        1.97935         106.778         12.4682 
        1.99499         105.679         12.2407 
        2.01064          103.54         12.0186 
         2.0264         102.732         11.8006 
        2.04216         100.946         11.5882 
        2.05781         100.326         11.3825 
        2.07353          98.893          11.181 
        2.08928         97.5719         10.9841 
        2.10499         96.4632         10.7924 
        2.12065         96.1355          10.606 
        2.13633         94.8094         10.4238 
        2.15211         93.3737         10.2448 
        2.16785         92.0574         10.0706 
        2.18349         90.8572         9.90154 
        2.19916         90.1223         9.73605 
        2.21489         88.8144         9.57383 
        2.23063         87.9404         9.41524 
         2.2463           87.29         9.26099 
        2.26194         86.0487         9.11062 
        2.27765         85.1146         8.96285 
        2.29341         84.2385           8.818 
        2.30914         83.1767          8.6767 
        2.32486         81.3934          8.5386 
        2.34061         81.1109          8.4033 
        2.35635         80.1546         8.27109 
        2.37203         79.1128         8.14221 
        2.38768         78.2801         8.01638 
        2.40339          77.327         7.89277 
        2.41914         76.4374         7.77151 
        2.43483         75.8611         7.65325 
         2.4505         74.6677         7.53767 
        2.46622         74.1664         7.42411 
        2.48195         73.1072         7.31291 
        2.49759         72.2605          7.2046 
        2.51328         71.5499         7.09823 
        2.52906         70.5828         6.99335 
        2.54479         69.8633           6.891 
        2.56049         69.1113         6.79092 
        2.57618         68.1002         6.69293 
        2.59189         67.7662         6.59675 
        2.60758         66.7761         6.50263 
        2.62325         66.1691         6.41048 
        2.63898         65.2771         6.31981 
        2.65468          64.713          6.2311 
        2.67044         64.0911         6.14374 
        2.68618         63.4118         6.05826 
        2.70184         62.4649         5.97477 
        2.71755         61.8816         5.89266 
        2.73329          61.406         5.81198 
        2.74897         60.9204          5.7331 
        2.76462         60.2441         5.65586 
        2.78034         59.4666         5.57974 
        2.79607         58.5174         5.50496 
        2.81179         58.0141         5.43165 
        2.82749         57.5261         5.35977 
        2.84321         57.1655         5.28912 
        2.85893         56.3746         5.21977 
        2.87462          55.596         5.15181 
        2.89033         55.0486           5.085 
        2.90605         54.4216         5.01933 
        2.92176         53.8855         4.95486 
        2.93747          53.272         4.89157 
        2.95318         52.9586         4.82938 
        2.96891         52.2441         4.76826 
        2.98456         51.7587         4.70848 
        3.00023         51.1105         4.64964 
        3.01596         50.7054         4.59163 
        3.03164         50.1421         4.53479 
        3.04738         49.6539         4.47876 
         3.0631         49.1905          4.4237 
        3.07883         48.6944         4.36957 
        3.09456         48.0701         4.31636 
        3.11026         47.4715         4.26413 
        3.12596         47.0492         4.21278 
        3.14163         46.7443          4.1624 
        3.15734         46.2242         4.11274 
        3.17308         45.9442         4.06377 
        3.18879         45.3841         4.01574 
        3.20447         44.8225         3.96857 
         3.2202         44.4066         3.92201 
         3.2359         44.0461         3.87629 
        3.25157         43.4894         3.83142 
        3.26729         43.1692         3.78712 
        3.28304         42.6612         3.74345 
        3.29877         42.1475         3.70053 
        3.31446         41.8906         3.65838 
        3.33014         41.4055         3.61693 
        3.34585         40.9253         3.57607 
        3.36158         40.5999         3.53578 
        3.37727         40.1531         3.49624 
        3.39294         39.7405         3.45736 
        3.40867         39.4837         3.41892 
        3.42439         39.0224          3.3811 
        3.44008         38.6956         3.34393 
        3.45578         38.3153          3.3073 
        3.47153          38.076         3.27114 
        3.48724         37.6006         3.23559 
        3.50292         37.3357         3.20065 
        3.51859         36.9773         3.16625 
        3.53431         36.5782         3.13226 
        3.55007         36.1076         3.09869 
        3.56577         35.9006         3.06574 
        3.58146         35.5774         3.03329 
        3.59719         35.1689         3.00124 
        3.61292         34.9792         2.96967 
        3.62859         34.4866         2.93868 
        3.64429         34.2486         2.90807 
        3.66003         33.9696         2.87781 
        3.67578         33.6371           2.848 
        3.69146         33.4548         2.81872 
        3.70712         32.9753         2.78992 
        3.72284          32.783         2.76141 
        3.73853         32.5241         2.73335 
        3.75422         32.2039         2.70568 
        3.76993         31.8383         2.67837 
        3.78564         31.5722         2.65145 
        3.80137         31.3262         2.62486 
        3.81707         30.9843          2.5987 
        3.83279         30.6726         2.57287 
        3.84853         30.4643         2.54735 
        3.86424         29.9968         2.52224 
        3.87992         29.8612          2.4975 
        3.89561         29.6659          2.4731 
        3.91134         29.3971         2.44897 
        3.92704         29.0145          2.4252 
        3.94273         28.7646         2.40177 
        3.95845          28.606         2.37861 
        3.97418         28.2846         2.35576 
        3.98988         28.0302         2.33323 
        4.00554         27.7117         2.31107 
        4.02125         27.5707         2.28913 
        4.03698         27.3601         2.26745 
        4.05268         27.0728         2.24609 
        4.06839         26.8248           2.225 
         4.0841         26.6699         2.20419 
        4.09983          26.305         2.18362 
        4.11555         26.1399         2.16333 
        4.13124         26.0136         2.14334 
        4.14693         25.7505          2.1236 
        4.16266         25.4628         2.10406 
        4.17839         25.3793         2.08478 
        4.19408         25.0249         2.06579 
        4.20977          24.879         2.04703 
        4.22551         24.6756         2.02846 
        4.24123           24.46         2.01014 
        4.25691         24.2337          1.9921 
        4.27259         24.0148         1.97428 
        4.28831         23.8122         1.95664 
        4.30404         23.5803          1.9392 
        4.31974         23.3587         1.92201 
        4.33543          23.247         1.90505 
        4.35116         23.0325         1.88824 
        4.36688         22.8678         1.87165 
        4.38255         22.6495         1.85533 
        4.39825         22.4747         1.83916 
        4.41398         22.2513         1.82316 
         4.4297         22.0969         1.80736 
        4.44541         21.8511         1.79176 
        4.46111         21.6704         1.77636 
        4.47683          21.515         1.76112 
        4.49251         21.4131          1.7461 
        4.50819         21.2166         1.73126 
         4.5239         21.0134         1.71657 
        4.53962         20.8857         1.70203 
        4.55535         20.7158         1.68766 
        4.57106         20.5162         1.67348 
        4.58678          20.343         1.65945 
         4.6025         20.1487         1.64559 
        4.61821         20.0541         1.63189 
        4.63391          19.875         1.61836 
         4.6496         19.6885         1.60499 
        4.66532         19.5799         1.59176 
        4.68103         19.3859         1.57868 
        4.69673         19.2246         1.56576 
        4.71241          19.116           1.553 
        4.72811          18.937         1.54036 
        4.74384         18.7657         1.52785 
        4.75955         18.6603          1.5155 
        4.77525          18.482         1.50329 
        4.79096         18.3243         1.49121 
        4.80669         18.1827         1.47925 
         4.8224         18.0535         1.46743 
        4.83809         17.9033         1.45576 
        4.85379         17.7797         1.44421 
         4.8695         17.6359         1.43278 
        4.88521          17.487         1.42148 
        4.90093          17.355          1.4103 
        4.91663         17.2207         1.39925 
        4.93234         17.0471         1.38831 
        4.94807         16.9708         1.37748 
        4.96377         16.8468         1.36678 
        4.97943         16.6992         1.35622 
        4.99514         16.5988         1.34575 
        5.01086         16.4788         1.33538 
        5.02654         16.3181         1.32515 
        5.04227         16.2002           1.315 
          5.058         16.0797         1.30494 
        5.07371         15.9549         1.29502 
        5.08942         15.8454         1.28519 
        5.10513           15.74         1.27547 
        5.12084         15.5874         1.26585 
        5.13656         15.4803         1.25633 
        5.15225         15.3495         1.24692 
        5.16796          15.236         1.23759 
        5.18369         15.1262         1.22835 
         5.1994         14.9943         1.21923 
        5.21509           14.93          1.2102 
        5.23079         14.7964         1.20126 
        5.24649         14.7184         1.19242 
        5.26217         14.5635         1.18367 
        5.27788         14.4639           1.175 
        5.29359         14.3621         1.16641 
        5.30933         14.2877          1.1579 
        5.32504          14.143         1.14948 
        5.34073         14.0651         1.14116 
        5.35646         13.9537         1.13291 
        5.37218         13.8521         1.12474 
        5.38789         13.7285         1.11666 
        5.40357         13.6526         1.10868 
        5.41929         13.5585         1.10075 
        5.43502         13.4571          1.0929 
         5.4507         13.3467         1.08514 
        5.46639         13.2334         1.07747 
        5.48212         13.1431         1.06984 
        5.49786         13.0951         1.06229 
        5.51353         12.9809         1.05484 
        5.52921         12.9016         1.04746 
        5.54495            12.8         1.04013 
        5.56066         12.7095         1.03288 
        5.57637         12.6275         1.02569 
        5.59207         12.5145         1.01859 
        5.60778         12.4027         1.01155 
        5.62346          12.331         1.00458 
        5.63916         12.2416        0.997676 
        5.65487         12.1685        0.990832 
         5.6706         12.0742        0.984046 
        5.68633         11.9903        0.977321 
        5.70203         11.9209        0.970673 
        5.71773         11.8252        0.964089 
        5.73344         11.7657        0.957563 
        5.74916         11.6649        0.951092 
        5.76486          11.608         0.94469 
        5.78054         11.5165        0.938357 
        5.79626         11.4301        0.932065 
          5.812         11.3389        0.925825 
         5.8277         11.2648        0.919661 
        5.84339         11.1619        0.913553 
        5.85911          11.109         0.90749 
        5.87484         11.0333        0.901483 
        5.89053         10.9506        0.895543 
        5.90623         10.8977        0.889654 
        5.92195         10.8134        0.883809 
        5.93767         10.7218        0.878019 
        5.95336         10.6429        0.872292 
        5.96905         10.5961        0.866618 
        5.98476         10.5281        0.860987 
        6.00048         10.4394        0.855405 
        6.01617          10.356         0.84988 
        6.03185         10.3083        0.844411 
        6.04756         10.2371        0.838977 
        6.06331         10.1851         0.83358 
        6.07903         10.0939        0.828242 
        6.09473         10.0249        0.822956 
        6.11044         9.96544        0.817713 
        6.12616         9.91711        0.812516 
        6.14186         9.82871        0.807369 
        6.15755         9.78143        0.802268 
        6.17326         9.70268        0.797208 
        6.18898         9.64833        0.792189 
        6.20467         9.57385        0.787223 
        6.22036         9.51416          0.7823 
         6.2361         9.45063        0.777406 
         6.2518         9.39508        0.772562 
        6.26748         9.33236        0.767771 
        6.28319         9.29161        0.763007 
        6.29893         9.21731         0.75828 
        6.31463         9.15806        0.753602 
        6.33033         9.07277        0.748965 
        6.34604         9.03265        0.744363 
        6.36177         8.98424        0.739797 
        6.37747         8.91111        0.735278 
