# k  (h/Mpc)    Pcb(k)  (Mpc/h)^3    Pcb_linear(k) (Mpc/h)^3   ShotnoiseSubtracted = true
      0.0200456         1063.05         1077.98 
      0.0350414         811.373         801.925 
      0.0492313         605.481         604.054 
      0.0637834         509.319         515.637 
      0.0800726         399.945         404.628 
       0.096163         300.173         295.436 
       0.111083         250.518         245.878 
       0.126058         218.857         220.683 
       0.142273         180.662         181.666 
       0.158546         145.901         144.524 
        0.17375         129.109         127.025 
       0.188953         116.684          115.71 
       0.204907         98.4563         99.7329 
       0.220756         85.9004         84.6773 
        0.23588         76.9777         76.0743 
         0.2514         70.4006         69.6888 
       0.267535          63.543         61.9451 
       0.283568         55.9683         54.6558 
       0.299022         51.2902         49.7194 
       0.314451         48.2289          45.835 
       0.330372         43.2611         41.6737 
       0.346141         39.4103          37.786 
       0.361624         36.2323         34.7587 
       0.377134         33.3865         32.2291 
       0.392932         31.9993         29.7461 
       0.408854         28.9526         27.3984 
       0.424564         27.6215         25.4212 
       0.440253         25.3625         23.7072 
       0.455999         23.2568         22.1019 
       0.471626         21.8761         20.6198 
        0.48727         21.1149         19.2936 
       0.502856         19.8202         18.1134 
       0.518488         18.3524         17.0204 
       0.534347         17.2075           15.99 
       0.550082         16.5396         15.0575 
       0.565732         15.8555         14.2123 
       0.581496         14.9464         13.4261 
       0.597222         14.0892         12.6972 
       0.612804         13.3355          12.029 
       0.628434         12.9269         11.4105 
       0.644267         12.2916         10.8293 
       0.660051         11.6701         10.2902 
       0.675724         11.0542         9.79137 
       0.691403         10.7021         9.32557 
       0.707174         10.2113         8.88784 
       0.722871         9.96224          8.4803 
        0.73838         9.33077         8.10302 
       0.754018         8.92943         7.74613 
       0.769845         8.52861         7.40713 
        0.78569          8.3171          7.0884 
       0.801365         7.96757         6.79185 
       0.817031         7.71714         6.51271 
       0.832809         7.34165         6.24771 
       0.848511         7.15107         5.99886 
       0.864097         6.89837         5.76548 
       0.879701         6.72811         5.54446 
       0.895507         6.45584         5.33258 
       0.911279         6.22487         5.13237 
        0.92691         6.05665         4.94424 
       0.942635         5.81941         4.76464 
       0.958396         5.63082         4.59369 
       0.974128         5.49571         4.43156 
       0.989692         5.25625         4.27897 
        1.00528         5.16045         4.13344 
        1.02113           5.013         3.99249 
        1.03692         4.88086         3.85872 
        1.05264         4.69294         3.73179 
        1.06832         4.58341         3.61085 
        1.08405          4.4568         3.49502 
        1.09979         4.35404         3.38427 
        1.11537         4.22804          3.2795 
        1.13105         4.09612         3.17859 
        1.14679         3.99614          3.0816 
        1.16256         3.87179         2.98852 
        1.17828           3.827         2.89965 
        1.19395         3.69005         2.81474 
         1.2097         3.59129         2.73285 
        1.22537          3.4832         2.65465 
          1.241         3.41614         2.57979 
        1.25666         3.37188         2.50767 
        1.27241         3.29477         2.43801 
        1.28819         3.16835         2.37091 
        1.30392         3.09875         2.30656 
        1.31957         3.05803         2.24492 
        1.33529         2.94597         2.18533 
        1.35108         2.89487          2.1277 
        1.36674         2.82191         2.07259 
         1.3824         2.78922          2.0195 
        1.39811         2.71238         1.96812 
        1.41389         2.65129         1.91835 
        1.42964         2.59934         1.87042 
        1.44531         2.55842         1.82437 
        1.46101         2.49467         1.77979 
        1.47667         2.45339         1.73686 
        1.49229         2.37392         1.69548 
        1.50793         2.32055         1.65541 
        1.52367         2.28054         1.61639 
        1.53953         2.22781         1.57839 
        1.55526         2.22678         1.54193 
        1.57092         2.17319         1.50678 
        1.58662         2.15032         1.47266 
        1.60235         2.07675         1.43954 
        1.61809          2.0483         1.40744 
        1.63369         2.00209         1.37661 
        1.64941         1.97224          1.3465 
        1.66519          1.9454         1.31719 
        1.68085         1.89802         1.28897 
        1.69652         1.86714         1.26158 
        1.71228         1.82936         1.23484 
        1.72806         1.80348         1.20886 
        1.74368         1.77373          1.1839 
        1.75933         1.74753          1.1596 
        1.77505         1.71774         1.13588 
        1.79081         1.67724         1.11279 
         1.8065         1.66003         1.09044 
        1.82218         1.62305         1.06874 
        1.83797         1.59607         1.04748 
        1.85367         1.57406         1.02693 
        1.86928         1.55019         1.00706 
        1.88497         1.51947        0.987611 
        1.90073         1.50845        0.968611 
        1.91647         1.47044        0.950133 
        1.93218         1.45324        0.932181 
        1.94787         1.43018        0.914725 
        1.96363         1.41309        0.897652 
        1.97935         1.38742        0.881054 
        1.99499         1.36759        0.864975 
        2.01064         1.34904        0.849278 
         2.0264          1.3218        0.833876 
        2.04216         1.31023        0.818868 
        2.05781         1.28597        0.804328 
        2.07353         1.27379        0.790094 
        2.08928          1.2511        0.776176 
        2.10499         1.23303        0.762634 
        2.12065         1.21481         0.74946 
        2.13633         1.20044        0.736589 
        2.15211         1.17735         0.72394 
        2.16785         1.16709        0.711627 
        2.18349         1.14797        0.699681 
        2.19916         1.13612        0.687987 
        2.21489         1.12049        0.676524 
        2.23063         1.09888        0.665317 
         2.2463         1.08658        0.654417 
        2.26194         1.07545        0.643791 
        2.27765         1.05851        0.633349 
        2.29341         1.04578        0.623114 
        2.30914         1.02684        0.613129 
        2.32486         1.01918         0.60337 
        2.34061         1.00515         0.59381 
        2.35635        0.992168        0.584467 
        2.37203        0.979619         0.57536 
        2.38768        0.968241        0.566468 
        2.40339        0.959738        0.557734 
        2.41914        0.946566        0.549165 
        2.43483        0.933758        0.540808 
         2.4505        0.922445        0.532641 
        2.46622        0.911374        0.524617 
        2.48195         0.89852        0.516759 
        2.49759        0.890575        0.509105 
        2.51328        0.877367        0.501588 
        2.52906        0.867943        0.494177 
        2.54479        0.856082        0.486945 
        2.56049        0.848076        0.479872 
        2.57618        0.838219        0.472948 
        2.59189        0.828593        0.466152 
        2.60758        0.821015        0.459501 
        2.62325        0.809453        0.452989 
        2.63898        0.803631        0.446582 
        2.65468        0.790017        0.440314 
        2.67044        0.784186         0.43414 
        2.68618        0.777999          0.4281 
        2.70184        0.764901          0.4222 
        2.71755        0.758064        0.416398 
        2.73329         0.75296        0.410697 
        2.74897        0.741743        0.405123 
        2.76462        0.733506        0.399665 
        2.78034         0.72628        0.394286 
        2.79607        0.720249        0.389002 
        2.81179        0.710138        0.383821 
        2.82749        0.704621        0.378742 
        2.84321        0.696049        0.373749 
        2.85893        0.687721        0.368849 
        2.87462        0.681116        0.364046 
        2.89033        0.678763        0.359326 
        2.90605        0.670795        0.354685 
        2.92176        0.664216         0.35013 
        2.93747        0.656687        0.345657 
        2.95318        0.650013        0.341263 
        2.96891        0.645943        0.336944 
        2.98456        0.635683        0.332719 
        3.00023        0.631322        0.328561 
        3.01596         0.62604        0.324462 
        3.03164        0.620192        0.320446 
        3.04738        0.613746        0.316486 
         3.0631         0.60745        0.312595 
        3.07883        0.602638         0.30877 
        3.09456        0.599004        0.305011 
        3.11026        0.591539         0.30132 
        3.12596        0.585705        0.297691 
        3.14163        0.583437        0.294131 
        3.15734        0.577234        0.290622 
        3.17308        0.571713        0.287162 
        3.18879        0.568065        0.283768 
        3.20447        0.561139        0.280434 
         3.2202        0.555457        0.277144 
         3.2359        0.551819        0.273914 
        3.25157        0.543482        0.270743 
        3.26729        0.543747        0.267613 
        3.28304        0.538027        0.264527 
        3.29877        0.533223        0.261494 
        3.31446        0.531037        0.258515 
        3.33014        0.524157        0.255586 
        3.34585        0.519951        0.252699 
        3.36158        0.516633        0.249852 
        3.37727        0.513301        0.247058 
        3.39294        0.509549         0.24431 
        3.40867        0.503553        0.241594 
        3.42439        0.500636        0.238922 
        3.44008        0.496468        0.236295 
        3.45578        0.491996        0.233707 
        3.47153        0.489594        0.231151 
        3.48724        0.485799        0.228639 
        3.50292        0.481188         0.22617 
        3.51859        0.478708         0.22374 
        3.53431        0.474752        0.221338 
        3.55007        0.471128        0.218965 
        3.56577        0.467237        0.216637 
        3.58146        0.464482        0.214344 
        3.59719        0.460629        0.212079 
        3.61292        0.457307        0.209849 
        3.62859        0.454362        0.207659 
        3.64429          0.4508        0.205496 
        3.66003        0.447044        0.203358 
        3.67578        0.444971        0.201251 
        3.69146        0.440455        0.199182 
        3.70712        0.439389        0.197146 
        3.72284         0.43697        0.195132 
        3.73853        0.433049        0.193149 
        3.75422        0.429698        0.191194 
        3.76993        0.426351        0.189264 
        3.78564        0.422656        0.187362 
        3.80137        0.420563        0.185483 
        3.81707        0.418569        0.183634 
        3.83279        0.415321        0.181809 
        3.84853        0.411803        0.180006 
        3.86424        0.409869        0.178231 
        3.87992        0.406679        0.176483 
        3.89561        0.404198        0.174759 
        3.91134        0.401017        0.173054 
        3.92704        0.398135        0.171374 
        3.94273        0.396539        0.169719 
        3.95845         0.39385        0.168082 
        3.97418        0.391954        0.166467 
        3.98988         0.38814        0.164875 
        4.00554         0.38436        0.163309 
        4.02125        0.381567        0.161759 
        4.03698        0.378125        0.160227 
        4.05268        0.374007        0.158718 
        4.06839         0.37173        0.157227 
         4.0841        0.367588        0.155757 
        4.09983        0.364966        0.154303 
        4.11555        0.361446        0.152869 
        4.13124        0.358828        0.151457 
        4.14693        0.355478        0.150062 
        4.16266        0.351798        0.148681 
        4.17839        0.348892        0.147319 
        4.19408        0.346337        0.145977 
        4.20977        0.344193        0.144651 
        4.22551        0.341178        0.143339 
        4.24123        0.337854        0.142044 
        4.25691        0.336442        0.140769 
        4.27259        0.333418         0.13951 
        4.28831        0.331417        0.138263 
        4.30404        0.328483        0.137031 
        4.31974        0.326536        0.135817 
        4.33543        0.324325        0.134618 
        4.35116        0.322604        0.133431 
        4.36688        0.320258        0.132258 
        4.38255        0.317305        0.131105 
        4.39825        0.316274        0.129962 
        4.41398        0.314099        0.128831 
         4.4297        0.312736        0.127715 
        4.44541          0.3103        0.126613 
        4.46111        0.309496        0.125524 
        4.47683        0.308195        0.124448 
        4.49251        0.305693        0.123386 
        4.50819        0.304729        0.122337 
         4.5239        0.303136        0.121299 
        4.53962        0.301127        0.120272 
        4.55535        0.300163        0.119257 
        4.57106        0.299341        0.118254 
        4.58678        0.297041        0.117263 
         4.6025        0.296423        0.116284 
        4.61821        0.295752        0.115315 
        4.63391        0.294458         0.11436 
         4.6496         0.29313        0.113415 
        4.66532        0.292341         0.11248 
        4.68103        0.290896        0.111556 
        4.69673        0.290552        0.110643 
        4.71241        0.289626        0.109741 
        4.72811        0.289729        0.108848 
        4.74384        0.288611        0.107964 
        4.75955        0.287301        0.107091 
        4.77525        0.287043        0.106228 
        4.79096        0.286503        0.105374 
        4.80669        0.285824        0.104529 
         4.8224        0.285469        0.103695 
        4.83809        0.285087         0.10287 
        4.85379        0.284312        0.102054 
         4.8695        0.285149        0.101246 
        4.88521        0.284027        0.100447 
        4.90093        0.284318       0.0996572 
        4.91663        0.283312       0.0988763 
        4.93234        0.283201       0.0981031 
        4.94807        0.283331       0.0973377 
        4.96377        0.283919        0.096582 
        4.97943        0.283577       0.0958359 
        4.99514        0.282321       0.0950959 
        5.01086        0.283886       0.0943632 
        5.02654        0.283604       0.0936402 
        5.04227        0.283753       0.0929227 
          5.058        0.284755       0.0922124 
        5.07371        0.284011        0.091511 
        5.08942        0.285138       0.0908168 
        5.10513        0.285187       0.0901299 
        5.12084        0.285305       0.0894498 
        5.13656        0.285353       0.0887769 
        5.15225        0.286534       0.0881121 
        5.16796        0.287097       0.0874531 
        5.18369        0.287629       0.0868003 
         5.1994        0.288554       0.0861554 
        5.21509        0.288515       0.0855177 
        5.23079        0.289338       0.0848858 
        5.24649        0.289689       0.0842608 
        5.26217        0.291065       0.0836425 
        5.27788        0.291592       0.0830297 
        5.29359        0.292584       0.0824229 
        5.30933        0.293445       0.0818214 
        5.32504        0.294176        0.081227 
        5.34073        0.296001       0.0806391 
        5.35646         0.29666        0.080056 
        5.37218        0.297652       0.0794785 
        5.38789        0.297778       0.0789077 
        5.40357        0.299524       0.0783433 
        5.41929         0.29995       0.0777831 
        5.43502        0.302209       0.0772284 
         5.4507        0.302881       0.0766805 
        5.46639        0.304353       0.0761379 
        5.48212        0.305119       0.0755993 
        5.49786        0.306283       0.0750653 
        5.51353        0.309146       0.0745392 
        5.52921        0.309113       0.0740176 
        5.54495        0.310961       0.0734995 
        5.56066        0.312415        0.072987 
        5.57637        0.313572       0.0724795 
        5.59207        0.315232       0.0719773 
        5.60778        0.316594       0.0714797 
        5.62346        0.318898       0.0709876 
        5.63916         0.32004       0.0704996 
        5.65487        0.321691       0.0700161 
         5.6706        0.321646       0.0695365 
        5.68633        0.325191       0.0690613 
        5.70203        0.327989       0.0685915 
        5.71773        0.327864       0.0681263 
        5.73344        0.330441       0.0676651 
        5.74916        0.332123       0.0672078 
        5.76486        0.334447       0.0667554 
        5.78054        0.334944       0.0663079 
        5.79626        0.336499       0.0658633 
          5.812        0.340003       0.0654224 
         5.8277        0.341108       0.0649868 
        5.84339        0.342573       0.0645552 
        5.85911        0.345662       0.0641268 
        5.87484        0.346583       0.0637023 
        5.89053        0.349251       0.0632825 
        5.90623        0.349761       0.0628664 
        5.92195        0.352233       0.0624533 
        5.93767        0.353388       0.0620442 
        5.95336        0.355844       0.0616395 
        5.96905        0.358232       0.0612386 
        5.98476        0.360636       0.0608407 
        6.00048        0.361762       0.0604462 
        6.01617        0.364929       0.0600558 
        6.03185        0.365608       0.0596693 
        6.04756         0.36691       0.0592854 
        6.06331        0.369691        0.058904 
        6.07903        0.372689       0.0585268 
        6.09473        0.373988       0.0581533 
        6.11044        0.375203       0.0577827 
        6.12616         0.37837       0.0574155 
        6.14186        0.379965       0.0570518 
        6.15755        0.383093       0.0566914 
        6.17326          0.3844       0.0563338 
        6.18898        0.385183       0.0559791 
        6.20467        0.385806       0.0556282 
        6.22036        0.391528       0.0552803 
         6.2361        0.390309       0.0549345 
         6.2518         0.39398       0.0545922 
        6.26748         0.39509       0.0542537 
        6.28319        0.398987        0.053917 
        6.29893        0.399956        0.053583 
        6.31463        0.401652       0.0532524 
        6.33033        0.403822       0.0529247 
        6.34604        0.406587       0.0525996 
        6.36177         0.40651       0.0522769 
        6.37747        0.408841       0.0519576 
