# k  (h/Mpc)    Pcb(k)  (Mpc/h)^3    Pcb_linear(k) (Mpc/h)^3   ShotnoiseSubtracted = true
      0.0200456         8463.13         8592.86 
      0.0350414         6379.54         6231.15 
      0.0492313         4473.17         4497.97 
      0.0637834         3672.58         3789.11 
      0.0800726         2939.82         3057.42 
       0.096163         2271.31         2205.52 
       0.111083         1829.82         1745.06 
       0.126058         1547.37         1564.22 
       0.142273         1343.34          1347.1 
       0.158546         1098.75         1061.36 
        0.17375         949.909         886.335 
       0.188953         875.377          807.42 
       0.204907         752.154         724.856 
       0.220756         673.172         614.617 
        0.23588         594.086         530.948 
         0.2514         532.942         483.002 
       0.267535          515.24         441.553 
       0.283568         450.125         391.181 
       0.299022         425.863          347.45 
       0.314451         421.768         317.381 
       0.330372         364.652          292.89 
       0.346141         338.289         267.133 
       0.361624         321.192         242.744 
       0.377134         296.463         223.227 
       0.392932         289.117         207.176 
       0.408854         273.973         191.726 
       0.424564         262.925         176.978 
       0.440253         237.472         164.107 
       0.455999          225.26         153.155 
       0.471626           222.1         143.221 
        0.48727         212.767         133.764 
       0.502856         194.307         125.168 
       0.518488         193.489         117.523 
       0.534347         180.397          110.49 
       0.550082         176.303         103.978 
       0.565732         173.723         97.9665 
       0.581496         161.111         92.4478 
       0.597222         157.614         87.4121 
       0.612804         152.669         82.7755 
       0.628434         148.214         78.4418 
       0.644267         140.931         74.3701 
       0.660051         137.028         70.6209 
       0.675724          135.26         67.1624 
       0.691403         131.971         63.9335 
       0.707174         127.459         60.8991 
       0.722871         125.218         58.0742 
        0.73838         122.606         55.4594 
       0.754018         115.105         52.9864 
       0.769845         114.731          50.638 
        0.78569         111.622         48.4307 
       0.801365         108.157         46.3778 
       0.817031         104.765         44.4466 
       0.832809         103.007         42.6144 
       0.848511         100.625         40.8953 
       0.864097         98.9368         39.2841 
       0.879701          97.253         37.7594 
       0.895507         93.6577         36.2987 
       0.911279         92.1769         34.9193 
        0.92691         89.6522          33.624 
       0.942635         87.7284         32.3881 
       0.958396         87.2652         31.2125 
       0.974128         85.2425          30.098 
       0.989692         83.4015         29.0497 
        1.00528         81.8488         28.0503 
        1.02113         79.8376         27.0828 
        1.03692         79.7239         26.1651 
        1.05264         78.2822         25.2945 
        1.06832         75.6906         24.4654 
        1.08405         74.9988         23.6716 
        1.09979         74.3933         22.9129 
        1.11537         72.3597         22.1954 
        1.13105         70.9823         21.5047 
        1.14679         70.0634          20.841 
        1.16256         68.7824         20.2043 
        1.17828           68.12         19.5966 
        1.19395         66.2326         19.0162 
         1.2097         66.4189         18.4566 
        1.22537         64.7361         17.9225 
          1.241         64.2813         17.4114 
        1.25666         62.2449         16.9191 
        1.27241         62.1533         16.4438 
        1.28819         61.3327         15.9861 
        1.30392         60.1196         15.5474 
        1.31957         59.7881         15.1273 
        1.33529         58.7921         14.7213 
        1.35108         57.9652         14.3288 
        1.36674         57.0931         13.9535 
         1.3824         56.2734         13.5921 
        1.39811         55.3292         13.2425 
        1.41389         54.4885          12.904 
        1.42964         54.0456          12.578 
        1.44531         53.1168          12.265 
        1.46101         52.6789          11.962 
        1.47667         51.8786         11.6703 
        1.49229         51.1493         11.3892 
        1.50793         50.5943         11.1172 
        1.52367         50.0201         10.8523 
        1.53953         49.4008         10.5944 
        1.55526         48.6324          10.347 
        1.57092         48.2492         10.1086 
        1.58662         47.5406         9.87727 
        1.60235         46.9359         9.65276 
        1.61809         46.2249         9.43519 
        1.63369         45.6439         9.22631 
        1.64941          45.201         9.02233 
        1.66519         44.3801         8.82383 
        1.68085         44.0334         8.63277 
        1.69652         43.2221         8.44736 
        1.71228         43.0816          8.2664 
        1.72806          42.375         8.09065 
        1.74368         41.8308         7.92181 
        1.75933         41.5933          7.7575 
        1.77505         41.1946         7.59713 
        1.79081         40.5983         7.44104 
         1.8065         39.9647         7.29005 
        1.82218         39.2609         7.14342 
        1.83797         39.0206         6.99985 
        1.85367         38.5549         6.86106 
        1.86928         38.4992          6.7269 
        1.88497         37.6018         6.59562 
        1.90073         37.3251         6.46739 
        1.91647          37.133         6.34272 
        1.93218         36.9109         6.22163 
        1.94787         36.2821          6.1039 
        1.96363         35.6476         5.98879 
        1.97935         35.4817          5.8769 
        1.99499         35.0853         5.76853 
        2.01064         34.5246         5.66275 
         2.0264         34.2738         5.55899 
        2.04216         34.0061          5.4579 
        2.05781         33.5579         5.35999 
        2.07353          33.141         5.26415 
        2.08928         32.9439         5.17046 
        2.10499         32.6284         5.07932 
        2.12065         32.1651         4.99067 
        2.13633         31.9806         4.90408 
        2.15211         31.3652           4.819 
        2.16785         31.0885         4.73619 
        2.18349         30.7835         4.65587 
        2.19916         30.4675         4.57725 
        2.21489         30.2063         4.50021 
        2.23063         29.9651          4.4249 
         2.2463         29.6916         4.35166 
        2.26194         29.2352         4.28028 
        2.27765         28.9687         4.21015 
        2.29341         28.6425         4.14142 
        2.30914         28.3637         4.07438 
        2.32486          28.058         4.00887 
        2.34061         27.8292          3.9447 
        2.35635         27.5032         3.88201 
        2.37203         27.2787         3.82091 
        2.38768         27.0312         3.76126 
        2.40339         26.8424         3.70268 
        2.41914         26.5145         3.64521 
        2.43483         26.3784         3.58918 
         2.4505         25.9061         3.53443 
        2.46622         25.6189         3.48065 
        2.48195         25.4307         3.42799 
        2.49759         25.0566          3.3767 
        2.51328         24.9139         3.32635 
        2.52906          24.722          3.2767 
        2.54479         24.4574         3.22827 
        2.56049         24.3535         3.18091 
        2.57618         24.0476         3.13455 
        2.59189         23.6831         3.08906 
        2.60758         23.5599         3.04454 
        2.62325         23.2506         3.00096 
        2.63898          23.128          2.9581 
        2.65468         22.8721         2.91616 
        2.67044         22.6235         2.87486 
        2.68618         22.3417         2.83447 
        2.70184         22.1381         2.79502 
        2.71755         21.9604         2.75622 
        2.73329         21.7135         2.71811 
        2.74897         21.5851         2.68085 
        2.76462         21.4053         2.64437 
        2.78034         21.0822         2.60843 
        2.79607           20.89         2.57313 
        2.81179         20.7253         2.53852 
        2.82749         20.5341         2.50459 
        2.84321         20.3563         2.47125 
        2.85893         20.1183         2.43853 
        2.87462         19.9661         2.40646 
        2.89033         19.8131         2.37494 
        2.90605         19.5342         2.34397 
        2.92176            19.3         2.31357 
        2.93747         19.2118         2.28372 
        2.95318         19.0847          2.2544 
        2.96891         18.8131         2.22559 
        2.98456         18.7425         2.19741 
        3.00023         18.4576         2.16968 
        3.01596          18.256         2.14235 
        3.03164         18.1302         2.11557 
        3.04738         17.9843         2.08917 
         3.0631         17.8281         2.06323 
        3.07883         17.6496         2.03774 
        3.09456         17.5105         2.01268 
        3.11026         17.3318         1.98809 
        3.12596         17.1474         1.96391 
        3.14163         17.0162          1.9402 
        3.15734         16.8733         1.91682 
        3.17308          16.746         1.89377 
        3.18879          16.483         1.87117 
        3.20447         16.4319         1.84898 
         3.2202         16.2452         1.82708 
         3.2359         16.1023         1.80557 
        3.25157         15.9855         1.78446 
        3.26729         15.8181         1.76363 
        3.28304         15.7373         1.74309 
        3.29877         15.6485         1.72291 
        3.31446         15.4529          1.7031 
        3.33014         15.2746         1.68362 
        3.34585         15.1917         1.66441 
        3.36158         15.0234         1.64548 
        3.37727          14.865          1.6269 
        3.39294         14.7425         1.60863 
        3.40867         14.6264         1.59057 
        3.42439         14.5029         1.57281 
        3.44008         14.3627         1.55535 
        3.45578         14.2288         1.53814 
        3.47153         14.1345         1.52116 
        3.48724         14.0195         1.50447 
        3.50292          13.929         1.48807 
        3.51859         13.7755         1.47192 
        3.53431         13.6335         1.45597 
        3.55007         13.5203         1.44021 
        3.56577         13.4197         1.42475 
        3.58146         13.2939         1.40952 
        3.59719         13.1847         1.39449 
        3.61292         13.0686         1.37968 
        3.62859         12.9461         1.36514 
        3.64429          12.836         1.35079 
        3.66003         12.7386         1.33659 
        3.67578          12.644         1.32261 
        3.69146         12.5516         1.30889 
        3.70712         12.4011         1.29538 
        3.72284         12.3018         1.28202 
        3.73853          12.212         1.26887 
        3.75422          12.073          1.2559 
        3.76993         11.9735          1.2431 
        3.78564         11.9106         1.23049 
        3.80137         11.7906         1.21803 
        3.81707         11.6855         1.20577 
        3.83279         11.6325         1.19367 
        3.84853         11.4973         1.18172 
        3.86424          11.403         1.16996 
        3.87992         11.3137         1.15837 
        3.89561         11.2183         1.14695 
        3.91134         11.1314         1.13565 
        3.92704         11.0401         1.12452 
        3.94273         10.9502         1.11356 
        3.95845         10.8451         1.10272 
        3.97418         10.7536         1.09202 
        3.98988         10.6952         1.08148 
        4.00554         10.5868         1.07111 
        4.02125         10.4994         1.06084 
        4.03698          10.417          1.0507 
        4.05268         10.3477         1.04071 
        4.06839         10.2259         1.03084 
         4.0841         10.1632         1.02111 
        4.09983         10.0879         1.01149 
        4.11555         9.99043           1.002 
        4.13124         9.90789        0.992656 
        4.14693         9.81387        0.983425 
        4.16266         9.74874        0.974291 
        4.17839         9.66282        0.965279 
        4.19408         9.59666        0.956403 
        4.20977         9.48742        0.947635 
        4.22551          9.4349        0.938956 
        4.24123         9.37369        0.930396 
        4.25691          9.2798        0.921966 
        4.27259         9.19916        0.913639 
        4.28831         9.11453        0.905399 
        4.30404         9.08991        0.897253 
        4.31974         8.97772        0.889226 
        4.33543         8.92375        0.881302 
        4.35116         8.83333        0.873456 
        4.36688         8.77434         0.86571 
        4.38255         8.71218        0.858087 
        4.39825         8.61596        0.850539 
        4.41398         8.55385        0.843068 
         4.4297          8.4899        0.835696 
        4.44541         8.43415        0.828413 
        4.46111         8.35312        0.821223 
        4.47683         8.31713        0.814114 
        4.49251         8.22162        0.807104 
        4.50819         8.17698        0.800179 
         4.5239         8.10394        0.793326 
        4.53962         8.02945        0.786546 
        4.55535         7.98986        0.779841 
        4.57106          7.9065        0.773225 
        4.58678         7.88135        0.766685 
         4.6025          7.7884        0.760219 
        4.61821         7.72533         0.75383 
        4.63391         7.67574        0.747522 
         4.6496         7.62043         0.74129 
        4.66532         7.56464         0.73512 
        4.68103         7.48921        0.729023 
        4.69673         7.45121        0.723001 
        4.71241         7.37473        0.717054 
        4.72811         7.30877        0.711165 
        4.74384         7.30075        0.705334 
        4.75955         7.23323        0.699579 
        4.77525         7.18096         0.69389 
        4.79096         7.13407        0.688259 
        4.80669         7.05433        0.682688 
         4.8224         7.00654        0.677185 
        4.83809         6.96819         0.67175 
        4.85379         6.90561         0.66637 
         4.8695         6.88712        0.661046 
        4.88521         6.79418        0.655783 
        4.90093         6.75764        0.650576 
        4.91663         6.71425        0.645431 
        4.93234         6.65892        0.640337 
        4.94807         6.60029        0.635294 
        4.96377         6.56171        0.630316 
        4.97943         6.49542        0.625402 
        4.99514         6.45818        0.620528 
        5.01086          6.4167        0.615702 
        5.02654         6.37645         0.61094 
        5.04227         6.32369        0.606215 
          5.058         6.26186        0.601538 
        5.07371         6.26452         0.59692 
        5.08942         6.19391         0.59235 
        5.10513         6.15039        0.587828 
        5.12084         6.09828        0.583351 
        5.13656         6.05419        0.578922 
        5.15225         6.00036        0.574546 
        5.16796         5.96914        0.570209 
        5.18369         5.92877        0.565914 
         5.1994         5.87993         0.56167 
        5.21509         5.84031        0.557474 
        5.23079          5.8097        0.553316 
        5.24649         5.74816        0.549205 
        5.26217         5.73032        0.545138 
        5.27788         5.67373        0.541107 
        5.29359         5.64871        0.537116 
        5.30933         5.60136         0.53316 
        5.32504         5.56147         0.52925 
        5.34073         5.52775        0.525384 
        5.35646          5.4776         0.52155 
        5.37218         5.44523        0.517753 
        5.38789         5.41031           0.514 
        5.40357          5.3609        0.510289 
        5.41929         5.32355        0.506607 
        5.43502         5.29143        0.502961 
         5.4507          5.2587         0.49936 
        5.46639          5.2176        0.495793 
        5.48212         5.19623        0.492254 
        5.49786         5.15488        0.488745 
        5.51353         5.12614        0.485287 
        5.52921         5.07829         0.48186 
        5.54495         5.05042        0.478456 
        5.56066          5.0078        0.475089 
        5.57637         4.97965        0.471755 
        5.59207         4.94131        0.468456 
        5.60778          4.9051        0.465188 
        5.62346         4.87458        0.461956 
        5.63916         4.84369        0.458751 
        5.65487         4.80721        0.455575 
         5.6706         4.78534        0.452426 
        5.68633         4.75422        0.449306 
        5.70203         4.71176        0.446222 
        5.71773         4.68751        0.443167 
        5.73344         4.65128        0.440139 
        5.74916         4.62646        0.437138 
        5.76486         4.59912        0.434168 
        5.78054         4.56773        0.431231 
        5.79626         4.52745        0.428313 
          5.812         4.50231        0.425419 
         5.8277         4.47505         0.42256 
        5.84339         4.44563        0.419728 
        5.85911         4.41902        0.416917 
        5.87484         4.37393        0.414132 
        5.89053         4.36136        0.411378 
        5.90623          4.3353        0.408648 
        5.92195         4.30802        0.405938 
        5.93767         4.26998        0.403255 
        5.95336         4.25406          0.4006 
        5.96905         4.22485         0.39797 
        5.98476         4.20149        0.395361 
        6.00048         4.16678        0.392774 
        6.01617         4.13495        0.390214 
        6.03185         4.11499         0.38768 
        6.04756         4.08653        0.385162 
        6.06331         4.06457        0.382662 
        6.07903          4.0365        0.380189 
        6.09473         4.01213         0.37774 
        6.11044         3.97722        0.375311 
        6.12616         3.97495        0.372904 
        6.14186         3.93692        0.370521 
        6.15755         3.91075        0.368158 
        6.17326         3.88809        0.365815 
        6.18898         3.85699        0.363491 
        6.20467         3.83524        0.361191 
        6.22036         3.82145        0.358912 
         6.2361         3.79043        0.356646 
         6.2518         3.76597        0.354404 
        6.26748         3.74247        0.352185 
        6.28319         3.72665         0.34998 
        6.29893          3.7016        0.347792 
        6.31463         3.67885        0.345627 
        6.33033         3.65498        0.343481 
        6.34604         3.63414        0.341351 
        6.36177         3.61509        0.339238 
        6.37747         3.59962        0.337147 
