# k  (h/Mpc)    Pcb(k)  (Mpc/h)^3    Pcb_linear(k) (Mpc/h)^3   ShotnoiseSubtracted = true
      0.0200456         2008.49          2036.6 
      0.0350414         1498.73         1476.85 
      0.0492313         1068.76         1066.07 
      0.0637834         885.441         898.059 
      0.0800726          711.35         724.641 
       0.096163         532.677          522.73 
       0.111083         425.353         413.597 
       0.126058         368.339         370.737 
       0.142273         316.416         319.276 
       0.158546         254.756         251.554 
        0.17375         216.435         210.071 
       0.188953         195.829         191.367 
       0.204907         169.894         171.798 
       0.220756         149.226         145.671 
        0.23588         129.722          125.84 
         0.2514         117.602         114.477 
       0.267535         109.422         104.653 
       0.283568         96.4877          92.714 
       0.299022         87.6462         82.3492 
       0.314451         82.4344         75.2226 
       0.330372          74.125         69.4179 
       0.346141         67.9608         63.3133 
       0.361624         62.3399         57.5329 
       0.377134         57.0111         52.9072 
       0.392932         55.1702         49.1028 
       0.408854          50.395          45.441 
       0.424564         48.0978         41.9456 
       0.440253         43.9016          38.895 
       0.455999         40.2044         36.2992 
       0.471626         38.0518         33.9449 
        0.48727         36.9261         31.7036 
       0.502856         34.5254         29.6662 
       0.518488         32.2071         27.8541 
       0.534347         30.3111         26.1874 
       0.550082         29.1438         24.6438 
       0.565732         28.0101         23.2191 
       0.581496         26.3623         21.9111 
       0.597222          24.906         20.7176 
       0.612804         23.6885         19.6187 
       0.628434         23.1914         18.5915 
       0.644267         21.9734         17.6265 
       0.660051         20.8608         16.7379 
       0.675724         19.8519         15.9182 
       0.691403         19.4036         15.1529 
       0.707174         18.5745         14.4337 
       0.722871         18.0083         13.7642 
        0.73838          17.004         13.1444 
       0.754018         16.1882         12.5583 
       0.769845         15.6869         12.0017 
        0.78569         15.2386         11.4786 
       0.801365         14.6288          10.992 
       0.817031         14.1376         10.5343 
       0.832809         13.6248         10.1001 
       0.848511         13.2283          9.6926 
       0.864097         12.7712         9.31074 
       0.879701         12.5359         8.94937 
       0.895507         12.0734         8.60316 
       0.911279         11.5721         8.27624 
        0.92691         11.3124         7.96924 
       0.942635         10.9976         7.67631 
       0.958396         10.6178         7.39768 
       0.974128         10.3731         7.13355 
       0.989692         9.90351         6.88508 
        1.00528         9.81681         6.64822 
        1.02113         9.49354         6.41892 
        1.03692          9.2653         6.20139 
        1.05264         9.00612         5.99506 
        1.06832         8.80604         5.79854 
        1.08405         8.58421         5.61041 
        1.09979          8.3674          5.4306 
        1.11537         8.16136         5.26054 
        1.13105         7.97736         5.09683 
        1.14679         7.80292         4.93952 
        1.16256         7.59534         4.78862 
        1.17828         7.46459         4.64459 
        1.19395         7.26361         4.50704 
         1.2097         7.04567         4.37442 
        1.22537          6.8944         4.24783 
          1.241         6.72955         4.12668 
        1.25666         6.70424         4.01001 
        1.27241         6.55119         3.89736 
        1.28819         6.29357         3.78888 
        1.30392         6.20411          3.6849 
        1.31957         6.09464         3.58532 
        1.33529         5.97276          3.4891 
        1.35108         5.84074         3.39606 
        1.36674         5.70131         3.30712 
         1.3824         5.64327         3.22148 
        1.39811         5.52071         3.13862 
        1.41389         5.38475         3.05838 
        1.42964         5.31614         2.98112 
        1.44531          5.2112         2.90692 
        1.46101         5.14496         2.83512 
        1.47667         5.03002         2.76599 
        1.49229         4.89751         2.69937 
        1.50793         4.81713         2.63488 
        1.52367         4.73129         2.57211 
        1.53953         4.63948         2.51099 
        1.55526         4.63394         2.45235 
        1.57092         4.51349         2.39585 
        1.58662         4.45705         2.34102 
        1.60235          4.3657         2.28781 
        1.61809          4.2997         2.23624 
        1.63369         4.22426         2.18673 
        1.64941         4.15927         2.13838 
        1.66519         4.10578         2.09134 
        1.68085         4.02876         2.04606 
        1.69652         3.97452         2.00211 
        1.71228         3.91959         1.95922 
        1.72806         3.85902         1.91757 
        1.74368         3.80713         1.87755 
        1.75933         3.74953         1.83861 
        1.77505         3.67865          1.8006 
        1.79081          3.6449          1.7636 
         1.8065         3.59185         1.72782 
        1.82218         3.52676         1.69306 
        1.83797         3.46996         1.65904 
        1.85367         3.42408         1.62614 
        1.86928         3.39829         1.59434 
        1.88497         3.32058         1.56323 
        1.90073         3.29399         1.53284 
        1.91647         3.24641         1.50329 
        1.93218         3.20326         1.47459 
        1.94787         3.16545         1.44669 
        1.96363         3.12732          1.4194 
        1.97935         3.07912         1.39289 
        1.99499          3.0452          1.3672 
        2.01064         3.01172         1.34213 
         2.0264         2.95946         1.31754 
        2.04216         2.92749         1.29358 
        2.05781         2.88782         1.27037 
        2.07353         2.87042         1.24766 
        2.08928          2.8215         1.22545 
        2.10499         2.78058         1.20385 
        2.12065         2.77348         1.18284 
        2.13633         2.72762         1.16232 
        2.15211         2.68533         1.14215 
        2.16785         2.66025         1.12253 
        2.18349         2.62746         1.10349 
        2.19916         2.60933         1.08486 
        2.21489         2.58021          1.0666 
        2.23063         2.53438         1.04875 
         2.2463         2.50156         1.03139 
        2.26194         2.48412         1.01447 
        2.27765          2.4315         0.99785 
        2.29341         2.41889         0.98156 
        2.30914         2.38753         0.96567 
        2.32486         2.38234        0.950144 
        2.34061         2.35273        0.934936 
        2.35635         2.32597        0.920077 
        2.37203         2.30867        0.905595 
        2.38768         2.28162        0.891457 
        2.40339         2.25058        0.877572 
        2.41914         2.22792        0.863953 
        2.43483         2.20591        0.850674 
         2.4505         2.18319        0.837698 
        2.46622         2.15584         0.82495 
        2.48195         2.14066        0.812469 
        2.49759         2.11433        0.800314 
        2.51328         2.10019        0.788379 
        2.52906         2.08101        0.776613 
        2.54479         2.05313        0.765133 
        2.56049         2.03684        0.753909 
        2.57618         2.01676        0.742922 
        2.59189          2.0069        0.732139 
        2.60758         1.97993        0.721588 
        2.62325         1.95517         0.71126 
        2.63898         1.93663        0.701099 
        2.65468         1.91366         0.69116 
        2.67044         1.91166        0.681372 
        2.68618         1.88956        0.671798 
        2.70184         1.87046        0.662448 
        2.71755         1.85809        0.653253 
        2.73329         1.83106         0.64422 
        2.74897         1.82025        0.635389 
        2.76462         1.80215        0.626744 
        2.78034         1.79935        0.618225 
        2.79607         1.77276        0.609857 
        2.81179          1.7573        0.601655 
        2.82749          1.7423        0.593614 
        2.84321         1.72952        0.585711 
        2.85893         1.71087        0.577956 
        2.87462         1.70354        0.570356 
        2.89033          1.6845        0.562887 
        2.90605         1.67446        0.555545 
        2.92176         1.65994         0.54834 
        2.93747         1.64587        0.541266 
        2.95318         1.62871        0.534317 
        2.96891         1.62542        0.527488 
        2.98456         1.60692        0.520809 
        3.00023         1.59164        0.514237 
        3.01596           1.575        0.507759 
        3.03164         1.56575        0.501411 
        3.04738         1.55636        0.495154 
         3.0631         1.54146        0.489007 
        3.07883         1.53143        0.482965 
        3.09456          1.5138        0.477026 
        3.11026         1.51032        0.471198 
        3.12596         1.49198        0.465468 
        3.14163         1.48651        0.459847 
        3.15734         1.47138        0.454306 
        3.17308         1.46384        0.448844 
        3.18879         1.45373        0.443488 
        3.20447         1.43809        0.438227 
         3.2202          1.4318        0.433036 
         3.2359         1.41892        0.427939 
        3.25157         1.40835        0.422936 
        3.26729         1.39919        0.417999 
        3.28304         1.38871        0.413132 
        3.29877         1.37718        0.408349 
        3.31446         1.37369        0.403652 
        3.33014         1.35252        0.399035 
        3.34585         1.35092        0.394482 
        3.36158         1.33897        0.389995 
        3.37727         1.33486        0.385592 
        3.39294         1.32006        0.381261 
        3.40867         1.31649        0.376982 
        3.42439         1.30964        0.372771 
        3.44008         1.29807        0.368634 
        3.45578         1.28738        0.364556 
        3.47153         1.27886        0.360531 
        3.48724         1.27001        0.356575 
        3.50292         1.25812        0.352688 
        3.51859         1.25942        0.348861 
        3.53431         1.24484        0.345079 
        3.55007         1.24081        0.341345 
        3.56577         1.23156         0.33768 
        3.58146         1.22648        0.334072 
        3.59719         1.21554        0.330508 
        3.61292         1.20813        0.326998 
        3.62859             1.2        0.323552 
        3.64429         1.19179         0.32015 
        3.66003         1.18415        0.316787 
        3.67578         1.17744        0.313473 
        3.69146         1.17111         0.31022 
        3.70712         1.16323        0.307019 
        3.72284         1.15679        0.303852 
        3.73853          1.1481        0.300735 
        3.75422         1.14281        0.297661 
        3.76993         1.13504        0.294628 
        3.78564         1.12742        0.291638 
        3.80137         1.12254        0.288685 
        3.81707         1.11418         0.28578 
        3.83279         1.10926        0.282913 
        3.84853         1.10196         0.28008 
        3.86424         1.09135        0.277292 
        3.87992         1.09069        0.274547 
        3.89561         1.08143        0.271838 
        3.91134         1.07564        0.269161 
        3.92704         1.06863        0.266524 
        3.94273         1.06323        0.263924 
        3.95845         1.05517        0.261355 
        3.97418         1.05156         0.25882 
        3.98988         1.04487        0.256321 
        4.00554         1.03672        0.253863 
        4.02125         1.02964        0.251431 
        4.03698         1.02274        0.249026 
        4.05268         1.01726        0.246659 
        4.06839         1.00837        0.244321 
         4.0841         1.00101        0.242014 
        4.09983        0.995616        0.239734 
        4.11555        0.988639        0.237484 
        4.13124        0.979511         0.23527 
        4.14693        0.976592        0.233082 
        4.16266        0.967234        0.230917 
        4.17839        0.960765        0.228781 
        4.19408        0.957112        0.226677 
        4.20977        0.949947        0.224599 
        4.22551         0.94616        0.222542 
        4.24123        0.937466        0.220513 
        4.25691        0.930358        0.218516 
        4.27259        0.927155        0.216542 
        4.28831        0.923586        0.214589 
        4.30404        0.918578        0.212658 
        4.31974        0.909192        0.210756 
        4.33543        0.906066        0.208878 
        4.35116        0.899666        0.207018 
        4.36688        0.893504        0.205182 
        4.38255         0.88995        0.203375 
        4.39825         0.88677        0.201587 
        4.41398        0.880416        0.199816 
         4.4297        0.877953        0.198069 
        4.44541        0.869621        0.196342 
        4.46111        0.867663        0.194638 
        4.47683        0.863998        0.192954 
        4.49251        0.859246        0.191292 
        4.50819         0.85517        0.189651 
         4.5239        0.850708        0.188027 
        4.53962        0.843212        0.186419 
        4.55535        0.843672         0.18483 
        4.57106        0.836825        0.183262 
        4.58678        0.836075        0.181712 
         4.6025        0.830157         0.18018 
        4.61821        0.829158        0.178665 
        4.63391        0.826619        0.177171 
         4.6496        0.820819        0.175693 
        4.66532         0.81679        0.174231 
        4.68103        0.814386        0.172786 
        4.69673        0.809944        0.171359 
        4.71241        0.808261        0.169949 
        4.72811        0.805118        0.168553 
        4.74384        0.803217        0.167172 
        4.75955        0.799722        0.165807 
        4.77525        0.795175        0.164459 
        4.79096        0.793348        0.163125 
        4.80669        0.790085        0.161804 
         4.8224        0.785546          0.1605 
        4.83809        0.783896        0.159212 
        4.85379        0.782452        0.157937 
         4.8695        0.779231        0.156675 
        4.88521        0.776869        0.155427 
        4.90093        0.773849        0.154193 
        4.91663        0.771126        0.152974 
        4.93234         0.76927        0.151766 
        4.94807        0.768039        0.150571 
        4.96377        0.766514        0.149391 
        4.97943        0.763919        0.148227 
        4.99514        0.759944        0.147071 
        5.01086        0.757572        0.145928 
        5.02654        0.758105        0.144799 
        5.04227        0.753399        0.143679 
          5.058        0.753293        0.142571 
        5.07371        0.750196        0.141476 
        5.08942        0.749098        0.140393 
        5.10513        0.748139        0.139321 
        5.12084           0.744         0.13826 
        5.13656        0.744286         0.13721 
        5.15225        0.741805        0.136173 
        5.16796        0.740015        0.135146 
        5.18369        0.737921        0.134127 
         5.1994        0.737857        0.133122 
        5.21509         0.73517        0.132127 
        5.23079        0.734104        0.131142 
        5.24649        0.732671        0.130167 
        5.26217        0.733147        0.129203 
        5.27788        0.731458        0.128248 
        5.29359        0.729783        0.127302 
        5.30933        0.728446        0.126364 
        5.32504        0.725927        0.125438 
        5.34073         0.72496        0.124522 
        5.35646        0.725331        0.123613 
        5.37218        0.723885        0.122713 
        5.38789        0.721547        0.121823 
        5.40357        0.721199        0.120944 
        5.41929        0.720054        0.120071 
        5.43502        0.719121        0.119207 
         5.4507        0.716747        0.118353 
        5.46639        0.716976        0.117508 
        5.48212        0.715517        0.116669 
        5.49786        0.715688        0.115838 
        5.51353        0.714958        0.115018 
        5.52921        0.713651        0.114206 
        5.54495        0.712286        0.113399 
        5.56066        0.712037        0.112601 
        5.57637        0.711561        0.111811 
        5.59207        0.711184        0.111029 
        5.60778        0.709422        0.110254 
        5.62346        0.708478        0.109488 
        5.63916        0.707803        0.108729 
        5.65487        0.705778        0.107976 
         5.6706        0.706408         0.10723 
        5.68633        0.705668         0.10649 
        5.70203        0.705343        0.105759 
        5.71773        0.704878        0.105035 
        5.73344        0.703946        0.104318 
        5.74916        0.702471        0.103606 
        5.76486        0.704346        0.102902 
        5.78054        0.701763        0.102206 
        5.79626        0.701203        0.101515 
          5.812        0.699976        0.100829 
         5.8277        0.700089        0.100151 
        5.84339        0.700762       0.0994799 
        5.85911        0.699908       0.0988136 
        5.87484        0.698238       0.0981535 
        5.89053         0.69835       0.0975008 
        5.90623        0.698128       0.0968538 
        5.92195        0.696532       0.0962116 
        5.93767        0.697882       0.0955756 
        5.95336        0.697335       0.0949464 
        5.96905        0.695309       0.0943231 
        5.98476        0.694381       0.0937046 
        6.00048        0.694643       0.0930915 
        6.01617        0.694214       0.0924847 
        6.03185        0.693075       0.0918841 
        6.04756        0.693694       0.0912874 
        6.06331        0.694087       0.0906948 
        6.07903        0.693787       0.0901087 
        6.09473        0.691651       0.0895284 
        6.11044        0.689694       0.0889527 
        6.12616        0.692061       0.0883822 
        6.14186        0.690426       0.0878173 
        6.15755        0.690937       0.0872573 
        6.17326        0.689909       0.0867019 
        6.18898        0.689435       0.0861511 
        6.20467        0.690151        0.085606 
        6.22036        0.689893       0.0850658 
         6.2361        0.687664       0.0845288 
         6.2518        0.687731       0.0839973 
        6.26748        0.686832       0.0834716 
        6.28319        0.686684        0.082949 
        6.29893        0.688614       0.0824304 
        6.31463        0.685855       0.0819172 
        6.33033        0.685616       0.0814085 
        6.34604         0.68586       0.0809038 
        6.36177        0.684489       0.0804029 
        6.37747        0.685934       0.0799073 
