# k  (h/Mpc)    Pcb(k)  (Mpc/h)^3    Pcb_linear(k) (Mpc/h)^3   ShotnoiseSubtracted = true
      0.0200456         1627.67         1653.07 
      0.0350414         1189.52         1198.73 
      0.0492313         867.945         865.309 
      0.0637834         735.918          728.94 
      0.0800726         592.295         588.179 
       0.096163         422.236         424.292 
       0.111083         332.723          335.71 
       0.126058         302.609         300.922 
       0.142273         262.008         259.151 
       0.158546         208.424         204.182 
        0.17375         170.851         170.511 
       0.188953         158.323         155.329 
       0.204907         146.551         139.446 
       0.220756         122.518         118.239 
        0.23588          106.18         102.142 
         0.2514         95.2523         92.9188 
       0.267535         88.0514         84.9449 
       0.283568         78.8299         75.2545 
       0.299022         71.1001         66.8416 
       0.314451         63.6573          61.057 
       0.330372         59.4036         56.3454 
       0.346141          54.132         51.3904 
       0.361624         49.9591         46.6986 
       0.377134         46.7748          42.944 
       0.392932         41.6592         39.8559 
       0.408854         40.1117         36.8837 
       0.424564         37.4418         34.0466 
       0.440253         34.5294         31.5705 
       0.455999         32.5904         29.4635 
       0.471626         30.6521         27.5525 
        0.48727         28.9272         25.7333 
       0.502856         27.0305         24.0796 
       0.518488         25.8436         22.6087 
       0.534347         24.7586         21.2559 
       0.550082         22.6473          20.003 
       0.565732         21.0215         18.8466 
       0.581496         20.6215         17.7849 
       0.597222         19.8521         16.8161 
       0.612804         18.5003         15.9242 
       0.628434         17.8402         15.0904 
       0.644267         17.2225         14.3071 
       0.660051         16.2755         13.5859 
       0.675724         15.4606         12.9205 
       0.691403         14.9584         12.2994 
       0.707174         14.3076         11.7156 
       0.722871         13.7413         11.1722 
        0.73838         13.2229         10.6691 
       0.754018         12.7709         10.1934 
       0.769845         12.2063         9.74162 
        0.78569         11.8314         9.31699 
       0.801365         11.3458         8.92205 
       0.817031         11.0063         8.55053 
       0.832809         10.7123         8.19806 
       0.848511         10.0794         7.86733 
       0.864097         9.80817         7.55738 
       0.879701         9.50936         7.26406 
       0.895507         9.10513         6.98305 
       0.911279         8.97402         6.71769 
        0.92691         8.66934         6.46851 
       0.942635         8.29676         6.23074 
       0.958396         8.05176         6.00458 
       0.974128         7.84661         5.79019 
       0.989692         7.73594         5.58851 
        1.00528         7.43046         5.39626 
        1.02113         7.15226         5.21013 
        1.03692         7.01727         5.03357 
        1.05264         6.81202          4.8661 
        1.06832         6.65967         4.70659 
        1.08405         6.39506         4.55388 
        1.09979         6.25961         4.40793 
        1.11537         6.14257          4.2699 
        1.13105         5.97229         4.13701 
        1.14679         5.83478         4.00933 
        1.16256         5.66447         3.88685 
        1.17828         5.56989         3.76994 
        1.19395          5.4037         3.65829 
         1.2097         5.23116         3.55064 
        1.22537         5.11061         3.44789 
          1.241         5.02567         3.34956 
        1.25666         4.97867         3.25486 
        1.27241         4.79546         3.16342 
        1.28819          4.6847         3.07538 
        1.30392           4.612         2.99097 
        1.31957         4.51447         2.91015 
        1.33529         4.40611         2.83205 
        1.35108          4.3035         2.75653 
        1.36674         4.24865         2.68434 
         1.3824         4.09242         2.61482 
        1.39811         4.03543         2.54757 
        1.41389         3.97439         2.48244 
        1.42964         3.89597         2.41972 
        1.44531         3.82412          2.3595 
        1.46101         3.74789         2.30123 
        1.47667         3.64777         2.24511 
        1.49229         3.61809         2.19103 
        1.50793         3.52004         2.13869 
        1.52367         3.49342         2.08774 
        1.53953         3.39263         2.03813 
        1.55526         3.32975         1.99054 
        1.57092         3.28828         1.94468 
        1.58662         3.21826         1.90017 
        1.60235         3.16468         1.85698 
        1.61809         3.11215         1.81512 
        1.63369         3.06481         1.77494 
        1.64941         3.00711         1.73569 
        1.66519         2.96537         1.69751 
        1.68085         2.89466         1.66075 
        1.69652         2.85059         1.62508 
        1.71228         2.81554         1.59027 
        1.72806         2.75672         1.55646 
        1.74368         2.71458         1.52398 
        1.75933         2.67204         1.49237 
        1.77505         2.63574         1.46152 
        1.79081         2.58871         1.43149 
         1.8065         2.54998         1.40244 
        1.82218         2.52202         1.37423 
        1.83797         2.49393         1.34661 
        1.85367         2.45438         1.31991 
        1.86928         2.41835          1.2941 
        1.88497         2.36862         1.26885 
        1.90073         2.33108         1.24418 
        1.91647         2.30074          1.2202 
        1.93218         2.28456          1.1969 
        1.94787         2.24396         1.17425 
        1.96363         2.20536         1.15211 
        1.97935         2.17222         1.13058 
        1.99499         2.13154         1.10974 
        2.01064         2.11544         1.08939 
         2.0264         2.10007         1.06943 
        2.04216         2.06369         1.04998 
        2.05781         2.03123         1.03114 
        2.07353         2.01142          1.0127 
        2.08928         1.98392         0.99468 
        2.10499         1.95504        0.977147 
        2.12065          1.9415        0.960093 
        2.13633         1.90713        0.943435 
        2.15211         1.88046        0.927068 
        2.16785         1.85779        0.911138 
        2.18349          1.8394        0.895685 
        2.19916         1.80439        0.880561 
        2.21489         1.78657        0.865739 
        2.23063         1.76106        0.851251 
         2.2463         1.74958        0.837163 
        2.26194           1.718        0.823431 
        2.27765           1.701        0.809939 
        2.29341         1.68547        0.796717 
        2.30914          1.6661        0.783819 
        2.32486          1.6505        0.771217 
        2.34061         1.62523        0.758873 
        2.35635         1.60048        0.746812 
        2.37203         1.59344        0.735057 
        2.38768         1.57535        0.723582 
        2.40339         1.55963        0.712312 
        2.41914         1.53994        0.701257 
        2.43483          1.5217        0.690478 
         2.4505         1.49975        0.679946 
        2.46622         1.48831        0.669599 
        2.48195         1.47631        0.659468 
        2.49759         1.45838        0.649602 
        2.51328         1.43773        0.639914 
        2.52906         1.42583        0.630364 
        2.54479         1.41074        0.621046 
        2.56049         1.39568        0.611936 
        2.57618         1.38423        0.603018 
        2.59189         1.37199        0.594265 
        2.60758         1.35124        0.585702 
        2.62325         1.34126        0.577318 
        2.63898         1.32808        0.569071 
        2.65468         1.31535        0.561004 
        2.67044         1.30383        0.553059 
        2.68618         1.28431        0.545288 
        2.70184         1.27256        0.537698 
        2.71755          1.2605        0.530235 
        2.73329         1.24989        0.522904 
        2.74897         1.23807        0.515735 
        2.76462         1.22504        0.508718 
        2.78034         1.21854        0.501804 
        2.79607          1.2022        0.495012 
        2.81179         1.19029        0.488354 
        2.82749         1.18211        0.481827 
        2.84321         1.17291        0.475413 
        2.85893         1.15766        0.469118 
        2.87462         1.15184        0.462949 
        2.89033         1.13399        0.456886 
        2.90605         1.12673        0.450927 
        2.92176         1.11715        0.445079 
        2.93747         1.10942        0.439337 
        2.95318         1.09856        0.433697 
        2.96891         1.08777        0.428154 
        2.98456         1.08332        0.422732 
        3.00023         1.06974        0.417398 
        3.01596         1.06426         0.41214 
        3.03164         1.05591        0.406987 
        3.04738         1.03924        0.401909 
         3.0631         1.03343        0.396919 
        3.07883         1.02638        0.392015 
        3.09456         1.01926        0.387195 
        3.11026         1.00836        0.382464 
        3.12596         1.00016        0.377813 
        3.14163        0.992076         0.37325 
        3.15734        0.986931        0.368753 
        3.17308        0.976208         0.36432 
        3.18879        0.968024        0.359972 
        3.20447        0.959527        0.355702 
         3.2202        0.953363        0.351488 
         3.2359        0.947264        0.347351 
        3.25157         0.93831        0.343291 
        3.26729        0.933121        0.339283 
        3.28304        0.923587        0.335332 
        3.29877        0.915341         0.33145 
        3.31446        0.909789        0.327638 
        3.33014        0.905971         0.32389 
        3.34585        0.897636        0.320195 
        3.36158        0.886829        0.316553 
        3.37727        0.885744        0.312979 
        3.39294        0.877889        0.309464 
        3.40867        0.871967         0.30599 
        3.42439        0.864113        0.302573 
        3.44008        0.858979        0.299214 
        3.45578         0.85383        0.295904 
        3.47153         0.84633        0.292638 
        3.48724        0.841244        0.289426 
        3.50292        0.837999        0.286271 
        3.51859        0.830777        0.283165 
        3.53431        0.824442        0.280095 
        3.55007        0.821511        0.277064 
        3.56577        0.813557         0.27409 
        3.58146        0.807398        0.271161 
        3.59719        0.804678        0.268268 
        3.61292         0.79898        0.265419 
        3.62859        0.789762        0.262622 
        3.64429        0.788546        0.259861 
        3.66003        0.781645        0.257131 
        3.67578         0.77636        0.254441 
        3.69146        0.772896        0.251801 
        3.70712        0.765576        0.249202 
        3.72284        0.763358        0.246632 
        3.73853         0.75555        0.244102 
        3.75422        0.750836        0.241607 
        3.76993        0.750438        0.239145 
        3.78564         0.74453        0.236718 
        3.80137        0.736875        0.234321 
        3.81707        0.735614        0.231963 
        3.83279        0.728424        0.229636 
        3.84853        0.723478        0.227337 
        3.86424        0.721241        0.225074 
        3.87992        0.716304        0.222845 
        3.89561        0.712277        0.220647 
        3.91134         0.70669        0.218474 
        3.92704        0.702099        0.216333 
        3.94273        0.699231        0.214223 
        3.95845         0.69501        0.212138 
        3.97418        0.688897         0.21008 
        3.98988        0.685898        0.208052 
        4.00554        0.681919        0.206057 
        4.02125        0.675895        0.204082 
        4.03698        0.668842        0.202131 
        4.05268        0.664261        0.200209 
        4.06839        0.659045        0.198311 
         4.0841        0.654787        0.196439 
        4.09983        0.650576        0.194588 
        4.11555         0.64478        0.192762 
        4.13124        0.639412        0.190965 
        4.14693        0.634862        0.189189 
        4.16266        0.630396        0.187432 
        4.17839        0.627017        0.185698 
        4.19408        0.622252         0.18399 
        4.20977        0.617545        0.182304 
        4.22551        0.613958        0.180634 
        4.24123        0.609356        0.178987 
        4.25691        0.605659        0.177366 
        4.27259         0.60199        0.175764 
        4.28831        0.598437        0.174178 
        4.30404        0.593882        0.172611 
        4.31974        0.590316        0.171067 
        4.33543        0.587175        0.169543 
        4.35116        0.584736        0.168033 
        4.36688        0.579653        0.166543 
        4.38255        0.577854        0.165077 
        4.39825        0.574732        0.163625 
        4.41398        0.570384        0.162187 
         4.4297        0.567577        0.160769 
        4.44541        0.564445        0.159368 
        4.46111        0.563324        0.157985 
        4.47683        0.559574        0.156617 
        4.49251        0.556448        0.155269 
        4.50819          0.5534        0.153937 
         4.5239        0.552994        0.152618 
        4.53962        0.549906        0.151314 
        4.55535        0.547812        0.150024 
        4.57106        0.544236        0.148751 
        4.58678         0.54201        0.147493 
         4.6025        0.539311        0.146249 
        4.61821        0.537947         0.14502 
        4.63391        0.535302        0.143807 
         4.6496        0.532212        0.142608 
        4.66532        0.531993        0.141421 
        4.68103        0.529338        0.140248 
        4.69673        0.528061        0.139089 
        4.71241        0.524568        0.137945 
        4.72811        0.524948        0.136812 
        4.74384        0.521811         0.13569 
        4.75955        0.521169        0.134583 
        4.77525        0.518428        0.133489 
        4.79096        0.518905        0.132406 
        4.80669        0.515274        0.131334 
         4.8224        0.515654        0.130275 
        4.83809        0.512752         0.12923 
        4.85379        0.512522        0.128195 
         4.8695        0.511621         0.12717 
        4.88521        0.509387        0.126158 
        4.90093        0.509535        0.125156 
        4.91663        0.506556        0.124167 
        4.93234        0.505738        0.123186 
        4.94807        0.505775        0.122216 
        4.96377        0.505221        0.121259 
        4.97943        0.504378        0.120313 
        4.99514        0.501947        0.119376 
        5.01086         0.50299        0.118447 
        5.02654        0.501798        0.117531 
        5.04227        0.500554        0.116622 
          5.058         0.49973        0.115722 
        5.07371        0.498689        0.114834 
        5.08942        0.499061        0.113955 
        5.10513        0.497711        0.113085 
        5.12084        0.497707        0.112224 
        5.13656        0.497661        0.111372 
        5.15225        0.497577         0.11053 
        5.16796        0.496411        0.109695 
        5.18369        0.497325        0.108869 
         5.1994        0.498007        0.108053 
        5.21509        0.496108        0.107246 
        5.23079        0.496038        0.106446 
        5.24649        0.496662        0.105655 
        5.26217        0.494948        0.104872 
        5.27788        0.496212        0.104097 
        5.29359         0.49549        0.103329 
        5.30933        0.495933        0.102568 
        5.32504        0.495835        0.101816 
        5.34073        0.495447        0.101072 
        5.35646         0.49573        0.100334 
        5.37218         0.49727       0.0996041 
        5.38789        0.496468       0.0988821 
        5.40357        0.496568       0.0981682 
        5.41929        0.497308       0.0974598 
        5.43502        0.497644       0.0967584 
         5.4507        0.497542       0.0960656 
        5.46639        0.498909       0.0953795 
        5.48212        0.497675       0.0946986 
        5.49786        0.497563       0.0940235 
        5.51353        0.498763       0.0933584 
        5.52921        0.498842       0.0926991 
        5.54495        0.499587       0.0920443 
        5.56066         0.50053       0.0913965 
        5.57637        0.499477       0.0907551 
        5.59207        0.501184       0.0901205 
        5.60778        0.501562       0.0894917 
        5.62346        0.501545       0.0888699 
        5.63916        0.502195       0.0882534 
        5.65487        0.503286       0.0876425 
         5.6706        0.503902       0.0870366 
        5.68633        0.504594       0.0864364 
        5.70203         0.50592        0.085843 
        5.71773        0.505863       0.0852554 
        5.73344        0.505242        0.084673 
        5.74916        0.507141       0.0840955 
        5.76486        0.507671       0.0835242 
        5.78054        0.508233       0.0829591 
        5.79626        0.508232       0.0823977 
          5.812        0.510266        0.081841 
         5.8277        0.510276       0.0812911 
        5.84339        0.511886       0.0807463 
        5.85911        0.511609       0.0802054 
        5.87484        0.511847       0.0796697 
        5.89053        0.513304       0.0791399 
        5.90623        0.514358       0.0786147 
        5.92195        0.514009       0.0780934 
        5.93767        0.515561       0.0775772 
        5.95336        0.514918       0.0770665 
        5.96905        0.516173       0.0765606 
        5.98476         0.51719       0.0760586 
        6.00048        0.518878       0.0755609 
        6.01617        0.519553       0.0750684 
        6.03185        0.519104       0.0745809 
        6.04756        0.520929       0.0740966 
        6.06331        0.522591       0.0736155 
        6.07903        0.523422       0.0731398 
        6.09473        0.524019       0.0726688 
        6.11044        0.525139       0.0722015 
        6.12616        0.525063       0.0717384 
        6.14186        0.525023       0.0712799 
        6.15755        0.526743       0.0708254 
        6.17326        0.527618       0.0703746 
        6.18898         0.52751       0.0699275 
        6.20467         0.53028       0.0694851 
        6.22036        0.529005       0.0690466 
         6.2361        0.530286       0.0686107 
         6.2518        0.530197       0.0681793 
        6.26748        0.531425       0.0677526 
        6.28319         0.53398       0.0673284 
        6.29893        0.534376       0.0669074 
        6.31463        0.534145       0.0664909 
        6.33033        0.533506        0.066078 
        6.34604         0.53485       0.0656683 
        6.36177        0.535658       0.0652618 
        6.37747        0.537683       0.0648595 
