# k  (h/Mpc)    Pcb(k)  (Mpc/h)^3    Pcb_linear(k) (Mpc/h)^3   ShotnoiseSubtracted = true
      0.0200456         184.204         186.888 
      0.0350414         135.546         135.522 
      0.0492313         98.2855         97.8273 
      0.0637834         82.6651         82.4101 
      0.0800726         66.5293         66.4965 
       0.096163         48.0703         47.9682 
       0.111083           37.98         37.9537 
       0.126058          34.038         34.0206 
       0.142273         29.3106         29.2983 
       0.158546         23.2141         23.0838 
        0.17375          19.277         19.2771 
       0.188953         17.5735         17.5607 
       0.204907         15.9284          15.765 
       0.220756         13.4416         13.3674 
        0.23588         11.6243         11.5477 
         0.2514         10.5176         10.5049 
       0.267535          9.6104         9.60342 
       0.283568         8.54051         8.50787 
       0.299022         7.61319         7.55676 
       0.314451         6.88149         6.90278 
       0.330372         6.37502         6.37012 
       0.346141         5.81774         5.80993 
       0.361624         5.30699         5.27949 
       0.377134         4.89958         4.85502 
       0.392932         4.46355          4.5059 
       0.408854         4.19976         4.16988 
       0.424564         3.85611         3.84913 
       0.440253           3.581         3.56919 
       0.455999         3.35845         3.33099 
       0.471626         3.14939         3.11494 
        0.48727         2.92384         2.90927 
       0.502856         2.72845         2.72231 
       0.518488         2.59038         2.55602 
       0.534347         2.44968         2.40308 
       0.550082         2.27116         2.26143 
       0.565732         2.11613         2.13069 
       0.581496         2.02953         2.01067 
       0.597222         1.92397         1.90114 
       0.612804         1.81211          1.8003 
       0.628434         1.73235         1.70605 
       0.644267         1.63426         1.61749 
       0.660051         1.54697         1.53595 
       0.675724         1.47619         1.46073 
       0.691403         1.41156          1.3905 
       0.707174         1.33887         1.32451 
       0.722871         1.27078         1.26307 
        0.73838         1.22361          1.2062 
       0.754018         1.17608         1.15241 
       0.769845         1.11957         1.10134 
        0.78569         1.06981         1.05333 
       0.801365         1.02231         1.00868 
       0.817031        0.982216        0.966678 
       0.832809         0.94163         0.92683 
       0.848511        0.900449        0.889439 
       0.864097        0.860927        0.854397 
       0.879701        0.827415        0.821236 
       0.895507        0.802099        0.789467 
       0.911279        0.772863        0.759467 
        0.92691        0.741899        0.731295 
       0.942635        0.715042        0.704415 
       0.958396        0.686844        0.678846 
       0.974128        0.662422        0.654608 
       0.989692        0.641921        0.631808 
        1.00528        0.620563        0.610072 
        1.02113        0.593969         0.58903 
        1.03692         0.57814        0.569069 
        1.05264        0.558682        0.550135 
        1.06832        0.541058        0.532102 
        1.08405        0.519606        0.514838 
        1.09979         0.50347        0.498337 
        1.11537        0.491761        0.482732 
        1.13105        0.475943        0.467709 
        1.14679         0.46359        0.453274 
        1.16256          0.4445        0.439427 
        1.17828        0.431772         0.42621 
        1.19395        0.417921        0.413587 
         1.2097        0.404408        0.401417 
        1.22537         0.39662        0.389801 
          1.241        0.384167        0.378684 
        1.25666        0.375596        0.367978 
        1.27241        0.362439         0.35764 
        1.28819        0.352271        0.347686 
        1.30392        0.343235        0.338144 
        1.31957        0.334379        0.329006 
        1.33529        0.324308        0.320176 
        1.35108        0.315607        0.311639 
        1.36674        0.304813        0.303477 
         1.3824        0.301065        0.295618 
        1.39811        0.291403        0.288014 
        1.41389        0.284475        0.280652 
        1.42964        0.278606        0.273561 
        1.44531        0.269118        0.266753 
        1.46101        0.263896        0.260164 
        1.47667        0.255144         0.25382 
        1.49229        0.250681        0.247707 
        1.50793        0.243403        0.241789 
        1.52367        0.238436        0.236029 
        1.53953        0.233106         0.23042 
        1.55526        0.227854         0.22504 
        1.57092        0.220843        0.219855 
        1.58662        0.216932        0.214823 
        1.60235        0.212658         0.20994 
        1.61809        0.205856        0.205208 
        1.63369        0.203289        0.200665 
        1.64941         0.19817        0.196228 
        1.66519        0.193176        0.191911 
        1.68085        0.188452        0.187756 
        1.69652        0.184317        0.183723 
        1.71228        0.181589        0.179788 
        1.72806        0.176025        0.175965 
        1.74368        0.173681        0.172293 
        1.75933        0.169679        0.168719 
        1.77505        0.165837        0.165231 
        1.79081        0.163159        0.161837 
         1.8065        0.158435        0.158553 
        1.82218        0.155967        0.155364 
        1.83797         0.15246        0.152241 
        1.85367        0.149615        0.149222 
        1.86928        0.146869        0.146305 
        1.88497        0.144175        0.143449 
        1.90073        0.140889        0.140661 
        1.91647        0.138077        0.137949 
        1.93218        0.135089        0.135315 
        1.94787        0.132443        0.132755 
        1.96363        0.130322        0.130251 
        1.97935        0.127145        0.127818 
        1.99499        0.125227        0.125461 
        2.01064        0.123095         0.12316 
         2.0264        0.120582        0.120904 
        2.04216        0.118714        0.118705 
        2.05781        0.116331        0.116575 
        2.07353        0.113501        0.114491 
        2.08928        0.111627        0.112453 
        2.10499        0.109425        0.110471 
        2.12065        0.108108        0.108543 
        2.13633        0.105524         0.10666 
        2.15211        0.104469        0.104809 
        2.16785        0.102259        0.103008 
        2.18349        0.099847        0.101261 
        2.19916       0.0990971       0.0995516 
        2.21489       0.0973312       0.0978759 
        2.23063       0.0954868        0.096238 
         2.2463       0.0935552       0.0946452 
        2.26194       0.0918726       0.0930927 
        2.27765       0.0903185       0.0915674 
        2.29341       0.0892423       0.0900726 
        2.30914       0.0872781       0.0886145 
        2.32486       0.0858772       0.0871897 
        2.34061       0.0846397       0.0857941 
        2.35635       0.0830243       0.0844306 
        2.37203       0.0818427       0.0831017 
        2.38768       0.0803797       0.0818043 
        2.40339       0.0790823       0.0805302 
        2.41914       0.0781963       0.0792805 
        2.43483       0.0764495       0.0780619 
         2.4505       0.0751143       0.0768711 
        2.46622       0.0739897       0.0757013 
        2.48195       0.0727316        0.074556 
        2.49759       0.0720923       0.0734406 
        2.51328       0.0710891       0.0723454 
        2.52906       0.0697046       0.0712657 
        2.54479       0.0685311       0.0702122 
        2.56049       0.0675297       0.0691823 
        2.57618       0.0665434        0.068174 
        2.59189       0.0655331       0.0671845 
        2.60758       0.0648042       0.0662163 
        2.62325       0.0636089       0.0652686 
        2.63898       0.0626951       0.0643362 
        2.65468        0.061518       0.0634241 
        2.67044         0.06099        0.062526 
        2.68618       0.0599991       0.0616474 
        2.70184       0.0589828       0.0607893 
        2.71755       0.0579772       0.0599456 
        2.73329       0.0573271       0.0591167 
        2.74897       0.0566931       0.0583063 
        2.76462       0.0556422        0.057513 
        2.78034       0.0549232       0.0567313 
        2.79607       0.0541827       0.0559634 
        2.81179       0.0534545       0.0552107 
        2.82749       0.0525809       0.0544728 
        2.84321       0.0519338       0.0537477 
        2.85893       0.0512011        0.053036 
        2.87462         0.05081       0.0523386 
        2.89033       0.0498913       0.0516531 
        2.90605       0.0490231       0.0509795 
        2.92176       0.0486316       0.0503182 
        2.93747       0.0478662       0.0496692 
        2.95318       0.0470635       0.0490315 
        2.96891       0.0466237       0.0484048 
        2.98456       0.0461093       0.0477919 
        3.00023       0.0452964       0.0471888 
        3.01596        0.044714       0.0465943 
        3.03164       0.0443488       0.0460119 
        3.04738       0.0436507       0.0454377 
         3.0631       0.0429357       0.0448736 
        3.07883       0.0423757       0.0443191 
        3.09456       0.0420621       0.0437742 
        3.11026       0.0414398       0.0432393 
        3.12596       0.0410684       0.0427135 
        3.14163       0.0404269       0.0421977 
        3.15734       0.0400047       0.0416893 
        3.17308       0.0394517       0.0411881 
        3.18879       0.0388513       0.0406965 
        3.20447       0.0385534       0.0402138 
         3.2202       0.0380706       0.0397374 
         3.2359       0.0377035       0.0392697 
        3.25157       0.0370632       0.0388106 
        3.26729       0.0366914       0.0383576 
        3.28304       0.0362908       0.0379109 
        3.29877       0.0358754        0.037472 
        3.31446       0.0354043        0.037041 
        3.33014       0.0350244       0.0366173 
        3.34585       0.0346046       0.0361996 
        3.36158       0.0341047       0.0357878 
        3.37727       0.0338622       0.0353837 
        3.39294       0.0335144       0.0349863 
        3.40867        0.033067       0.0345937 
        3.42439       0.0327379       0.0342073 
        3.44008       0.0323678       0.0338276 
        3.45578       0.0320939       0.0334534 
        3.47153       0.0316595       0.0330841 
        3.48724       0.0315305        0.032721 
        3.50292       0.0309494       0.0323643 
        3.51859       0.0305544       0.0320131 
        3.53431       0.0304196       0.0316661 
        3.55007       0.0300509       0.0313234 
        3.56577       0.0298135       0.0309871 
        3.58146       0.0293722        0.030656 
        3.59719       0.0292004        0.030329 
        3.61292        0.028772       0.0300069 
        3.62859       0.0284944       0.0296907 
        3.64429       0.0283025       0.0293785 
        3.66003       0.0279448       0.0290698 
        3.67578       0.0277101       0.0287658 
        3.69146       0.0274793       0.0284672 
        3.70712       0.0272695       0.0281735 
        3.72284       0.0269508       0.0278829 
        3.73853       0.0266332       0.0275969 
        3.75422       0.0265207       0.0273148 
        3.76993       0.0261393       0.0270364 
        3.78564       0.0259386       0.0267621 
        3.80137       0.0256933       0.0264911 
        3.81707       0.0253745       0.0262245 
        3.83279       0.0252165       0.0259614 
        3.84853        0.025009       0.0257015 
        3.86424       0.0247678       0.0254457 
        3.87992        0.024556       0.0251937 
        3.89561       0.0243744       0.0249452 
        3.91134       0.0241507       0.0246995 
        3.92704       0.0238423       0.0244575 
        3.94273       0.0236604       0.0242189 
        3.95845       0.0235138       0.0239832 
        3.97418       0.0233209       0.0237505 
        3.98988       0.0230686       0.0235213 
        4.00554        0.022811       0.0232957 
        4.02125       0.0225506       0.0230725 
        4.03698       0.0223454       0.0228518 
        4.05268       0.0220598       0.0226346 
        4.06839        0.021742         0.02242 
         4.0841        0.021499       0.0222083 
        4.09983       0.0211994       0.0219991 
        4.11555       0.0210325       0.0217927 
        4.13124       0.0207552       0.0215895 
        4.14693       0.0204221       0.0213887 
        4.16266        0.020232       0.0211901 
        4.17839       0.0200192       0.0209941 
        4.19408       0.0198429        0.020801 
        4.20977       0.0196025       0.0206103 
        4.22551       0.0193334       0.0204215 
        4.24123       0.0191663       0.0202354 
        4.25691       0.0189959        0.020052 
        4.27259       0.0188102       0.0198709 
        4.28831       0.0186992       0.0196917 
        4.30404       0.0184958       0.0195145 
        4.31974       0.0182995       0.0193399 
        4.33543       0.0181788       0.0191676 
        4.35116       0.0180203        0.018997 
        4.36688       0.0178853       0.0188285 
        4.38255       0.0177291       0.0186627 
        4.39825       0.0176633       0.0184985 
        4.41398       0.0176189       0.0183361 
         4.4297       0.0174642       0.0181757 
        4.44541       0.0173653       0.0180173 
        4.46111       0.0172351       0.0178609 
        4.47683       0.0171899       0.0177063 
        4.49251       0.0170681       0.0175539 
        4.50819       0.0170025       0.0174033 
         4.5239        0.016932       0.0172542 
        4.53962       0.0169159       0.0171067 
        4.55535       0.0168756       0.0169609 
        4.57106       0.0168657        0.016817 
        4.58678       0.0167737       0.0166748 
         4.6025        0.016789       0.0165342 
        4.61821       0.0167915       0.0163952 
        4.63391       0.0167386        0.016258 
         4.6496       0.0167096       0.0161225 
        4.66532       0.0166971       0.0159883 
        4.68103       0.0167198       0.0158557 
        4.69673       0.0167445       0.0157247 
        4.71241       0.0168296       0.0155954 
        4.72811        0.016793       0.0154673 
        4.74384       0.0168142       0.0153405 
        4.75955       0.0169046       0.0152153 
        4.77525       0.0169587       0.0150916 
        4.79096       0.0170355       0.0149691 
        4.80669       0.0170075       0.0148479 
         4.8224       0.0171748       0.0147282 
        4.83809       0.0172032         0.01461 
        4.85379       0.0173606        0.014493 
         4.8695       0.0173617       0.0143772 
        4.88521       0.0174669       0.0142627 
        4.90093       0.0176354       0.0141495 
        4.91663       0.0177895       0.0140376 
        4.93234       0.0178674       0.0139268 
        4.94807       0.0179624       0.0138171 
        4.96377       0.0181298       0.0137089 
        4.97943       0.0183121        0.013602 
        4.99514       0.0184576        0.013496 
        5.01086       0.0185205        0.013391 
        5.02654        0.018781       0.0132875 
        5.04227       0.0189442       0.0131847 
          5.058       0.0191311        0.013083 
        5.07371         0.01932       0.0129825 
        5.08942       0.0196941       0.0128831 
        5.10513       0.0198368       0.0127848 
        5.12084       0.0199257       0.0126874 
        5.13656       0.0202424       0.0125911 
        5.15225       0.0204781       0.0124959 
        5.16796       0.0208447       0.0124016 
        5.18369       0.0209794       0.0123082 
         5.1994       0.0212806       0.0122159 
        5.21509       0.0215781       0.0121246 
        5.23079        0.021764       0.0120342 
        5.24649       0.0221292       0.0119448 
        5.26217       0.0224495       0.0118563 
        5.27788       0.0227869       0.0117686 
        5.29359       0.0231254       0.0116818 
        5.30933       0.0234082       0.0115958 
        5.32504       0.0237673       0.0115108 
        5.34073        0.024297       0.0114267 
        5.35646         0.02457       0.0113433 
        5.37218       0.0249602       0.0112607 
        5.38789       0.0254587       0.0111791 
        5.40357       0.0258469       0.0110984 
        5.41929       0.0261847       0.0110183 
        5.43502       0.0267591        0.010939 
         5.4507       0.0271232       0.0108607 
        5.46639       0.0277067       0.0107831 
        5.48212       0.0279524       0.0107061 
        5.49786       0.0285721       0.0106298 
        5.51353       0.0292463       0.0105546 
        5.52921       0.0297552       0.0104801 
        5.54495        0.030319        0.010406 
        5.56066        0.030923       0.0103328 
        5.57637       0.0315104       0.0102603 
        5.59207        0.031976       0.0101885 
        5.60778       0.0327255       0.0101175 
        5.62346       0.0333435       0.0100472 
        5.63916       0.0338821      0.00997746 
        5.65487        0.034639       0.0099084 
         5.6706       0.0351713       0.0098399 
        5.68633       0.0360859      0.00977204 
        5.70203       0.0368379      0.00970496 
        5.71773       0.0376322      0.00963852 
        5.73344       0.0383189      0.00957268 
        5.74916       0.0393117      0.00950739 
        5.76486       0.0400192       0.0094428 
        5.78054       0.0406945      0.00937892 
        5.79626       0.0417355      0.00931546 
          5.812       0.0425127      0.00925252 
         5.8277       0.0437227      0.00919035 
        5.84339        0.044378      0.00912875 
        5.85911       0.0454686      0.00906761 
        5.87484       0.0465063      0.00900703 
        5.89053       0.0476244      0.00894714 
        5.90623       0.0486301      0.00888777 
        5.92195       0.0498772      0.00882883 
        5.93767       0.0509703      0.00877047 
        5.95336       0.0521377      0.00871273 
        5.96905       0.0532432      0.00865554 
        5.98476       0.0541259      0.00859878 
        6.00048       0.0556284      0.00854252 
        6.01617       0.0567957      0.00848684 
        6.03185        0.058057      0.00843172 
        6.04756       0.0598013      0.00837697 
        6.06331       0.0611856      0.00832259 
        6.07903       0.0625029       0.0082688 
        6.09473        0.064183      0.00821555 
        6.11044       0.0659127      0.00816272 
        6.12616       0.0674272      0.00811037 
        6.14186       0.0688839      0.00805853 
        6.15755       0.0705517      0.00800715 
        6.17326       0.0718134      0.00795618 
        6.18898       0.0740417      0.00790563 
        6.20467       0.0760204      0.00785562 
        6.22036       0.0780041      0.00780604 
         6.2361       0.0793843      0.00775676 
         6.2518       0.0821798      0.00770799 
        6.26748         0.08332      0.00765975 
        6.28319       0.0862749      0.00761179 
        6.29893       0.0884966       0.0075642 
        6.31463         0.09038      0.00751711 
        6.33033       0.0925784      0.00747043 
        6.34604       0.0948023      0.00742412 
        6.36177       0.0976016      0.00737815 
        6.37747       0.0995077      0.00733267 
