# k  (h/Mpc)    Pcb(k)  (Mpc/h)^3    Pcb_linear(k) (Mpc/h)^3   ShotnoiseSubtracted = true
      0.0200456         27793.9         28366.4 
      0.0350414         21245.7         20570.1 
      0.0492313         14418.5         14848.6 
      0.0637834         11746.2         12508.5 
      0.0800726         9320.77         10093.1 
       0.096163         7542.65         7280.77 
       0.111083         6109.07         5760.73 
       0.126058         5075.33         5163.76 
       0.142273         4511.83         4446.99 
       0.158546         3695.62         3503.73 
        0.17375         3336.79         2925.94 
       0.188953         3209.06         2665.43 
       0.204907         2772.09         2392.87 
       0.220756         2525.83         2028.95 
        0.23588         2255.42         1752.75 
         0.2514         2062.54         1594.47 
       0.267535         1979.19         1457.64 
       0.283568         1787.25         1291.35 
       0.299022         1700.46         1146.99 
       0.314451         1775.37         1047.73 
       0.330372         1609.07         966.877 
       0.346141          1481.9          881.85 
       0.361624         1418.01         801.339 
       0.377134         1372.49         736.911 
       0.392932         1295.92         683.921 
       0.408854         1254.19         632.918 
       0.424564         1228.27         584.234 
       0.440253         1157.75         541.744 
       0.455999         1105.97         505.588 
       0.471626         1113.69         472.797 
        0.48727         1059.23         441.579 
       0.502856         1037.26         413.201 
       0.518488         991.243         387.961 
       0.534347         963.146         364.747 
       0.550082         924.354         343.248 
       0.565732         902.812         323.404 
       0.581496         882.596         305.185 
       0.597222         873.275         288.562 
       0.612804         847.223         273.256 
       0.628434         816.031         258.949 
       0.644267         795.555         245.508 
       0.660051         784.687         233.131 
       0.675724         773.507         221.714 
       0.691403         741.204         211.055 
       0.707174         725.939         201.038 
       0.722871          723.28         191.712 
        0.73838          697.97          183.08 
       0.754018         690.107         174.917 
       0.769845         675.385         167.164 
        0.78569         659.658         159.878 
       0.801365         642.365         153.101 
       0.817031          632.48         146.726 
       0.832809         618.894         140.677 
       0.848511         605.598         135.002 
       0.864097         598.526         129.683 
       0.879701         600.131          124.65 
       0.895507         578.238         119.828 
       0.911279         573.375         115.274 
        0.92691         561.441         110.998 
       0.942635         551.151         106.918 
       0.958396         542.529         103.037 
       0.974128          530.18         99.3586 
       0.989692         520.379         95.8979 
        1.00528         510.833         92.5988 
        1.02113         500.842          89.405 
        1.03692         493.621         86.3752 
        1.05264         488.526         83.5014 
        1.06832         477.974         80.7642 
        1.08405         473.078         78.1438 
        1.09979         461.655         75.6393 
        1.11537         452.444         73.2707 
        1.13105          445.62         70.9904 
        1.14679         438.513         68.7994 
        1.16256         434.615         66.6977 
        1.17828         427.303         64.6916 
        1.19395         419.338         62.7757 
         1.2097         410.112         60.9284 
        1.22537         406.001         59.1652 
          1.241         397.153         57.4779 
        1.25666         391.407         55.8529 
        1.27241          389.91         54.2838 
        1.28819           379.4         52.7729 
        1.30392         375.459         51.3246 
        1.31957         368.302         49.9376 
        1.33529         364.198         48.5974 
        1.35108          363.75         47.3016 
        1.36674          353.61         46.0628 
         1.3824         345.454         44.8699 
        1.39811         342.865         43.7158 
        1.41389         338.265         42.5982 
        1.42964         331.579          41.522 
        1.44531         326.593         40.4887 
        1.46101          317.72         39.4886 
        1.47667         317.346         38.5257 
        1.49229         313.551         37.5977 
        1.50793         305.713         36.6996 
        1.52367         301.678         35.8253 
        1.53953          297.56         34.9739 
        1.55526         291.376         34.1573 
        1.57092         288.764         33.3703 
        1.58662         283.935         32.6065 
        1.60235         279.103         31.8654 
        1.61809          276.15         31.1471 
        1.63369         271.115         30.4576 
        1.64941         268.339         29.7842 
        1.66519         264.031         29.1289 
        1.68085         258.906         28.4982 
        1.69652         255.577         27.8861 
        1.71228         251.961         27.2888 
        1.72806         248.467         26.7086 
        1.74368         244.919         26.1512 
        1.75933         242.433         25.6088 
        1.77505         237.792         25.0794 
        1.79081         234.638         24.5641 
         1.8065         232.655         24.0657 
        1.82218         227.071         23.5816 
        1.83797         224.986         23.1077 
        1.85367         221.215         22.6495 
        1.86928         217.326         22.2066 
        1.88497         214.575         21.7732 
        1.90073         212.963         21.3499 
        1.91647         209.215         20.9384 
        1.93218         205.836         20.5386 
        1.94787         202.364           20.15 
        1.96363         201.077           19.77 
        1.97935         196.349         19.4006 
        1.99499         195.551         19.0429 
        2.01064         190.503         18.6937 
         2.0264         189.383         18.3512 
        2.04216         185.978         18.0174 
        2.05781         183.711         17.6942 
        2.07353         182.452         17.3778 
        2.08928         180.158         17.0685 
        2.10499         176.998         16.7677 
        2.12065         174.799          16.475 
        2.13633         172.104         16.1892 
        2.15211         170.143         15.9083 
        2.16785         168.093          15.635 
        2.18349         164.837         15.3698 
        2.19916         164.815         15.1103 
        2.21489         160.941         14.8559 
        2.23063         159.104         14.6073 
         2.2463         157.298         14.3656 
        2.26194         155.347         14.1299 
        2.27765         153.522         13.8984 
        2.29341         151.295         13.6715 
        2.30914         149.276         13.4502 
        2.32486         147.614         13.2339 
        2.34061         145.071         13.0221 
        2.35635          142.95         12.8152 
        2.37203          142.76         12.6135 
        2.38768         140.015         12.4165 
        2.40339         138.013         12.2231 
        2.41914         136.643         12.0335 
        2.43483         135.045         11.8485 
         2.4505         133.508         11.6678 
        2.46622          131.58         11.4902 
        2.48195         129.661         11.3164 
        2.49759         128.095         11.1471 
        2.51328         126.443         10.9808 
        2.52906         125.147         10.8169 
        2.54479         123.637          10.657 
        2.56049          121.99         10.5007 
        2.57618         120.751         10.3477 
        2.59189         119.418         10.1975 
        2.60758         118.582         10.0505 
        2.62325         116.542         9.90668 
        2.63898         114.426         9.76516 
        2.65468         113.619         9.62672 
        2.67044         112.437          9.4904 
        2.68618         110.843         9.35705 
        2.70184         109.878         9.22681 
        2.71755         107.883         9.09874 
        2.73329         107.182         8.97293 
        2.74897         105.262         8.84993 
        2.76462         104.377         8.72952 
        2.78034         103.229         8.61087 
        2.79607         102.279         8.49431 
        2.81179         100.947         8.38006 
        2.82749         99.7763         8.26806 
        2.84321         98.3419           8.158 
        2.85893         97.4804         8.04998 
        2.87462         95.9049         7.94412 
        2.89033         95.2038         7.84009 
        2.90605          93.932         7.73783 
        2.92176          92.466         7.63747 
        2.93747         92.0228         7.53895 
        2.95318         90.8272         7.44216 
        2.96891         89.9273         7.34704 
        2.98456          88.696         7.25401 
        3.00023         87.8855         7.16248 
        3.01596         86.7341         7.07224 
        3.03164         86.1315         6.98383 
        3.04738         85.0458         6.89669 
         3.0631         84.2059         6.81107 
        3.07883         83.1456         6.72691 
        3.09456         82.3321         6.64419 
        3.11026         81.5302         6.56301 
        3.12596         80.4295          6.4832 
        3.14163         79.4401         6.40491 
        3.15734         78.6789         6.32774 
        3.17308         77.7625         6.25166 
        3.18879         77.0989         6.17705 
        3.20447         76.0533         6.10378 
         3.2202         75.3644         6.03148 
         3.2359         74.9312         5.96048 
        3.25157         74.0163          5.8908 
        3.26729         73.2663         5.82204 
        3.28304         72.2904         5.75424 
        3.29877         71.7225         5.68763 
        3.31446         71.0697         5.62221 
        3.33014         70.3693          5.5579 
        3.34585          69.661         5.49449 
        3.36158         68.7946         5.43199 
        3.37727         68.0182         5.37066 
        3.39294         67.4494         5.31034 
        3.40867         66.7347         5.25074 
        3.42439          65.634         5.19209 
        3.44008         65.1759         5.13446 
        3.45578         64.7586         5.07767 
        3.47153         63.9915         5.02161 
        3.48724         63.4304         4.96651 
        3.50292         62.9871         4.91236 
        3.51859         62.2239         4.85906 
        3.53431         61.4501         4.80638 
        3.55007         60.9632         4.75437 
        3.56577         60.4069         4.70333 
        3.58146         59.6611         4.65307 
        3.59719         59.2356         4.60343 
        3.61292         58.6856         4.55454 
        3.62859         58.0398         4.50655 
        3.64429          57.548         4.45916 
        3.66003         57.0174         4.41232 
        3.67578         56.3931         4.36617 
        3.69146         55.9274         4.32085 
        3.70712         55.1467         4.27627 
        3.72284         54.8451         4.23215 
        3.73853         54.2481         4.18874 
        3.75422         53.7876         4.14593 
        3.76993         53.2737         4.10368 
        3.78564         52.7291         4.06204 
        3.80137         52.2816         4.02091 
        3.81707          51.687         3.98045 
        3.83279         51.1402         3.94051 
        3.84853         50.8775         3.90106 
        3.86424         50.4983         3.86223 
        3.87992         49.8242         3.82398 
        3.89561          49.482         3.78626 
        3.91134          49.026         3.74898 
        3.92704         48.5145         3.71224 
        3.94273         47.8934         3.67603 
        3.95845         47.4936         3.64025 
        3.97418         47.2022         3.60493 
        3.98988          46.647         3.57014 
        4.00554         46.2456          3.5359 
        4.02125         45.6829         3.50201 
        4.03698         45.4242         3.46853 
        4.05268         44.9733         3.43555 
        4.06839          44.685         3.40299 
         4.0841         44.2067         3.37086 
        4.09983         43.8179          3.3391 
        4.11555         43.3337         3.30777 
        4.13124         43.0068         3.27692 
        4.14693         42.5494         3.24645 
        4.16266         42.4472          3.2163 
        4.17839         41.9368         3.18655 
        4.19408          41.589         3.15724 
        4.20977         41.1155          3.1283 
        4.22551         40.7227         3.09965 
        4.24123          40.372         3.07139 
        4.25691         40.0684         3.04356 
        4.27259         39.7013         3.01607 
        4.28831         39.3865         2.98887 
        4.30404         39.0761         2.96198 
        4.31974         38.7015         2.93548 
        4.33543         38.3065         2.90932 
        4.35116         38.0464         2.88342 
        4.36688         37.7382         2.85785 
        4.38255         37.4458         2.83269 
        4.39825         37.0374         2.80777 
        4.41398         36.8253         2.78311 
         4.4297         36.3895         2.75877 
        4.44541         36.0916         2.73473 
        4.46111         35.9431         2.71099 
        4.47683         35.5281         2.68753 
        4.49251          35.256         2.66439 
        4.50819         35.0224         2.64152 
         4.5239         34.7204          2.6189 
        4.53962         34.4086         2.59652 
        4.55535         34.1008         2.57438 
        4.57106         33.7516         2.55254 
        4.58678         33.4652         2.53095 
         4.6025         33.1629         2.50961 
        4.61821         32.8781         2.48852 
        4.63391           32.67         2.46769 
         4.6496         32.4189         2.44712 
        4.66532         32.1492         2.42675 
        4.68103         31.8753         2.40663 
        4.69673         31.5323         2.38675 
        4.71241         31.3955         2.36711 
        4.72811         31.1499         2.34767 
        4.74384         30.8026         2.32842 
        4.75955         30.6387         2.30942 
        4.77525         30.3524         2.29065 
        4.79096         30.0991         2.27206 
        4.80669         29.8351         2.25367 
         4.8224         29.6806          2.2355 
        4.83809         29.3626         2.21756 
        4.85379         29.1536          2.1998 
         4.8695         28.8909         2.18222 
        4.88521         28.6507         2.16485 
        4.90093         28.4581         2.14766 
        4.91663         28.2874         2.13068 
        4.93234         27.9605         2.11386 
        4.94807         27.8087         2.09721 
        4.96377         27.6312         2.08078 
        4.97943         27.3221         2.06455 
        4.99514         27.0902         2.04846 
        5.01086         26.8777         2.03253 
        5.02654         26.6356         2.01681 
        5.04227         26.4609         2.00122 
          5.058         26.3024         1.98578 
        5.07371         26.0422         1.97053 
        5.08942         25.9213         1.95545 
        5.10513         25.6565         1.94052 
        5.12084         25.5267         1.92574 
        5.13656         25.3184         1.91112 
        5.15225         25.1299         1.89667 
        5.16796         24.8594         1.88236 
        5.18369          24.688         1.86817 
         5.1994         24.5235         1.85417 
        5.21509         24.3218         1.84031 
        5.23079         24.1189         1.82659 
        5.24649         23.9092         1.81302 
        5.26217         23.7699         1.79959 
        5.27788         23.5252         1.78628 
        5.29359         23.3308         1.77311 
        5.30933         23.2422         1.76005 
        5.32504         23.1083         1.74714 
        5.34073         22.9227         1.73438 
        5.35646         22.7552         1.72172 
        5.37218         22.5289         1.70919 
        5.38789         22.3465          1.6968 
        5.40357         22.1852         1.68455 
        5.41929         22.0515         1.67239 
        5.43502         21.8259         1.66036 
         5.4507          21.717         1.64847 
        5.46639         21.5219          1.6367 
        5.48212         21.3605         1.62501 
        5.49786         21.1836         1.61343 
        5.51353         21.0624         1.60201 
        5.52921         20.8931          1.5907 
        5.54495         20.7359         1.57946 
        5.56066          20.596         1.56835 
        5.57637         20.4671         1.55734 
        5.59207         20.3165         1.54645 
        5.60778         20.1897         1.53566 
        5.62346         20.0073         1.52499 
        5.63916         19.8272         1.51441 
        5.65487         19.6806         1.50393 
         5.6706         19.5576         1.49353 
        5.68633          19.378         1.48323 
        5.70203         19.2909         1.47305 
        5.71773         19.1451         1.46297 
        5.73344         18.9817         1.45297 
        5.74916         18.8683         1.44306 
        5.76486         18.7143         1.43326 
        5.78054         18.5785         1.42356 
        5.79626         18.4574         1.41393 
          5.812         18.3372         1.40438 
         5.8277         18.2153         1.39494 
        5.84339         18.0325         1.38559 
        5.85911         17.9292         1.37631 
        5.87484         17.8201         1.36712 
        5.89053         17.6782         1.35803 
        5.90623         17.5509         1.34901 
        5.92195         17.4383         1.34007 
        5.93767         17.2834         1.33121 
        5.95336         17.2081         1.32245 
        5.96905         17.0583         1.31377 
        5.98476         16.9379         1.30515 
        6.00048         16.8162         1.29661 
        6.01617         16.6753         1.28816 
        6.03185         16.6027         1.27979 
        6.04756         16.4762         1.27148 
        6.06331         16.3737         1.26323 
        6.07903         16.2657         1.25507 
        6.09473         16.1126         1.24698 
        6.11044         16.0025         1.23896 
        6.12616          15.929         1.23102 
        6.14186         15.7886         1.22315 
        6.15755         15.7198         1.21535 
        6.17326         15.5993         1.20762 
        6.18898         15.4766         1.19994 
        6.20467         15.3546         1.19235 
        6.22036         15.3015         1.18483 
         6.2361         15.1671         1.17735 
         6.2518         15.0549         1.16994 
        6.26748         14.9603         1.16262 
        6.28319          14.849         1.15534 
        6.29893         14.7436         1.14812 
        6.31463         14.6559         1.14097 
        6.33033          14.538         1.13389 
        6.34604         14.4544         1.12686 
        6.36177         14.3678         1.11988 
        6.37747         14.2617         1.11298 
