# k  (h/Mpc)    Pcb(k)  (Mpc/h)^3    Pcb_linear(k) (Mpc/h)^3   ShotnoiseSubtracted = true
      0.0200456         27004.1         27554.6 
      0.0350414         20633.3         19981.3 
      0.0492313         14018.5         14423.6 
      0.0637834         11421.6         12150.5 
      0.0800726         9065.79         9804.17 
       0.096163         7325.88         7072.38 
       0.111083         5933.68         5595.85 
       0.126058          4929.7         5015.97 
       0.142273         4379.93         4319.71 
       0.158546         3588.14         3403.45 
        0.17375         3234.26         2842.19 
       0.188953         3105.64         2589.14 
       0.204907         2683.03         2324.38 
       0.220756          2442.6         1970.88 
        0.23588         2180.66         1702.58 
         0.2514         1992.23         1548.83 
       0.267535         1913.31         1415.92 
       0.283568         1725.14         1254.39 
       0.299022         1641.96         1114.16 
       0.314451         1714.52         1017.74 
       0.330372         1549.34         939.204 
       0.346141          1425.6          856.61 
       0.361624         1365.14         778.404 
       0.377134         1319.64         715.819 
       0.392932         1247.83         664.346 
       0.408854         1206.16         614.803 
       0.424564         1181.41         567.512 
       0.440253         1110.98         526.238 
       0.455999         1061.64         491.118 
       0.471626         1071.02         459.264 
        0.48727         1017.32          428.94 
       0.502856           993.9         401.375 
       0.518488         951.458         376.857 
       0.534347         923.581         354.308 
       0.550082         884.895         333.423 
       0.565732         865.508         314.147 
       0.581496         846.332         296.451 
       0.597222          836.34         280.303 
       0.612804         812.133         265.435 
       0.628434         781.568         251.538 
       0.644267         761.587         238.481 
       0.660051         751.968         226.459 
       0.675724         740.492         215.368 
       0.691403          710.52         205.014 
       0.707174         695.214         195.284 
       0.722871         692.216         186.225 
        0.73838         669.285          177.84 
       0.754018         660.586          169.91 
       0.769845         647.321          162.38 
        0.78569          632.39         155.302 
       0.801365         615.101         148.719 
       0.817031         606.235         142.526 
       0.832809         593.667         136.651 
       0.848511         582.063         131.138 
       0.864097         574.467         125.972 
       0.879701         576.054         121.082 
       0.895507          554.13         116.398 
       0.911279          549.54         111.975 
        0.92691         538.445         107.821 
       0.942635         529.185         103.858 
       0.958396         519.603         100.088 
       0.974128         508.766         96.5148 
       0.989692         498.447         93.1531 
        1.00528         489.995         89.9485 
        1.02113          480.67          86.846 
        1.03692         473.827          83.903 
        1.05264         468.741         81.1114 
        1.06832         458.065         78.4526 
        1.08405         454.308         75.9072 
        1.09979         443.135         73.4744 
        1.11537         434.296         71.1735 
        1.13105         427.762         68.9585 
        1.14679         420.705         66.8303 
        1.16256         417.368         64.7887 
        1.17828         410.399           62.84 
        1.19395         402.368         60.9789 
         1.2097         394.162         59.1845 
        1.22537         389.898         57.4718 
          1.241         381.482         55.8328 
        1.25666         376.627         54.2543 
        1.27241         374.505         52.7301 
        1.28819         364.115         51.2625 
        1.30392         360.986         49.8556 
        1.31957         354.039         48.5083 
        1.33529         349.708         47.2065 
        1.35108         349.108         45.9477 
        1.36674         339.272         44.7444 
         1.3824         331.795         43.5857 
        1.39811         328.936         42.4646 
        1.41389         324.214          41.379 
        1.42964          318.32         40.3336 
        1.44531         313.113         39.3298 
        1.46101         305.102         38.3584 
        1.47667         304.776          37.423 
        1.49229         300.782         36.5216 
        1.50793         293.721         35.6492 
        1.52367         289.286         34.7999 
        1.53953         285.726         33.9729 
        1.55526         279.989         33.1796 
        1.57092         277.342         32.4152 
        1.58662          272.28         31.6733 
        1.60235         267.951         30.9533 
        1.61809         265.396         30.2556 
        1.63369         260.252         29.5858 
        1.64941         257.553         28.9317 
        1.66519         253.318         28.2952 
        1.68085           248.7         27.6825 
        1.69652         245.384          27.088 
        1.71228         241.749         26.5077 
        1.72806         238.464         25.9441 
        1.74368         234.836         25.4027 
        1.75933         232.407         24.8758 
        1.77505         228.079         24.3616 
        1.79081         225.237          23.861 
         1.8065         223.462         23.3769 
        1.82218         217.934         22.9067 
        1.83797         215.989         22.4463 
        1.85367         212.371         22.0012 
        1.86928         208.526          21.571 
        1.88497         206.051           21.15 
        1.90073         204.549         20.7389 
        1.91647          200.98         20.3391 
        1.93218         197.654         19.9508 
        1.94787         194.113         19.5733 
        1.96363         192.944         19.2041 
        1.97935         189.066         18.8453 
        1.99499         187.839         18.4978 
        2.01064         182.951         18.1586 
         2.0264         182.063         17.8259 
        2.04216         178.696         17.5017 
        2.05781         176.724         17.1878 
        2.07353         175.426         16.8804 
        2.08928         173.411           16.58 
        2.10499         169.969         16.2878 
        2.12065         168.062         16.0035 
        2.13633          165.47         15.7258 
        2.15211         163.581          15.453 
        2.16785         161.611         15.1875 
        2.18349         158.717         14.9299 
        2.19916         158.538         14.6778 
        2.21489         154.654         14.4307 
        2.23063         152.979         14.1892 
         2.2463         151.283         13.9544 
        2.26194         149.448         13.7255 
        2.27765         147.431         13.5006 
        2.29341         145.536         13.2802 
        2.30914          143.46         13.0652 
        2.32486         142.005         12.8552 
        2.34061          139.54         12.6494 
        2.35635         137.503         12.4484 
        2.37203         137.005         12.2524 
        2.38768         134.729         12.0612 
        2.40339         132.909         11.8733 
        2.41914         131.221          11.689 
        2.43483         129.822         11.5094 
         2.4505         128.331         11.3338 
        2.46622         126.359         11.1613 
        2.48195         124.691         10.9925 
        2.49759         122.931          10.828 
        2.51328         121.614         10.6665 
        2.52906         120.338         10.5073 
        2.54479         118.776          10.352 
        2.56049          117.17         10.2002 
        2.57618         116.122         10.0515 
        2.59189          114.91         9.90562 
        2.60758         113.828         9.76287 
        2.62325         111.789         9.62313 
        2.63898         109.868         9.48567 
        2.65468         109.063         9.35119 
        2.67044         107.966         9.21877 
        2.68618         106.408         9.08923 
        2.70184          105.49         8.96272 
        2.71755         103.537         8.83832 
        2.73329         102.725         8.71611 
        2.74897         101.162         8.59663 
        2.76462         100.253         8.47966 
        2.78034         99.2322         8.36441 
        2.79607         98.1695         8.25119 
        2.81179         96.9364         8.14021 
        2.82749         95.9019         8.03142 
        2.84321         94.4086          7.9245 
        2.85893         93.4633         7.81958 
        2.87462         92.1694         7.71675 
        2.89033         91.3503         7.61569 
        2.90605         90.1938         7.51636 
        2.92176         88.8461         7.41887 
        2.93747         88.3781         7.32317 
        2.95318         87.1516         7.22916 
        2.96891         86.4732         7.13676 
        2.98456         85.0267         7.04639 
        3.00023         84.3228         6.95747 
        3.01596         83.4457         6.86982 
        3.03164         82.6238         6.78394 
        3.04738          81.695         6.69929 
         3.0631         80.9518         6.61612 
        3.07883         79.8676         6.53437 
        3.09456         78.9506         6.45403 
        3.11026         78.3619         6.37516 
        3.12596         77.2408         6.29764 
        3.14163         76.3552         6.22159 
        3.15734         75.5738         6.14663 
        3.17308         74.7439         6.07273 
        3.18879          74.031         6.00026 
        3.20447         73.2145         5.92908 
         3.2202          72.444         5.85885 
         3.2359          71.969         5.78988 
        3.25157         71.2067          5.7222 
        3.26729         70.3538          5.6554 
        3.28304         69.4344         5.58955 
        3.29877         68.8652         5.52484 
        3.31446         68.3002          5.4613 
        3.33014         67.5558         5.39882 
        3.34585         66.9031         5.33723 
        3.36158         66.1221         5.27652 
        3.37727         65.2996         5.21694 
        3.39294         64.7951         5.15835 
        3.40867         64.0599         5.10046 
        3.42439         63.0145         5.04349 
        3.44008         62.6135          4.9875 
        3.45578         62.2831         4.93233 
        3.47153         61.5604         4.87788 
        3.48724         60.9276         4.82436 
        3.50292         60.5131         4.77176 
        3.51859         59.7483         4.71998 
        3.53431          59.075         4.66882 
        3.55007         58.5604         4.61829 
        3.56577         58.0696         4.56871 
        3.58146         57.3327         4.51989 
        3.59719         56.9369         4.47168 
        3.61292         56.3901         4.42419 
        3.62859         55.7925         4.37757 
        3.64429          55.346         4.33154 
        3.66003         54.7528         4.28603 
        3.67578         54.1597          4.2412 
        3.69146         53.6777         4.19718 
        3.70712         52.9096         4.15388 
        3.72284         52.5777         4.11102 
        3.73853         52.0718         4.06885 
        3.75422         51.6096         4.02726 
        3.76993         51.1474         3.98622 
        3.78564         50.5827         3.94578 
        3.80137         50.0877         3.90583 
        3.81707         49.6168         3.86652 
        3.83279         49.1389         3.82772 
        3.84853         48.7835          3.7894 
        3.86424         48.4205         3.75168 
        3.87992         47.7716         3.71454 
        3.89561         47.4826         3.67789 
        3.91134         46.9757         3.64167 
        3.92704         46.5014         3.60599 
        3.94273         45.9904         3.57082 
        3.95845         45.6068         3.53606 
        3.97418         45.2368         3.50175 
        3.98988          44.761         3.46795 
        4.00554          44.321          3.4347 
        4.02125         43.7495         3.40178 
        4.03698         43.5643         3.36925 
        4.05268         43.1354         3.33722 
        4.06839          42.797         3.30559 
         4.0841         42.4644         3.27438 
        4.09983         42.0587         3.24353 
        4.11555         41.6249         3.21309 
        4.13124         41.2708         3.18313 
        4.14693         40.8995         3.15353 
        4.16266         40.6928         3.12424 
        4.17839         40.2042         3.09534 
        4.19408         39.8659         3.06688 
        4.20977         39.4204         3.03876 
        4.22551         39.0506         3.01093 
        4.24123         38.7687         2.98348 
        4.25691         38.3862         2.95645 
        4.27259         38.0955         2.92975 
        4.28831         37.7683         2.90332 
        4.30404         37.4573          2.8772 
        4.31974         37.1101         2.85146 
        4.33543         36.7631         2.82605 
        4.35116         36.4549         2.80089 
        4.36688         36.1866         2.77605 
        4.38255         35.9042         2.75161 
        4.39825         35.5566         2.72741 
        4.41398         35.3122         2.70345 
         4.4297         34.8898         2.67981 
        4.44541         34.6199         2.65646 
        4.46111          34.433          2.6334 
        4.47683         34.0908          2.6106 
        4.49251         33.8163         2.58813 
        4.50819         33.5515         2.56592 
         4.5239          33.245         2.54394 
        4.53962         32.9499          2.5222 
        4.55535         32.6388          2.5007 
        4.57106         32.3547         2.47949 
        4.58678         32.0382         2.45851 
         4.6025         31.8075         2.43778 
        4.61821          31.535         2.41729 
        4.63391         31.3188         2.39706 
         4.6496         31.0484         2.37708 
        4.66532         30.8234         2.35729 
        4.68103         30.5719         2.33774 
        4.69673         30.2414         2.31843 
        4.71241            30.1         2.29936 
        4.72811         29.8272         2.28048 
        4.74384         29.5771         2.26178 
        4.75955         29.3569         2.24332 
        4.77525         29.0909         2.22508 
        4.79096         28.8531         2.20703 
        4.80669         28.6386         2.18916 
         4.8224         28.4246         2.17152 
        4.83809         28.1509         2.15409 
        4.85379         27.8842         2.13684 
         4.8695         27.6824         2.11976 
        4.88521           27.44         2.10289 
        4.90093         27.2343         2.08619 
        4.91663         27.1135         2.06969 
        4.93234         26.7907         2.05336 
        4.94807          26.664         2.03719 
        4.96377         26.4104         2.02122 
        4.97943         26.2133         2.00546 
        4.99514         25.9501         1.98983 
        5.01086         25.7864         1.97436 
        5.02654          25.515         1.95909 
        5.04227         25.3285         1.94394 
          5.058          25.261         1.92894 
        5.07371         24.9787         1.91413 
        5.08942         24.8264         1.89948 
        5.10513         24.6131         1.88498 
        5.12084         24.4472         1.87062 
        5.13656         24.2894         1.85642 
        5.15225         24.0608         1.84239 
        5.16796         23.8415         1.82848 
        5.18369         23.6813          1.8147 
         5.1994         23.4864          1.8011 
        5.21509         23.2937         1.78764 
        5.23079         23.0843         1.77431 
        5.24649         22.8974         1.76112 
        5.26217         22.7996         1.74808 
        5.27788           22.56         1.73516 
        5.29359         22.3822         1.72236 
        5.30933          22.244         1.70967 
        5.32504         22.1351         1.69714 
        5.34073         21.9667         1.68474 
        5.35646         21.8019         1.67244 
        5.37218         21.6141         1.66027 
        5.38789         21.4225         1.64823 
        5.40357         21.2531         1.63633 
        5.41929         21.1426         1.62453 
        5.43502         20.9268         1.61283 
         5.4507         20.8078         1.60129 
        5.46639         20.6309         1.58985 
        5.48212         20.4708          1.5785 
        5.49786         20.3389         1.56725 
        5.51353         20.1849         1.55616 
        5.52921         20.0303         1.54517 
        5.54495         19.8822         1.53426 
        5.56066         19.7489         1.52346 
        5.57637         19.6029         1.51277 
        5.59207         19.5031         1.50219 
        5.60778         19.3633         1.49171 
        5.62346         19.1649         1.48134 
        5.63916         19.0207         1.47107 
        5.65487         18.8611         1.46088 
         5.6706         18.7359         1.45079 
        5.68633         18.6031         1.44078 
        5.70203         18.4985         1.43089 
        5.71773         18.3775         1.42109 
        5.73344          18.222         1.41139 
        5.74916         18.1002         1.40176 
        5.76486         17.9504         1.39224 
        5.78054         17.8256         1.38282 
        5.79626         17.7237         1.37346 
          5.812         17.6343         1.36418 
         5.8277         17.4692         1.35502 
        5.84339         17.3193         1.34593 
        5.85911         17.1876         1.33692 
        5.87484         17.1128         1.32799 
        5.89053         16.9454         1.31916 
        5.90623         16.8511          1.3104 
        5.92195         16.7521         1.30171 
        5.93767         16.6032         1.29311 
        5.95336         16.5059          1.2846 
        5.96905         16.3668         1.27616 
        5.98476         16.2708          1.2678 
        6.00048         16.1381          1.2595 
        6.01617         16.0209         1.25129 
        6.03185         15.9241         1.24316 
        6.04756          15.815         1.23509 
        6.06331          15.706         1.22707 
        6.07903         15.5953         1.21914 
        6.09473          15.459         1.21129 
        6.11044         15.3762          1.2035 
        6.12616         15.2884         1.19578 
        6.14186         15.1475         1.18814 
        6.15755         15.1004         1.18057 
        6.17326          14.986         1.17305 
        6.18898         14.8695          1.1656 
        6.20467         14.7529         1.15822 
        6.22036          14.669         1.15092 
         6.2361         14.5737         1.14365 
         6.2518         14.4442         1.13646 
        6.26748          14.355         1.12935 
        6.28319         14.2578         1.12228 
        6.29893          14.154         1.11526 
        6.31463          14.068         1.10831 
        6.33033         13.9759         1.10143 
        6.34604         13.8754          1.0946 
        6.36177         13.7948         1.08783 
        6.37747         13.6958         1.08112 
