# k  (h/Mpc)    Pcb(k)  (Mpc/h)^3    Pcb_linear(k) (Mpc/h)^3   ShotnoiseSubtracted = true
      0.0200456         2878.18         2918.81 
      0.0350414         2151.97         2116.59 
      0.0492313         1530.14         1527.86 
      0.0637834         1265.27         1287.08 
      0.0800726         1015.98         1038.54 
       0.096163         765.263         749.166 
       0.111083         612.201         592.759 
       0.126058         527.551         531.333 
       0.142273         453.758         457.579 
       0.158546         366.651         360.522 
        0.17375         312.437         301.069 
       0.188953         283.349         274.263 
       0.204907         244.893         246.218 
       0.220756         216.205         208.772 
        0.23588         188.396         180.351 
         0.2514         170.452         164.065 
       0.267535         159.798         149.986 
       0.283568         140.595         132.876 
       0.299022          128.81         118.021 
       0.314451          122.01         107.807 
       0.330372         108.907         99.4883 
       0.346141         100.102         90.7392 
       0.361624         92.4204          82.455 
       0.377134         84.4427         75.8255 
       0.392932         82.0136          70.373 
       0.408854         75.5208          65.125 
       0.424564         72.1076         60.1156 
       0.440253         65.7767         55.7435 
       0.455999         60.3574         52.0232 
       0.471626         57.4171         48.6491 
        0.48727          55.859         45.4369 
       0.502856         52.0095          42.517 
       0.518488         49.0568         39.9198 
       0.534347         46.2925         37.5312 
       0.550082         44.5829          35.319 
       0.565732          42.996         33.2771 
       0.581496          40.296         31.4025 
       0.597222          38.293          29.692 
       0.612804          36.665          28.117 
       0.628434         35.9929          26.645 
       0.644267         34.0654         25.2619 
       0.660051         32.4689         23.9884 
       0.675724         31.0491         22.8136 
       0.691403         30.5055         21.7168 
       0.707174          29.334         20.6861 
       0.722871         28.3681         19.7265 
        0.73838         26.9414         18.8383 
       0.754018         25.6065         17.9983 
       0.769845         25.0518         17.2006 
        0.78569         24.2348         16.4509 
       0.801365         23.4096         15.7535 
       0.817031          22.561         15.0975 
       0.832809          21.988         14.4752 
       0.848511         21.2867         13.8912 
       0.864097         20.6356         13.3439 
       0.879701         20.3163          12.826 
       0.895507         19.5632         12.3299 
       0.911279         18.7869         11.8613 
        0.92691         18.4637         11.4213 
       0.942635         18.0359         11.0015 
       0.958396         17.4517         10.6022 
       0.974128         17.0153         10.2236 
       0.989692          16.302         9.86755 
        1.00528         16.2002         9.52809 
        1.02113         15.6756         9.19945 
        1.03692         15.3292          8.8877 
        1.05264         15.0043           8.592 
        1.06832          14.704         8.31035 
        1.08405         14.2967         8.04072 
        1.09979         13.9738         7.78302 
        1.11537         13.6291         7.53929 
        1.13105         13.4044         7.30466 
        1.14679          13.102         7.07922 
        1.16256         12.8283         6.86295 
        1.17828         12.5784         6.65653 
        1.19395          12.361         6.45939 
         1.2097         11.9844         6.26932 
        1.22537         11.7923         6.08789 
          1.241         11.5006         5.91427 
        1.25666         11.4476         5.74706 
        1.27241         11.2023         5.58561 
        1.28819         10.7619         5.43014 
        1.30392         10.7604         5.28112 
        1.31957         10.4915         5.13841 
        1.33529         10.3609          5.0005 
        1.35108         10.1561         4.86717 
        1.36674         9.91761          4.7397 
         1.3824         9.80077         4.61696 
        1.39811         9.63596          4.4982 
        1.41389         9.43511         4.38321 
        1.42964         9.31067         4.27247 
        1.44531         9.14118         4.16614 
        1.46101         9.03427         4.06324 
        1.47667         8.86239         3.96415 
        1.49229         8.65679         3.86867 
        1.50793         8.56722         3.77626 
        1.52367         8.42556          3.6863 
        1.53953         8.27505         3.59869 
        1.55526         8.18685         3.51466 
        1.57092         8.06657         3.43369 
        1.58662         7.93162         3.35509 
        1.60235         7.83293         3.27883 
        1.61809         7.73317         3.20493 
        1.63369         7.57626         3.13398 
        1.64941         7.47479         3.06469 
        1.66519         7.37902         2.99726 
        1.68085         7.25617         2.93236 
        1.69652         7.19621         2.86939 
        1.71228         7.11694         2.80792 
        1.72806         6.97531         2.74822 
        1.74368         6.91667         2.69087 
        1.75933         6.81694         2.63505 
        1.77505         6.68886         2.58058 
        1.79081         6.64691         2.52756 
         1.8065         6.58704         2.47627 
        1.82218         6.47633         2.42646 
        1.83797         6.36692          2.3777 
        1.85367         6.29123         2.33055 
        1.86928         6.24875         2.28498 
        1.88497         6.14451         2.24039 
        1.90073         6.07038         2.19683 
        1.91647         5.96421         2.15448 
        1.93218         5.92269         2.11335 
        1.94787         5.84541         2.07336 
        1.96363         5.78677         2.03426 
        1.97935         5.74529         1.99625 
        1.99499         5.66566         1.95944 
        2.01064          5.5977         1.92351 
         2.0264         5.53872         1.88827 
        2.04216         5.48196         1.85393 
        2.05781         5.41345         1.82067 
        2.07353         5.36103         1.78812 
        2.08928         5.26124         1.75629 
        2.10499         5.22406         1.72533 
        2.12065         5.23238         1.69522 
        2.13633         5.14618         1.66581 
        2.15211         5.06755         1.63691 
        2.16785         5.00744         1.60878 
        2.18349         4.99142          1.5815 
        2.19916         4.92557         1.55479 
        2.21489         4.87421         1.52862 
        2.23063         4.82246         1.50304 
         2.2463         4.76768         1.47817 
        2.26194         4.71192         1.45392 
        2.27765         4.64783          1.4301 
        2.29341         4.60044         1.40675 
        2.30914         4.56945         1.38398 
        2.32486         4.53303         1.36173 
        2.34061         4.49217         1.33993 
        2.35635         4.44399         1.31863 
        2.37203         4.42229         1.29788 
        2.38768         4.38605         1.27762 
        2.40339         4.31874         1.25772 
        2.41914         4.27877          1.2382 
        2.43483         4.23009         1.21917 
         2.4505         4.20019         1.20057 
        2.46622          4.1637          1.1823 
        2.48195         4.14343         1.16441 
        2.49759         4.08202         1.14699 
        2.51328         4.05242         1.12989 
        2.52906         4.01256         1.11302 
        2.54479         3.98062         1.09657 
        2.56049         3.94521         1.08049 
        2.57618         3.90882         1.06474 
        2.59189          3.9112         1.04929 
        2.60758         3.86224         1.03416 
        2.62325         3.79411         1.01936 
        2.63898         3.77912          1.0048 
        2.65468         3.74258        0.990556 
        2.67044         3.73231        0.976528 
        2.68618         3.70048        0.962807 
        2.70184         3.66625        0.949406 
        2.71755         3.61856        0.936229 
        2.73329          3.5967        0.923283 
        2.74897         3.56491        0.910626 
        2.76462         3.53241        0.898236 
        2.78034         3.51733        0.886027 
        2.79607         3.47923        0.874035 
        2.81179         3.45031        0.862279 
        2.82749         3.41499        0.850754 
        2.84321         3.40022        0.839429 
        2.85893         3.36538        0.828315 
        2.87462         3.34708        0.817422 
        2.89033         3.33001        0.806717 
        2.90605         3.29817        0.796196 
        2.92176         3.26048        0.785869 
        2.93747         3.24236        0.775731 
        2.95318         3.21582        0.765772 
        2.96891         3.20152        0.755984 
        2.98456         3.17615        0.746412 
        3.00023         3.15546        0.736993 
        3.01596         3.12188        0.727709 
        3.03164         3.09757        0.718612 
        3.04738         3.08275        0.709645 
         3.0631         3.06008        0.700835 
        3.07883         3.03689        0.692175 
        3.09456         3.00549        0.683664 
        3.11026         2.99058         0.67531 
        3.12596         2.97084        0.667098 
        3.14163         2.95405        0.659042 
        3.15734          2.9247        0.651102 
        3.17308         2.91113        0.643274 
        3.18879         2.89241        0.635597 
        3.20447          2.8634        0.628057 
         3.2202          2.8546        0.620618 
         3.2359         2.83369        0.613312 
        3.25157          2.8099        0.606143 
        3.26729         2.78788        0.599067 
        3.28304         2.76987        0.592091 
        3.29877         2.74681        0.585236 
        3.31446         2.73278        0.578506 
        3.33014         2.71541        0.571888 
        3.34585          2.6989        0.565364 
        3.36158         2.67296        0.558932 
        3.37727         2.66954        0.552622 
        3.39294         2.64367        0.546416 
        3.40867         2.63255        0.540283 
        3.42439         2.60742        0.534248 
        3.44008         2.59101        0.528318 
        3.45578         2.57743        0.522474 
        3.47153         2.56253        0.516706 
        3.48724          2.5471        0.511036 
        3.50292         2.52511        0.505465 
        3.51859         2.51513         0.49998 
        3.53431         2.48942         0.49456 
        3.55007         2.48935        0.489208 
        3.56577         2.46357        0.483956 
        3.58146         2.45199        0.478785 
        3.59719         2.43959        0.473677 
        3.61292         2.42053        0.468646 
        3.62859         2.40827        0.463708 
        3.64429         2.39139        0.458832 
        3.66003         2.37636        0.454012 
        3.67578          2.3628        0.449263 
        3.69146         2.34087          0.4446 
        3.70712         2.32884        0.440013 
        3.72284         2.31445        0.435474 
        3.73853         2.30625        0.431007 
        3.75422         2.28863        0.426601 
        3.76993         2.27328        0.422254 
        3.78564         2.25686        0.417969 
        3.80137         2.24305        0.413738 
        3.81707         2.23103        0.409574 
        3.83279         2.22443        0.405464 
        3.84853         2.20477        0.401405 
        3.86424         2.18886        0.397409 
        3.87992         2.17795        0.393474 
        3.89561         2.16442        0.389593 
        3.91134         2.15512        0.385756 
        3.92704         2.13711        0.381976 
        3.94273         2.12642        0.378251 
        3.95845          2.1112        0.374568 
        3.97418         2.10169        0.370935 
        3.98988         2.09339        0.367354 
        4.00554         2.08062        0.363831 
        4.02125         2.06349        0.360345 
        4.03698         2.05417        0.356899 
        4.05268          2.0371        0.353506 
        4.06839         2.02712        0.350155 
         4.0841         2.01215        0.346849 
        4.09983          1.9964        0.343581 
        4.11555         1.98746        0.340357 
        4.13124         1.97204        0.337184 
        4.14693         1.96092        0.334048 
        4.16266         1.95228        0.330946 
        4.17839         1.94016        0.327884 
        4.19408         1.92448        0.324869 
        4.20977         1.91314        0.321891 
        4.22551         1.90811        0.318943 
        4.24123         1.89197        0.316035 
        4.25691          1.8797        0.313172 
        4.27259         1.86508        0.310343 
        4.28831         1.86255        0.307544 
        4.30404         1.84668        0.304777 
        4.31974         1.83447        0.302051 
        4.33543         1.82209        0.299359 
        4.35116         1.81801        0.296694 
        4.36688         1.80439        0.294063 
        4.38255         1.79689        0.291473 
        4.39825         1.78384         0.28891 
        4.41398         1.77397        0.286372 
         4.4297         1.76326        0.283868 
        4.44541         1.74819        0.281394 
        4.46111          1.7447        0.278952 
        4.47683         1.73593        0.276537 
        4.49251          1.7227        0.274156 
        4.50819         1.71576        0.271804 
         4.5239          1.7049        0.269476 
        4.53962         1.69608        0.267172 
        4.55535         1.68883        0.264895 
        4.57106         1.67887        0.262648 
        4.58678         1.66896        0.260426 
         4.6025          1.6609         0.25823 
        4.61821         1.65725        0.256059 
        4.63391         1.64605        0.253917 
         4.6496         1.63464          0.2518 
        4.66532         1.63115        0.249704 
        4.68103         1.61607        0.247633 
        4.69673         1.61363        0.245588 
        4.71241         1.60436        0.243568 
        4.72811         1.59982        0.241567 
        4.74384         1.58837        0.239587 
        4.75955         1.58563        0.237632 
        4.77525         1.57287        0.235699 
        4.79096         1.56286        0.233787 
        4.80669         1.55948        0.231894 
         4.8224         1.55391        0.230025 
        4.83809         1.54495        0.228179 
        4.85379         1.53957        0.226351 
         4.8695         1.52699        0.224543 
        4.88521         1.52443        0.222755 
        4.90093         1.51999        0.220987 
        4.91663         1.50922        0.219239 
        4.93234         1.50566        0.217508 
        4.94807         1.49403        0.215796 
        4.96377         1.48921        0.214105 
        4.97943         1.48405        0.212435 
        4.99514         1.47745         0.21078 
        5.01086         1.46842        0.209141 
        5.02654          1.4628        0.207523 
        5.04227         1.45851        0.205918 
          5.058         1.45197        0.204329 
        5.07371         1.44731        0.202761 
        5.08942         1.44119        0.201208 
        5.10513         1.43408        0.199672 
        5.12084         1.42593        0.198152 
        5.13656         1.42192        0.196647 
        5.15225         1.41512        0.195161 
        5.16796         1.41032        0.193688 
        5.18369         1.40559        0.192228 
         5.1994         1.40159        0.190787 
        5.21509         1.39234        0.189362 
        5.23079           1.388         0.18795 
        5.24649         1.38213        0.186553 
        5.26217         1.37858        0.185171 
        5.27788         1.36935        0.183802 
        5.29359         1.36408        0.182446 
        5.30933         1.36172        0.181103 
        5.32504         1.35374        0.179775 
        5.34073         1.34997        0.178462 
        5.35646          1.3441        0.177159 
        5.37218         1.33929        0.175869 
        5.38789         1.33472        0.174595 
        5.40357         1.33024        0.173334 
        5.41929         1.32834        0.172083 
        5.43502         1.31797        0.170845 
         5.4507         1.31394        0.169622 
        5.46639         1.31137         0.16841 
        5.48212         1.30478        0.167208 
        5.49786         1.29986        0.166016 
        5.51353         1.29579        0.164841 
        5.52921         1.28976        0.163677 
        5.54495          1.2871        0.162521 
        5.56066         1.28237        0.161377 
        5.57637         1.27935        0.160245 
        5.59207         1.27209        0.159124 
        5.60778         1.26935        0.158014 
        5.62346         1.26272        0.156916 
        5.63916         1.26186        0.155828 
        5.65487         1.25319        0.154749 
         5.6706         1.25087        0.153679 
        5.68633         1.24504        0.152619 
        5.70203          1.2452        0.151572 
        5.71773         1.23703        0.150534 
        5.73344         1.23508        0.149506 
        5.74916         1.23055        0.148486 
        5.76486         1.22378        0.147477 
        5.78054         1.22315         0.14648 
        5.79626         1.21828        0.145488 
          5.812         1.21373        0.144505 
         5.8277         1.20835        0.143535 
        5.84339          1.2082        0.142573 
        5.85911         1.20134        0.141618 
        5.87484         1.19758        0.140672 
        5.89053         1.19233        0.139736 
        5.90623         1.19068        0.138809 
        5.92195         1.18787        0.137888 
        5.93767         1.18296        0.136977 
        5.95336         1.17683        0.136075 
        5.96905         1.17212        0.135182 
        5.98476         1.17093        0.134295 
        6.00048         1.16856        0.133417 
        6.01617         1.16201        0.132547 
        6.03185         1.16006        0.131686 
        6.04756         1.15809        0.130831 
        6.06331         1.15265        0.129982 
        6.07903         1.15077        0.129142 
        6.09473         1.14593         0.12831 
        6.11044         1.14258        0.127485 
        6.12616         1.13811        0.126667 
        6.14186         1.13486        0.125858 
        6.15755         1.13148        0.125055 
        6.17326          1.1296        0.124259 
        6.18898         1.12568         0.12347 
        6.20467         1.12139        0.122689 
        6.22036         1.11902        0.121914 
         6.2361         1.11422        0.121145 
         6.2518         1.11465        0.120383 
        6.26748         1.10939         0.11963 
        6.28319         1.10707        0.118881 
        6.29893         1.10113        0.118137 
        6.31463         1.09947        0.117402 
        6.33033         1.09552        0.116673 
        6.34604          1.0929         0.11595 
        6.36177          1.0904        0.115232 
        6.37747         1.08747        0.114521 
