# k  (h/Mpc)    Pcb(k)  (Mpc/h)^3    Pcb_linear(k) (Mpc/h)^3   ShotnoiseSubtracted = true
      0.0200456         21888.4         22437.6 
      0.0350414         15506.4         16270.7 
      0.0492313         11485.1         11745.1 
      0.0637834         10056.9         9894.09 
      0.0800726         8038.88         7983.51 
       0.096163         5550.04         5759.02 
       0.111083         4437.49         4556.68 
       0.126058         4114.38         4084.49 
       0.142273         3595.22         3517.53 
       0.158546         3148.11         2771.42 
        0.17375         2511.04         2314.39 
       0.188953         2462.22         2108.33 
       0.204907         2323.46         1892.74 
       0.220756         2017.37         1604.88 
        0.23588         1802.66         1386.41 
         0.2514         1570.77         1261.21 
       0.267535         1575.29         1152.98 
       0.283568         1430.22         1021.45 
       0.299022         1353.82         907.258 
       0.314451         1290.61         828.742 
       0.330372         1184.56         764.791 
       0.346141         1136.47         697.535 
       0.361624         1093.07         633.852 
       0.377134         1018.21         582.889 
       0.392932         977.422         540.975 
       0.408854         960.039         500.632 
       0.424564         887.793         462.123 
       0.440253         871.399         428.514 
       0.455999         841.544         399.916 
       0.471626         810.695         373.977 
        0.48727         777.474         349.284 
       0.502856         755.085         326.838 
       0.518488         747.766         306.874 
       0.534347         701.256         288.512 
       0.550082         683.603         271.506 
       0.565732         680.277         255.809 
       0.581496         643.517         241.399 
       0.597222          629.85          228.25 
       0.612804         617.823         216.143 
       0.628434          600.27         204.826 
       0.644267         584.072         194.194 
       0.660051         567.149         184.404 
       0.675724         561.113         175.374 
       0.691403          542.43         166.942 
       0.707174         524.702         159.019 
       0.722871         517.746         151.643 
        0.73838         507.912         144.815 
       0.754018         496.741         138.358 
       0.769845         487.089         132.225 
        0.78569         478.214         126.462 
       0.801365         465.867         121.101 
       0.817031         452.724         116.058 
       0.832809         448.691         111.274 
       0.848511         439.033         106.785 
       0.864097         425.259         102.578 
       0.879701         419.669         98.5969 
       0.895507         416.994         94.7827 
       0.911279           404.3          91.181 
        0.92691         398.519         87.7987 
       0.942635         388.408         84.5715 
       0.958396         378.651         81.5017 
       0.974128          372.74         78.5917 
       0.989692         370.294         75.8543 
        1.00528         360.111         73.2448 
        1.02113          358.12         70.7185 
        1.03692         347.176          68.322 
        1.05264         344.649         66.0488 
        1.06832         335.322         63.8837 
        1.08405         330.678          61.811 
        1.09979         324.921           59.83 
        1.11537         318.049         57.9564 
        1.13105         313.269         56.1527 
        1.14679         305.422         54.4197 
        1.16256         299.202         52.7572 
        1.17828         298.522         51.1704 
        1.19395         290.758         49.6549 
         1.2097         286.735         48.1938 
        1.22537         280.222         46.7991 
          1.241         277.916         45.4645 
        1.25666         272.728         44.1791 
        1.27241         269.023         42.9379 
        1.28819         264.246         41.7429 
        1.30392          258.02         40.5973 
        1.31957         257.744         39.5002 
        1.33529         252.233         38.4401 
        1.35108         246.891         37.4151 
        1.36674           243.1         36.4352 
         1.3824         241.511         35.4917 
        1.39811         237.273         34.5788 
        1.41389         234.273         33.6948 
        1.42964         231.575         32.8435 
        1.44531         227.749         32.0262 
        1.46101          223.71         31.2351 
        1.47667         220.954         30.4734 
        1.49229         218.168         29.7394 
        1.50793         212.722          29.029 
        1.52367         211.148         28.3375 
        1.53953         207.871          27.664 
        1.55526         203.365         27.0181 
        1.57092         201.947         26.3956 
        1.58662         199.459         25.7914 
        1.60235         195.597         25.2052 
        1.61809         193.656         24.6371 
        1.63369         190.704         24.0916 
        1.64941         186.862          23.559 
        1.66519         185.406         23.0407 
        1.68085         182.795         22.5418 
        1.69652         179.799         22.0577 
        1.71228         175.877         21.5851 
        1.72806         174.263         21.1262 
        1.74368         171.563         20.6854 
        1.75933         168.502         20.2563 
        1.77505         167.333         19.8375 
        1.79081         165.411           19.43 
         1.8065         162.513         19.0357 
        1.82218           160.5         18.6528 
        1.83797         158.977         18.2779 
        1.85367         156.185         17.9155 
        1.86928         153.534         17.5652 
        1.88497         151.592         17.2224 
        1.90073         150.222         16.8876 
        1.91647         148.291         16.5621 
        1.93218         146.419         16.2459 
        1.94787         143.454         15.9385 
        1.96363           141.3         15.6379 
        1.97935          140.61         15.3457 
        1.99499         137.928         15.0627 
        2.01064         136.417         14.7865 
         2.0264          134.93         14.5156 
        2.04216         132.902         14.2516 
        2.05781         131.424         13.9959 
        2.07353         129.951         13.7457 
        2.08928         127.488          13.501 
        2.10499         126.252         13.2631 
        2.12065         123.961         13.0316 
        2.13633         123.209         12.8055 
        2.15211         120.608         12.5833 
        2.16785         119.414         12.3671 
        2.18349         118.294         12.1574 
        2.19916         116.704         11.9521 
        2.21489         115.338         11.7509 
        2.23063         113.283         11.5542 
         2.2463         111.922          11.363 
        2.26194         110.208         11.1766 
        2.27765         109.252         10.9935 
        2.29341         107.812          10.814 
        2.30914         106.838          10.639 
        2.32486         105.127         10.4679 
        2.34061         103.823         10.3004 
        2.35635         102.566         10.1367 
        2.37203         101.302         9.97712 
        2.38768         99.9295         9.82136 
        2.40339         98.8058         9.66839 
        2.41914         97.4676         9.51834 
        2.43483         96.4861         9.37204 
         2.4505         95.3343         9.22908 
        2.46622         94.1355         9.08863 
        2.48195         92.8895         8.95113 
        2.49759         91.5683         8.81722 
        2.51328         91.0922         8.68572 
        2.52906          89.575          8.5561 
        2.54479         88.7052         8.42962 
        2.56049         87.5197         8.30596 
        2.57618          86.426         8.18491 
        2.59189         85.5806         8.06611 
        2.60758         84.5405         7.94988 
        2.62325         83.4387         7.83609 
        2.63898         82.2183         7.72415 
        2.65468         81.4226         7.61465 
        2.67044         80.5643         7.50681 
        2.68618         79.4949         7.40133 
        2.70184          79.245         7.29832 
        2.71755          77.717         7.19702 
        2.73329          77.066          7.0975 
        2.74897         76.2346         7.00021 
        2.76462          75.027         6.90496 
        2.78034         74.5724         6.81111 
        2.79607         73.2071         6.71892 
        2.81179         72.4505         6.62855 
        2.82749         71.7022         6.53996 
        2.84321         71.0892          6.4529 
        2.85893         70.2424         6.36746 
        2.87462         69.2844         6.28373 
        2.89033         68.3872         6.20143 
        2.90605         67.6505         6.12055 
        2.92176         66.8684         6.04117 
        2.93747          66.398         5.96324 
        2.95318         65.4053         5.88668 
        2.96891         64.9058         5.81144 
        2.98456         64.2613         5.73786 
        3.00023         63.3724         5.66545 
        3.01596         62.7479         5.59408 
        3.03164         61.9967         5.52414 
        3.04738         61.2672         5.45521 
         3.0631         60.5847         5.38749 
        3.07883         60.1125         5.32092 
        3.09456         59.4919         5.25549 
        3.11026         58.6857         5.19128 
        3.12596         58.0029         5.12815 
        3.14163         57.5336         5.06622 
        3.15734         56.7348         5.00518 
        3.17308         56.1531           4.945 
        3.18879         55.7564         4.88599 
        3.20447         54.9037         4.82803 
         3.2202         54.5826         4.77084 
         3.2359         53.8075         4.71468 
        3.25157         53.2553         4.65957 
        3.26729         52.8061         4.60518 
        3.28304         52.4345         4.55155 
        3.29877         51.7784         4.49886 
        3.31446         50.9109         4.44712 
        3.33014         50.6756         4.39624 
        3.34585         50.0148         4.34609 
        3.36158         49.6024         4.29665 
        3.37727         49.1148         4.24814 
        3.39294         48.5491         4.20043 
        3.40867         48.1036         4.15329 
        3.42439         47.6263          4.1069 
        3.44008         47.1168         4.06131 
        3.45578         46.5097         4.01638 
        3.47153         46.1745         3.97205 
        3.48724         45.6608         3.92846 
        3.50292         45.3559         3.88563 
        3.51859         44.8063         3.84347 
        3.53431         44.5077          3.8018 
        3.55007         43.9259         3.76066 
        3.56577         43.6388         3.72029 
        3.58146         43.0337         3.68053 
        3.59719         42.6603         3.64127 
        3.61292         42.1658          3.6026 
        3.62859         41.8037         3.56464 
        3.64429         41.4054         3.52716 
        3.66003         41.0814          3.4901 
        3.67578         40.5493          3.4536 
        3.69146         40.3149         3.41775 
        3.70712         39.7218         3.38249 
        3.72284         39.3274         3.34759 
        3.73853         39.0286         3.31326 
        3.75422         38.5153         3.27939 
        3.76993         38.2247         3.24597 
        3.78564         37.8605         3.21303 
        3.80137         37.5037          3.1805 
        3.81707         37.1785         3.14849 
        3.83279         36.8455          3.1169 
        3.84853         36.5306          3.0857 
        3.86424         36.1251         3.05498 
        3.87992         35.8581         3.02473 
        3.89561         35.5042          2.9949 
        3.91134         35.1055          2.9654 
        3.92704         34.8285         2.93634 
        3.94273         34.5473         2.90771 
        3.95845         34.3165          2.8794 
        3.97418          33.968         2.85147 
        3.98988         33.6204         2.82394 
        4.00554         33.2764         2.79686 
        4.02125         33.1085         2.77006 
        4.03698         32.6887         2.74357 
        4.05268         32.4712         2.71749 
        4.06839         32.1094         2.69173 
         4.0841         31.7894         2.66632 
        4.09983         31.5236          2.6412 
        4.11555         31.2563         2.61641 
        4.13124         31.0548         2.59201 
        4.14693          30.711         2.56791 
        4.16266         30.4488         2.54406 
        4.17839         30.1198         2.52053 
        4.19408         29.8867         2.49735 
        4.20977         29.5823         2.47445 
        4.22551          29.325         2.45179 
        4.24123         29.1437         2.42944 
        4.25691         28.9007         2.40743 
        4.27259         28.5636         2.38569 
        4.28831         28.2957         2.36417 
        4.30404         28.1285          2.3429 
        4.31974         27.8359         2.32194 
        4.33543         27.5595         2.30125 
        4.35116         27.4288         2.28076 
        4.36688         27.1602         2.26053 
        4.38255          26.906         2.24063 
        4.39825         26.6844         2.22092 
        4.41398         26.5065         2.20141 
         4.4297         26.1564         2.18216 
        4.44541         26.0089         2.16314 
        4.46111         25.7369         2.14437 
        4.47683         25.5689         2.12581 
        4.49251         25.2887          2.1075 
        4.50819         25.1719         2.08942 
         4.5239         24.9342         2.07153 
        4.53962         24.7459         2.05382 
        4.55535         24.5667         2.03631 
        4.57106         24.3025         2.01904 
        4.58678         24.1443         2.00196 
         4.6025         23.8744         1.98508 
        4.61821          23.726         1.96839 
        4.63391         23.5048         1.95192 
         4.6496         23.2952         1.93565 
        4.66532         23.1242         1.91954 
        4.68103         22.9395         1.90362 
        4.69673         22.7176         1.88789 
        4.71241         22.6108         1.87236 
        4.72811         22.3419         1.85699 
        4.74384         22.2098         1.84176 
        4.75955         22.0585         1.82673 
        4.77525         21.7893         1.81188 
        4.79096         21.6856         1.79718 
        4.80669         21.4836         1.78263 
         4.8224          21.374         1.76826 
        4.83809         21.1184         1.75407 
        4.85379         20.9236         1.74002 
         4.8695         20.8209         1.72612 
        4.88521         20.6055         1.71237 
        4.90093         20.4438         1.69878 
        4.91663         20.2923         1.68534 
        4.93234         20.1462         1.67204 
        4.94807         19.9415         1.65887 
        4.96377         19.8189         1.64587 
        4.97943         19.6369         1.63304 
        4.99514         19.4918         1.62032 
        5.01086           19.38         1.60771 
        5.02654         19.1671         1.59528 
        5.04227         19.0774         1.58294 
          5.058         18.9158         1.57073 
        5.07371         18.7509         1.55867 
        5.08942         18.5685         1.54674 
        5.10513         18.4796         1.53493 
        5.12084         18.3191         1.52324 
        5.13656         18.1657         1.51167 
        5.15225         18.0218         1.50025 
        5.16796         17.8911         1.48892 
        5.18369         17.7513         1.47771 
         5.1994         17.6456         1.46663 
        5.21509         17.4708         1.45567 
        5.23079         17.3879         1.44481 
        5.24649         17.1939         1.43408 
        5.26217         17.1331         1.42346 
        5.27788         16.9633         1.41293 
        5.29359         16.8266         1.40251 
        5.30933         16.6709         1.39218 
        5.32504         16.5653         1.38197 
        5.34073         16.4586         1.37188 
        5.35646         16.3238         1.36187 
        5.37218         16.2105         1.35195 
        5.38789         16.0804         1.34215 
        5.40357         15.9618         1.33246 
        5.41929         15.8433         1.32285 
        5.43502         15.7018         1.31333 
         5.4507         15.6101         1.30392 
        5.46639          15.495         1.29461 
        5.48212         15.3766         1.28537 
        5.49786         15.2242          1.2762 
        5.51353         15.1536         1.26718 
        5.52921         15.0376         1.25823 
        5.54495         14.9434         1.24934 
        5.56066         14.8138         1.24055 
        5.57637         14.6923         1.23184 
        5.59207         14.5724         1.22323 
        5.60778         14.4715         1.21469 
        5.62346         14.4082         1.20625 
        5.63916         14.3102         1.19789 
        5.65487         14.1796         1.18959 
         5.6706          14.069         1.18137 
        5.68633           13.99         1.17322 
        5.70203         13.8793         1.16517 
        5.71773         13.7732         1.15719 
        5.73344          13.685         1.14929 
        5.74916         13.6064         1.14145 
        5.76486         13.5221          1.1337 
        5.78054         13.4002         1.12603 
        5.79626         13.3079         1.11841 
          5.812         13.2161         1.11085 
         5.8277         13.1198         1.10339 
        5.84339         13.0046         1.09599 
        5.85911         12.9147         1.08865 
        5.87484         12.8186         1.08138 
        5.89053         12.7563         1.07419 
        5.90623         12.6689         1.06706 
        5.92195         12.5521         1.05998 
        5.93767         12.4626         1.05297 
        5.95336         12.3698         1.04604 
        5.96905         12.3199         1.03918 
        5.98476         12.2138         1.03236 
        6.00048         12.1173         1.02561 
        6.01617         12.0492         1.01892 
        6.03185         11.9531         1.01231 
        6.04756         11.8593         1.00573 
        6.06331         11.7886        0.999203 
        6.07903         11.7215        0.992746 
        6.09473         11.6076        0.986352 
        6.11044         11.5447        0.980009 
        6.12616         11.4634        0.973724 
        6.14186         11.3836          0.9675 
        6.15755         11.3018        0.961331 
        6.17326          11.239        0.955212 
        6.18898         11.1595        0.949143 
        6.20467         11.0834        0.943139 
        6.22036         10.9891        0.937187 
         6.2361          10.949         0.93127 
         6.2518         10.8661        0.925415 
        6.26748         10.8023        0.919623 
        6.28319         10.7281        0.913865 
        6.29893         10.6284        0.908152 
        6.31463         10.5657        0.902497 
        6.33033         10.5006        0.896893 
        6.34604         10.4514        0.891333 
        6.36177         10.3602        0.885815 
        6.37747         10.2845        0.880354 
