# k  (h/Mpc)    Pcb(k)  (Mpc/h)^3    Pcb_linear(k) (Mpc/h)^3   ShotnoiseSubtracted = true
      0.0200456         10762.7         10979.9 
      0.0350414         7727.47         7962.12 
      0.0492313         5699.44         5747.48 
      0.0637834         4927.52          4841.7 
      0.0800726         3954.78         3906.75 
       0.096163         2754.93         2818.19 
       0.111083         2176.35         2229.82 
       0.126058         2021.68         1998.75 
       0.142273         1766.16         1721.31 
       0.158546         1472.64          1356.2 
        0.17375         1176.69         1132.55 
       0.188953         1138.15         1031.71 
       0.204907         1076.35         926.215 
       0.220756         915.213         785.353 
        0.23588         804.089         678.441 
         0.2514         703.334         617.177 
       0.267535         686.459         564.213 
       0.283568         623.705         499.848 
       0.299022         580.584         443.969 
       0.314451         544.594         405.547 
       0.330372         503.277         374.252 
       0.346141         457.193          341.34 
       0.361624         439.847         310.177 
       0.377134         409.678         285.238 
       0.392932         387.595         264.727 
       0.408854         372.232         244.986 
       0.424564         354.366         226.141 
       0.440253         341.814         209.695 
       0.455999          321.68           195.7 
       0.471626         299.887         183.007 
        0.48727         291.502         170.923 
       0.502856         281.637         159.939 
       0.518488         278.195         150.169 
       0.534347         262.193         141.184 
       0.550082         246.157         132.862 
       0.565732         242.284         125.181 
       0.581496         230.068         118.129 
       0.597222         224.303         111.695 
       0.612804         216.131          105.77 
       0.628434         208.987         100.232 
       0.644267         202.035         95.0295 
       0.660051         199.651         90.2388 
       0.675724         195.116         85.8196 
       0.691403         189.492         81.6937 
       0.707174         181.466         77.8163 
       0.722871         179.789         74.2067 
        0.73838             176         70.8655 
       0.754018         170.402         67.7056 
       0.769845         165.624         64.7049 
        0.78569         163.274         61.8844 
       0.801365         158.568         59.2612 
       0.817031          153.32         56.7935 
       0.832809         151.086         54.4524 
       0.848511         147.194         52.2557 
       0.864097         144.571         50.1969 
       0.879701         141.442         48.2487 
       0.895507         137.762         46.3822 
       0.911279         135.314         44.6196 
        0.92691         133.783         42.9645 
       0.942635         130.591         41.3853 
       0.958396         130.193          39.883 
       0.974128         126.375          38.459 
       0.989692         123.189         37.1195 
        1.00528         120.832         35.8425 
        1.02113         120.009         34.6063 
        1.03692         115.451         33.4335 
        1.05264         114.841         32.3211 
        1.06832         112.165         31.2616 
        1.08405         110.608         30.2474 
        1.09979         109.964         29.2779 
        1.11537         106.324         28.3611 
        1.13105         106.045         27.4785 
        1.14679         104.899         26.6304 
        1.16256         103.204         25.8169 
        1.17828         100.573         25.0404 
        1.19395         99.3931         24.2988 
         1.2097         97.1159         23.5838 
        1.22537         97.1267         22.9013 
          1.241         94.7714         22.2482 
        1.25666          92.927         21.6192 
        1.27241         91.6903         21.0118 
        1.28819          90.262          20.427 
        1.30392         89.1883         19.8664 
        1.31957         87.8471         19.3295 
        1.33529         86.2789         18.8108 
        1.35108         85.3587         18.3092 
        1.36674         84.3617         17.8297 
         1.3824         82.7229         17.3679 
        1.39811         81.8624         16.9212 
        1.41389         80.6359         16.4886 
        1.42964         79.6386         16.0721 
        1.44531         77.9284         15.6721 
        1.46101         76.9449          15.285 
        1.47667         76.6891         14.9123 
        1.49229         75.1183         14.5531 
        1.50793         74.5823         14.2054 
        1.52367         73.4296          13.867 
        1.53953         72.3533         13.5375 
        1.55526         71.6023         13.2214 
        1.57092         71.3222         12.9167 
        1.58662          69.741         12.6211 
        1.60235         69.1992         12.3342 
        1.61809         68.1741         12.0562 
        1.63369         67.0788         11.7893 
        1.64941         66.4641         11.5287 
        1.66519         65.1712          11.275 
        1.68085         64.6932         11.0309 
        1.69652         63.5893          10.794 
        1.71228         63.1839         10.5627 
        1.72806          62.468         10.3382 
        1.74368         61.6542         10.1224 
        1.75933         60.8856         9.91248 
        1.77505         60.2839         9.70755 
        1.79081         59.3766         9.50811 
         1.8065          58.864         9.31517 
        1.82218         57.9783         9.12781 
        1.83797         57.3848         8.94436 
        1.85367         56.6676         8.76701 
        1.86928         56.1413         8.59558 
        1.88497         55.4213         8.42783 
        1.90073          54.685         8.26399 
        1.91647         54.3255         8.10468 
        1.93218         53.5508         7.94995 
        1.94787         52.9743         7.79952 
        1.96363         52.2587         7.65242 
        1.97935         51.8419         7.50946 
        1.99499         51.0271         7.37098 
        2.01064         50.8606         7.23582 
         2.0264         49.6273         7.10324 
        2.04216          49.334         6.97407 
        2.05781         48.6595         6.84895 
        2.07353         48.2016         6.72649 
        2.08928         47.5906         6.60677 
        2.10499         47.2144         6.49032 
        2.12065         46.6066         6.37704 
        2.13633         46.3789          6.2664 
        2.15211         45.9285         6.15768 
        2.16785         44.9719         6.05187 
        2.18349         44.6647         5.94923 
        2.19916         44.2533         5.84878 
        2.21489         43.7519         5.75033 
        2.23063         43.1202          5.6541 
         2.2463         42.7075         5.56052 
        2.26194         41.9985         5.46931 
        2.27765         41.6122          5.3797 
        2.29341         41.1021         5.29188 
        2.30914         40.6445         5.20621 
        2.32486         40.1259          5.1225 
        2.34061         39.8278         5.04051 
        2.35635         39.3547          4.9604 
        2.37203         38.9072         4.88233 
        2.38768         38.5099         4.80611 
        2.40339         38.2422         4.73125 
        2.41914         37.8723         4.65783 
        2.43483         37.2139         4.58623 
         2.4505         36.8945         4.51627 
        2.46622         36.5724         4.44755 
        2.48195          36.225         4.38026 
        2.49759         35.7577         4.31473 
        2.51328         35.2314         4.25038 
        2.52906          35.087         4.18695 
        2.54479         34.4869         4.12506 
        2.56049         34.1686         4.06454 
        2.57618         33.8499         4.00531 
        2.59189          33.546         3.94717 
        2.60758         33.2693         3.89029 
        2.62325         32.8137         3.83461 
        2.63898         32.5146         3.77983 
        2.65468         32.1182         3.72625 
        2.67044         31.7909         3.67348 
        2.68618         31.5253         3.62186 
        2.70184          31.152         3.57145 
        2.71755         30.9884         3.52188 
        2.73329         30.5859         3.47318 
        2.74897         30.2301         3.42557 
        2.76462         29.8475         3.37896 
        2.78034         29.6938         3.33303 
        2.79607          29.344         3.28792 
        2.81179         29.1043          3.2437 
        2.82749         28.8241         3.20035 
        2.84321         28.3877         3.15774 
        2.85893         28.1372         3.11593 
        2.87462         27.8777         3.07496 
        2.89033         27.6123         3.03469 
        2.90605         27.4045         2.99511 
        2.92176         27.2237         2.95626 
        2.93747          26.809         2.91813 
        2.95318         26.4533         2.88066 
        2.96891         26.3232         2.84384 
        2.98456         25.9306         2.80783 
        3.00023         25.7264          2.7724 
        3.01596         25.4458         2.73747 
        3.03164         25.2579         2.70325 
        3.04738          25.055         2.66952 
         3.0631         24.7753         2.63638 
        3.07883          24.534         2.60381 
        3.09456         24.2268         2.57179 
        3.11026          24.022         2.54036 
        3.12596         23.8278         2.50947 
        3.14163          23.574         2.47917 
        3.15734         23.3325          2.4493 
        3.17308         23.1108         2.41985 
        3.18879         22.9073         2.39097 
        3.20447         22.6669         2.36261 
         3.2202         22.4484         2.33462 
         3.2359         22.1897         2.30714 
        3.25157         22.1611         2.28017 
        3.26729         21.8643         2.25355 
        3.28304         21.6382         2.22731 
        3.29877         21.3664         2.20153 
        3.31446         21.1982         2.17621 
        3.33014          20.988         2.15131 
        3.34585         20.8337         2.12677 
        3.36158         20.5967         2.10258 
        3.37727         20.3914         2.07884 
        3.39294         20.2618         2.05549 
        3.40867         20.0576         2.03242 
        3.42439         19.8489         2.00972 
        3.44008         19.6702         1.98741 
        3.45578         19.4853         1.96543 
        3.47153         19.2553         1.94373 
        3.48724         19.1055          1.9224 
        3.50292         18.9645         1.90144 
        3.51859         18.7494         1.88081 
        3.53431         18.5857         1.86042 
        3.55007         18.4042         1.84029 
        3.56577         18.2108         1.82053 
        3.58146         18.0817         1.80108 
        3.59719         17.8733         1.78187 
        3.61292         17.7195         1.76294 
        3.62859         17.5907         1.74437 
        3.64429         17.4312         1.72602 
        3.66003         17.3006         1.70789 
        3.67578         17.0927         1.69003 
        3.69146          16.977         1.67249 
        3.70712         16.7739         1.65523 
        3.72284         16.7188         1.63815 
        3.73853         16.5192         1.62135 
        3.75422         16.3043         1.60478 
        3.76993         16.2096         1.58842 
        3.78564         16.0516         1.57231 
        3.80137         15.9054         1.55639 
        3.81707         15.7512         1.54072 
        3.83279         15.6189         1.52526 
        3.84853         15.4707         1.50999 
        3.86424         15.3587         1.49496 
        3.87992         15.2149         1.48016 
        3.89561         15.0388         1.46556 
        3.91134         14.9478         1.45113 
        3.92704         14.8118         1.43691 
        3.94273         14.6921         1.42289 
        3.95845         14.5134         1.40904 
        3.97418         14.4335         1.39537 
        3.98988          14.281          1.3819 
        4.00554         14.1899         1.36865 
        4.02125         14.0334         1.35554 
        4.03698         13.9799         1.34257 
        4.05268          13.794         1.32981 
        4.06839         13.6739          1.3172 
         4.0841         13.5788         1.30477 
        4.09983          13.432         1.29248 
        4.11555         13.3177         1.28035 
        4.13124         13.2296         1.26841 
        4.14693          13.106         1.25661 
        4.16266         12.9939         1.24494 
        4.17839          12.867         1.23343 
        4.19408          12.747         1.22208 
        4.20977         12.6885         1.21088 
        4.22551         12.5522         1.19979 
        4.24123         12.4517         1.18885 
        4.25691          12.341         1.17808 
        4.27259         12.2286         1.16744 
        4.28831          12.108         1.15691 
        4.30404         12.0214          1.1465 
        4.31974         11.8989         1.13625 
        4.33543         11.8292         1.12612 
        4.35116         11.7348          1.1161 
        4.36688         11.6116          1.1062 
        4.38255         11.5103         1.09646 
        4.39825         11.4247         1.08681 
        4.41398          11.382         1.07727 
         4.4297         11.2332         1.06785 
        4.44541         11.1318         1.05854 
        4.46111         11.0457         1.04935 
        4.47683         10.9817         1.04027 
        4.49251         10.8896         1.03131 
        4.50819         10.8049         1.02246 
         4.5239         10.7151         1.01371 
        4.53962         10.6256         1.00504 
        4.55535         10.5281        0.996475 
        4.57106         10.4353        0.988021 
        4.58678         10.3381        0.979664 
         4.6025         10.2699        0.971402 
        4.61821         10.1914        0.963238 
        4.63391         10.0949        0.955178 
         4.6496         10.0317        0.947215 
        4.66532         9.94905         0.93933 
        4.68103         9.87964         0.93154 
        4.69673         9.78745        0.923846 
        4.71241         9.68359        0.916246 
        4.72811         9.60792        0.908721 
        4.74384         9.56188        0.901271 
        4.75955         9.48238        0.893916 
        4.77525         9.38386        0.886648 
        4.79096         9.34667        0.879452 
        4.80669         9.26021        0.872334 
         4.8224         9.19604        0.865302 
        4.83809         9.11046        0.858356 
        4.85379         9.04255        0.851483 
         4.8695         8.99809         0.84468 
        4.88521         8.90133        0.837954 
        4.90093         8.82142        0.831301 
        4.91663           8.769        0.824727 
        4.93234         8.70325        0.818217 
        4.94807         8.62179        0.811774 
        4.96377          8.5541        0.805413 
        4.97943         8.49436        0.799133 
        4.99514         8.44443        0.792905 
        5.01086         8.37891        0.786739 
        5.02654         8.30847        0.780655 
        5.04227         8.25791        0.774617 
          5.058         8.15981        0.768641 
        5.07371         8.12149         0.76274 
        5.08942         8.06673        0.756901 
        5.10513         7.99617        0.751122 
        5.12084         7.93443        0.745401 
        5.13656         7.88571        0.739742 
        5.15225           7.825        0.734151 
        5.16796         7.77057        0.728609 
        5.18369         7.71788         0.72312 
         5.1994         7.62268        0.717698 
        5.21509         7.58854        0.712336 
        5.23079         7.53148        0.707023 
        5.24649         7.48316        0.701769 
        5.26217         7.41662        0.696573 
        5.27788         7.36675        0.691422 
        5.29359         7.31432        0.686322 
        5.30933         7.25259        0.681267 
        5.32504         7.20453        0.676272 
        5.34073         7.16582        0.671332 
        5.35646         7.08773        0.666432 
        5.37218         7.05873        0.661581 
        5.38789          6.9972        0.656786 
        5.40357         6.95705        0.652044 
        5.41929         6.90465        0.647339 
        5.43502         6.85171         0.64268 
         5.4507         6.80445        0.638078 
        5.46639         6.77316        0.633521 
        5.48212         6.71386        0.628998 
        5.49786         6.67852        0.624514 
        5.51353         6.61398        0.620096 
        5.52921         6.56922        0.615717 
        5.54495         6.52214        0.611368 
        5.56066         6.47757        0.607065 
        5.57637          6.4112        0.602805 
        5.59207         6.39035         0.59859 
        5.60778         6.31913        0.594414 
        5.62346         6.29269        0.590283 
        5.63916         6.24894        0.586188 
        5.65487         6.21154        0.582131 
         5.6706         6.15991        0.578107 
        5.68633         6.11461         0.57412 
        5.70203         6.07962        0.570178 
        5.71773         6.04118        0.566275 
        5.73344         5.99273        0.562407 
        5.74916         5.95449        0.558571 
        5.76486         5.92751        0.554777 
        5.78054         5.87761        0.551023 
        5.79626         5.83542        0.547295 
          5.812         5.79837        0.543597 
         5.8277         5.75719        0.539944 
        5.84339          5.7097        0.536326 
        5.85911         5.68303        0.532733 
        5.87484         5.64217        0.529175 
        5.89053         5.60388        0.525656 
        5.90623         5.56439        0.522167 
        5.92195         5.51234        0.518705 
        5.93767         5.49011        0.515276 
        5.95336         5.44508        0.511884 
        5.96905         5.42195        0.508524 
        5.98476         5.38266        0.505189 
        6.00048         5.35327        0.501883 
        6.01617         5.30989        0.498612 
        6.03185         5.28108        0.495374 
        6.04756         5.24126        0.492157 
        6.06331         5.20361        0.488962 
        6.07903         5.17982        0.485803 
        6.09473          5.1369        0.482674 
        6.11044         5.10319         0.47957 
        6.12616         5.07568        0.476494 
        6.14186         5.04406        0.473449 
        6.15755         5.00639         0.47043 
        6.17326         4.97267        0.467435 
        6.18898          4.9359        0.464466 
        6.20467         4.90607        0.461527 
        6.22036         4.88015        0.458615 
         6.2361         4.84437        0.455719 
         6.2518         4.81656        0.452854 
        6.26748         4.78742         0.45002 
        6.28319         4.75065        0.447202 
        6.29893         4.72541        0.444406 
        6.31463         4.70251        0.441639 
        6.33033         4.65899        0.438897 
        6.34604         4.64343        0.436176 
        6.36177         4.61228        0.433476 
        6.37747         4.58526        0.430803 
