# k  (h/Mpc)    Pcb(k)  (Mpc/h)^3    Pcb_linear(k) (Mpc/h)^3   ShotnoiseSubtracted = true
      0.0200456         747.799         757.841 
      0.0350414         528.349         521.305 
      0.0492313         379.512         378.069 
      0.0637834         316.008         319.475 
      0.0800726         241.959         244.141 
       0.096163          175.51           172.6 
       0.111083          145.49         143.105 
       0.126058         127.536         128.545 
       0.142273         103.205         103.656 
       0.158546         81.7831         81.0477 
        0.17375         72.3865         71.4834 
       0.188953         65.3036         65.0409 
       0.204907         54.5341         55.2165 
       0.220756         46.9337         46.4581 
        0.23588         42.1167         41.8453 
         0.2514         38.4371         38.2522 
       0.267535         34.1881         33.6561 
       0.283568         29.9781         29.5365 
       0.299022         27.3679         26.8874 
       0.314451         25.5586         24.7281 
       0.330372         22.8641         22.3399 
       0.346141         20.7083         20.1803 
       0.361624          18.978         18.5523 
       0.377134         17.4718         17.1666 
       0.392932         16.5585         15.7799 
       0.408854         14.9257          14.492 
       0.424564         14.1447         13.4286 
       0.440253         12.9864         12.5001 
       0.455999         11.9031          11.621 
       0.471626         11.1338         10.8163 
        0.48727         10.6523         10.1061 
       0.502856         9.99727         9.47175 
       0.518488         9.21007         8.88238 
       0.534347         8.59969         8.32869 
       0.550082         8.23756         7.83139 
       0.565732         7.86375         7.38059 
       0.581496         7.37743         6.96094 
       0.597222         6.94837          6.5723 
       0.612804         6.54803         6.21798 
       0.628434         6.28302         5.89011 
       0.644267         5.97167         5.58189 
       0.660051         5.66044          5.2966 
       0.675724         5.34156         5.03316 
       0.691403         5.12792         4.78769 
       0.707174         4.87715         4.55742 
       0.722871         4.75401         4.34339 
        0.73838         4.43592         4.14554 
       0.754018         4.23762         3.95864 
       0.769845         4.01824         3.78131 
        0.78569         3.90958         3.61477 
       0.801365         3.74315         3.45997 
       0.817031         3.60784         3.31441 
       0.832809         3.41893         3.17637 
       0.848511         3.31549         3.04687 
       0.864097         3.19498         2.92555 
       0.879701         3.09991         2.81077 
       0.895507         2.95202         2.70086 
       0.911279         2.85575          2.5971 
        0.92691         2.77193          2.4997 
       0.942635         2.63645          2.4068 
       0.958396         2.55388         2.31848 
       0.974128         2.47723         2.23479 
       0.989692         2.37415          2.1561 
        1.00528         2.30487         2.08112 
        1.02113         2.24051         2.00857 
        1.03692         2.18063         1.93977 
        1.05264         2.08187         1.87455 
        1.06832          2.0275         1.81246 
        1.08405         1.95428         1.75304 
        1.09979         1.90811         1.69628 
        1.11537         1.84293         1.64262 
        1.13105         1.77469         1.59098 
        1.14679         1.73258         1.54138 
        1.16256         1.67688         1.49382 
        1.17828         1.64637         1.44844 
        1.19395         1.58632         1.40512 
         1.2097         1.53958         1.36336 
        1.22537         1.48825         1.32352 
          1.241         1.45503          1.2854 
        1.25666         1.42786         1.24871 
        1.27241         1.38659         1.21328 
        1.28819         1.33492         1.17918 
        1.30392         1.30349         1.14651 
        1.31957         1.27706         1.11522 
        1.33529          1.2279           1.085 
        1.35108         1.20335         1.05579 
        1.36674         1.16937         1.02787 
         1.3824         1.15315           1.001 
        1.39811         1.11785        0.975005 
        1.41389          1.0902        0.949841 
        1.42964         1.06228        0.925616 
        1.44531         1.04042        0.902361 
        1.46101          1.0091        0.879862 
        1.47667        0.991847        0.858203 
        1.49229        0.957968        0.837337 
        1.50793        0.937599        0.817147 
        1.52367        0.914719        0.797499 
        1.53953        0.892229        0.778369 
        1.55526          0.8808        0.760025 
        1.57092        0.865578        0.742353 
        1.58662        0.849722        0.725204 
        1.60235        0.821888        0.708569 
        1.61809        0.804813        0.692451 
        1.63369        0.782048        0.676982 
        1.64941        0.770548        0.661878 
        1.66519        0.756864        0.647185 
        1.68085        0.736421        0.633045 
        1.69652        0.721678        0.619326 
        1.71228        0.704585         0.60594 
        1.72806        0.692131        0.592941 
        1.74368        0.678611        0.580457 
        1.75933        0.666306         0.56831 
        1.77505        0.654838        0.556457 
        1.79081        0.633744        0.544923 
         1.8065        0.628783        0.533768 
        1.82218        0.611255        0.522937 
        1.83797        0.596169        0.512334 
        1.85367        0.590863        0.502087 
        1.86928        0.577959        0.492183 
        1.88497        0.563837        0.482494 
        1.90073        0.558182        0.473032 
        1.91647        0.543501        0.463834 
        1.93218        0.535071        0.454901 
        1.94787          0.5248        0.446219 
        1.96363        0.516185         0.43773 
        1.97935        0.505212        0.429482 
        1.99499        0.497104        0.421493 
        2.01064        0.488057        0.413698 
         2.0264        0.476268        0.406053 
        2.04216         0.46942        0.398605 
        2.05781        0.462365        0.391393 
        2.07353         0.45306        0.384335 
        2.08928        0.446675        0.377436 
        2.10499        0.437509        0.370726 
        2.12065        0.430346        0.364201 
        2.13633        0.423825        0.357828 
        2.15211        0.414661        0.351568 
        2.16785         0.40908        0.345476 
        2.18349        0.402411        0.339567 
        2.19916        0.395256        0.333785 
        2.21489        0.387683        0.328119 
        2.23063        0.381084        0.322582 
         2.2463        0.375578        0.317198 
        2.26194        0.370581        0.311952 
        2.27765        0.363774        0.306798 
        2.29341        0.357608        0.301747 
        2.30914        0.350176        0.296822 
        2.32486        0.345547         0.29201 
        2.34061        0.339275        0.287297 
        2.35635        0.334565        0.282693 
        2.37203          0.3315        0.278207 
        2.38768        0.325289        0.273827 
        2.40339        0.320111        0.269527 
        2.41914        0.315571         0.26531 
        2.43483        0.310114        0.261198 
         2.4505        0.305402        0.257181 
        2.46622        0.301145        0.253235 
        2.48195        0.295495        0.249373 
        2.49759        0.293819        0.245612 
        2.51328        0.287207        0.241919 
        2.52906        0.282742        0.238279 
        2.54479        0.278677        0.234728 
        2.56049        0.274285        0.231257 
        2.57618        0.271798        0.227859 
        2.59189        0.266335        0.224525 
        2.60758        0.264218        0.221263 
        2.62325        0.260286        0.218071 
        2.63898        0.257263         0.21493 
        2.65468        0.251326        0.211859 
        2.67044        0.248705        0.208834 
        2.68618         0.24531        0.205877 
        2.70184        0.241759        0.202988 
        2.71755        0.237988        0.200148 
        2.73329        0.236637        0.197358 
        2.74897        0.231439        0.194631 
        2.76462        0.229517        0.191962 
        2.78034        0.225757        0.189332 
        2.79607        0.223582        0.186749 
        2.81179        0.218688        0.184217 
        2.82749        0.217236        0.181736 
        2.84321         0.21442        0.179297 
        2.85893        0.211167        0.176904 
        2.87462        0.208079         0.17456 
        2.89033        0.205787        0.172256 
        2.90605         0.20324        0.169991 
        2.92176        0.201672        0.167769 
        2.93747        0.198082        0.165588 
        2.95318        0.195853        0.163445 
        2.96891        0.193823         0.16134 
        2.98456        0.191649        0.159281 
        3.00023        0.188696        0.157255 
        3.01596         0.18637        0.155259 
        3.03164        0.183863        0.153303 
        3.04738        0.182308        0.151375 
         3.0631        0.180146        0.149481 
        3.07883        0.177711        0.147619 
        3.09456        0.175825         0.14579 
        3.11026        0.173319        0.143995 
        3.12596        0.170878         0.14223 
        3.14163         0.16963        0.140499 
        3.15734        0.168039        0.138793 
        3.17308        0.165824        0.137112 
        3.18879        0.163912        0.135463 
        3.20447        0.161566        0.133844 
         3.2202        0.160515        0.132246 
         3.2359        0.158218        0.130677 
        3.25157        0.156045        0.129138 
        3.26729        0.155167        0.127619 
        3.28304        0.153497        0.126122 
        3.29877        0.151293         0.12465 
        3.31446        0.150432        0.123206 
        3.33014        0.148499        0.121785 
        3.34585        0.146398        0.120386 
        3.36158        0.145117        0.119006 
        3.37727        0.144122        0.117652 
        3.39294        0.142705         0.11632 
        3.40867        0.140698        0.115005 
        3.42439        0.139917        0.113711 
        3.44008        0.138445        0.112439 
        3.45578        0.136887        0.111186 
        3.47153        0.135744        0.109949 
        3.48724        0.134485        0.108733 
        3.50292        0.133481        0.107539 
        3.51859        0.131841        0.106363 
        3.53431        0.130467        0.105201 
        3.55007        0.129481        0.104054 
        3.56577        0.128743        0.102929 
        3.58146        0.127134        0.101821 
        3.59719         0.12599        0.100726 
        3.61292        0.124942       0.0996486 
        3.62859        0.124074       0.0985907 
        3.64429        0.122306       0.0975462 
        3.66003        0.121853       0.0965138 
        3.67578        0.120639       0.0954967 
        3.69146        0.119519       0.0944982 
        3.70712         0.11859       0.0935158 
        3.72284          0.1179       0.0925439 
        3.73853          0.1169       0.0915875 
        3.75422        0.115586       0.0906444 
        3.76993        0.114776       0.0897138 
        3.78564        0.113936       0.0887967 
        3.80137        0.113221        0.087891 
        3.81707        0.111722       0.0869998 
        3.83279        0.111045       0.0861204 
        3.84853        0.110144       0.0852518 
        3.86424        0.109288       0.0843969 
        3.87992        0.108421       0.0835551 
        3.89561         0.10761       0.0827247 
        3.91134        0.106542       0.0819041 
        3.92704        0.105541       0.0810955 
        3.94273        0.104703       0.0802987 
        3.95845        0.103646       0.0795112 
        3.97418        0.103062       0.0787342 
        3.98988        0.101573       0.0779687 
        4.00554         0.10105       0.0772154 
        4.02125        0.100018         0.07647 
        4.03698       0.0985752       0.0757334 
        4.05268       0.0977479       0.0750081 
        4.06839        0.096342       0.0742919 
         4.0841       0.0949894       0.0735853 
        4.09983       0.0940184        0.072887 
        4.11555       0.0926515        0.072198 
        4.13124       0.0916127       0.0715199 
        4.14693       0.0904006       0.0708499 
        4.16266       0.0893965        0.070187 
        4.17839       0.0883378       0.0695331 
        4.19408       0.0871719        0.068889 
        4.20977       0.0863387       0.0682528 
        4.22551       0.0855279       0.0676232 
        4.24123       0.0844388       0.0670022 
        4.25691       0.0837131       0.0663907 
        4.27259       0.0828206       0.0657867 
        4.28831       0.0823567       0.0651891 
        4.30404       0.0809999       0.0645983 
        4.31974       0.0805761       0.0640162 
        4.33543       0.0798739       0.0634416 
        4.35116       0.0793003       0.0628727 
        4.36688       0.0784923        0.062311 
        4.38255       0.0779679       0.0617584 
        4.39825       0.0775163       0.0612113 
        4.41398       0.0767763       0.0606697 
         4.4297       0.0763395       0.0601353 
        4.44541       0.0757839       0.0596075 
        4.46111       0.0752454       0.0590864 
        4.47683        0.074789       0.0585712 
        4.49251       0.0744087       0.0580633 
        4.50819       0.0743198       0.0575615 
         4.5239       0.0736076        0.057065 
        4.53962       0.0732865       0.0565737 
        4.55535       0.0731944        0.056088 
        4.57106       0.0727767       0.0556087 
        4.58678       0.0726195        0.055135 
         4.6025       0.0724233       0.0546667 
        4.61821       0.0723342       0.0542039 
        4.63391       0.0720769       0.0537471 
         4.6496        0.071925       0.0532958 
        4.66532       0.0718138        0.052849 
        4.68103       0.0717547       0.0524076 
        4.69673       0.0716433       0.0519716 
        4.71241       0.0718646        0.051541 
        4.72811       0.0715883       0.0511147 
        4.74384       0.0714237       0.0506926 
        4.75955       0.0715762        0.050276 
        4.77525        0.071653       0.0498643 
        4.79096       0.0717849       0.0494567 
        4.80669       0.0715569       0.0490536 
         4.8224       0.0720002       0.0486554 
        4.83809       0.0720488        0.048262 
        4.85379       0.0722817       0.0478728 
         4.8695         0.07236       0.0474876 
        4.88521       0.0726417       0.0471068 
        4.90093       0.0731002       0.0467301 
        4.91663       0.0732868        0.046358 
        4.93234       0.0734185       0.0459895 
        4.94807       0.0737644       0.0456247 
        4.96377       0.0742109       0.0452647 
        4.97943       0.0749537       0.0449093 
        4.99514       0.0750125       0.0445568 
        5.01086       0.0752952       0.0442078 
        5.02654       0.0760622       0.0438635 
        5.04227       0.0763744       0.0435219 
          5.058       0.0768903       0.0431838 
        5.07371       0.0773851       0.0428499 
        5.08942       0.0782847       0.0425195 
        5.10513       0.0788137       0.0421926 
        5.12084       0.0793801        0.041869 
        5.13656       0.0798983       0.0415489 
        5.15225       0.0808942       0.0412327 
        5.16796       0.0815706       0.0409192 
        5.18369       0.0822902       0.0406088 
         5.1994       0.0830281       0.0403021 
        5.21509       0.0839308        0.039999 
        5.23079       0.0847327       0.0396986 
        5.24649       0.0856819       0.0394015 
        5.26217       0.0866246       0.0391077 
        5.27788       0.0876325       0.0388165 
        5.29359        0.088597       0.0385282 
        5.30933       0.0896133       0.0382424 
        5.32504       0.0907234         0.03796 
        5.34073       0.0914011       0.0376808 
        5.35646       0.0929368       0.0374039 
        5.37218       0.0939885       0.0371297 
        5.38789        0.095214       0.0368587 
        5.40357        0.096123       0.0365908 
        5.41929       0.0974447       0.0363249 
        5.43502       0.0991211       0.0360616 
         5.4507         0.10038       0.0358016 
        5.46639        0.101714       0.0355441 
        5.48212        0.102764       0.0352886 
        5.49786        0.104587       0.0350353 
        5.51353        0.106761       0.0347858 
        5.52921        0.107234       0.0345384 
        5.54495        0.109756       0.0342927 
        5.56066        0.111078       0.0340497 
        5.57637        0.112731       0.0338091 
        5.59207        0.113831       0.0335711 
        5.60778        0.115966       0.0333353 
        5.62346        0.117753        0.033102 
        5.63916        0.119532       0.0328708 
        5.65487        0.122035       0.0326417 
         5.6706        0.123125       0.0324145 
        5.68633        0.125631       0.0321894 
        5.70203        0.127694       0.0319669 
        5.71773        0.129779       0.0317466 
        5.73344        0.132368       0.0315282 
        5.74916        0.134657       0.0313117 
        5.76486        0.136589       0.0310975 
        5.78054        0.138672       0.0308857 
        5.79626        0.141513       0.0306753 
          5.812        0.143254       0.0304666 
         5.8277        0.145625       0.0302605 
        5.84339        0.148514       0.0300563 
        5.85911        0.150588       0.0298536 
        5.87484        0.153362       0.0296528 
        5.89053        0.155589       0.0294543 
        5.90623        0.159779       0.0292575 
        5.92195         0.16121       0.0290621 
        5.93767        0.164181       0.0288687 
        5.95336        0.167194       0.0286774 
        5.96905        0.170329       0.0284878 
        5.98476        0.172561       0.0282997 
        6.00048        0.176133       0.0281133 
        6.01617        0.178997       0.0279288 
        6.03185        0.181985       0.0277462 
        6.04756        0.184791       0.0275648 
        6.06331         0.18926       0.0273846 
        6.07903        0.192785       0.0272065 
        6.09473        0.194616       0.0270301 
        6.11044        0.200295       0.0268551 
        6.12616        0.200747       0.0266817 
        6.14186        0.205321         0.02651 
        6.15755        0.209177       0.0263398 
        6.17326        0.213395        0.026171 
        6.18898        0.215897       0.0260036 
        6.20467        0.219714        0.025838 
        6.22036         0.22314       0.0256738 
         6.2361        0.225121       0.0255106 
         6.2518         0.23061       0.0253491 
        6.26748         0.23519       0.0251894 
        6.28319        0.239631       0.0250306 
        6.29893        0.243531       0.0248731 
        6.31463        0.247486       0.0247172 
        6.33033        0.250006       0.0245627 
        6.34604        0.255296       0.0244094 
        6.36177        0.258925       0.0242572 
        6.37747        0.262853       0.0241067 
