# k  (h/Mpc)    Pcb(k)  (Mpc/h)^3    Pcb_linear(k) (Mpc/h)^3   ShotnoiseSubtracted = true
      0.0200456         17615.9         17912.8 
      0.0350414         12738.1         12321.9 
      0.0492313         8807.09         8936.28 
      0.0637834         7203.99         7551.32 
      0.0800726         5492.14         5770.68 
       0.096163         4280.95         4079.69 
       0.111083         3579.08         3382.52 
       0.126058          2993.3         3038.37 
       0.142273         2525.77         2450.08 
       0.158546         2061.74          1915.7 
        0.17375         1860.17         1689.63 
       0.188953         1748.25         1537.35 
       0.204907         1477.27         1305.13 
       0.220756          1327.9         1098.11 
        0.23588         1193.63         989.083 
         0.2514         1073.52         904.155 
       0.267535         1036.24         795.517 
       0.283568          912.43         698.144 
       0.299022         872.661         635.527 
       0.314451         900.113          584.49 
       0.330372         778.359          528.04 
       0.346141         718.019         476.995 
       0.361624          688.29         438.515 
       0.377134         653.721         405.762 
       0.392932         627.962         372.984 
       0.408854         599.751         342.543 
       0.424564         583.584         317.408 
       0.440253         533.875          295.46 
       0.455999          511.03         274.681 
       0.471626          519.67         255.661 
        0.48727          489.87         238.875 
       0.502856         459.586         223.881 
       0.518488          454.81          209.95 
       0.534347         428.702         196.862 
       0.550082         411.225         185.108 
       0.565732         407.886         174.452 
       0.581496         396.204         164.533 
       0.597222         385.167         155.347 
       0.612804         375.738         146.972 
       0.628434         361.366         139.222 
       0.644267         348.136         131.937 
       0.660051         343.781         125.194 
       0.675724          337.32         118.967 
       0.691403         330.278         113.165 
       0.707174         317.534         107.722 
       0.722871         312.617         102.663 
        0.73838         308.841         97.9868 
       0.754018         297.466         93.5689 
       0.769845         296.463         89.3775 
        0.78569         289.174          85.441 
       0.801365         280.574         81.7821 
       0.817031         277.828         78.3416 
       0.832809         272.635         75.0788 
       0.848511         266.241          72.018 
       0.864097         259.433         69.1503 
       0.879701         258.504         66.4373 
       0.895507         251.655         63.8392 
       0.911279         245.752         61.3867 
        0.92691         243.146         59.0845 
       0.942635          241.39         56.8888 
       0.958396         234.895         54.8011 
       0.974128         232.165          52.823 
       0.989692         223.774          50.963 
        1.00528         223.651         49.1907 
        1.02113         220.463         47.4758 
        1.03692         215.614         45.8498 
        1.05264         211.972         44.3082 
        1.06832         211.582         42.8405 
        1.08405          205.93         41.4361 
        1.09979          204.36         40.0944 
        1.11537         200.685          38.826 
        1.13105         197.222         37.6055 
        1.14679         195.747         36.4331 
        1.16256         192.511          35.309 
        1.17828         190.666         34.2364 
        1.19395         185.642         33.2123 
         1.2097         184.962         32.2253 
        1.22537         183.796         31.2836 
          1.241         178.738         30.3826 
        1.25666         177.255         29.5152 
        1.27241         173.686         28.6779 
        1.28819         171.973         27.8719 
        1.30392         169.844         27.0996 
        1.31957         166.009         26.3601 
        1.33529         163.877         25.6458 
        1.35108         162.718         24.9554 
        1.36674         159.625         24.2955 
         1.3824         158.776         23.6603 
        1.39811         156.012         23.0459 
        1.41389         153.196         22.4511 
        1.42964         151.403         21.8785 
        1.44531         150.215         21.3288 
        1.46101         147.102          20.797 
        1.47667         146.784         20.2851 
        1.49229         144.468         19.7919 
        1.50793         141.841         19.3146 
        1.52367         140.463         18.8502 
        1.53953         137.884          18.398 
        1.55526         137.438         17.9645 
        1.57092          135.86         17.5467 
        1.58662         132.867         17.1414 
        1.60235         131.651         16.7482 
        1.61809         130.093         16.3672 
        1.63369         128.068         16.0016 
        1.64941         127.383         15.6446 
        1.66519         125.633         15.2973 
        1.68085         123.331         14.9631 
        1.69652          122.44         14.6388 
        1.71228         121.212         14.3224 
        1.72806          120.05         14.0152 
        1.74368         118.177         13.7201 
        1.75933         117.226          13.433 
        1.77505         115.324         13.1528 
        1.79081         113.838         12.8802 
         1.8065         111.859         12.6165 
        1.82218         110.877         12.3605 
        1.83797         110.519         12.1099 
        1.85367          108.59         11.8677 
        1.86928         108.017         11.6336 
        1.88497         106.058         11.4045 
        1.90073         105.386         11.1809 
        1.91647         103.622         10.9635 
        1.93218         102.588         10.7523 
        1.94787         101.046         10.5471 
        1.96363         100.346         10.3465 
        1.97935         99.4221         10.1515 
        1.99499         98.4925          9.9627 
        2.01064          96.265         9.77845 
         2.0264         95.7273         9.59773 
        2.04216         93.8315          9.4217 
        2.05781         93.4815         9.25122 
        2.07353         92.3783         9.08439 
        2.08928         91.0521         8.92133 
        2.10499         90.1141         8.76274 
        2.12065         89.5468          8.6085 
        2.13633         88.4206         8.45787 
        2.15211         87.0215         8.30989 
        2.16785         85.8507         8.16589 
        2.18349         84.9055         8.02623 
        2.19916         83.9599         7.88956 
        2.21489          83.197         7.75564 
        2.23063         81.8847         7.62476 
         2.2463         81.4452         7.49751 
        2.26194         80.4572          7.3735 
        2.27765         79.5264         7.25167 
        2.29341         78.6722          7.1323 
        2.30914         77.8115         7.01588 
        2.32486         76.3818         6.90213 
        2.34061         75.8365         6.79074 
        2.35635         74.9848         6.68192 
        2.37203         73.9751         6.57588 
        2.38768         73.3263         6.47237 
        2.40339          72.606         6.37072 
        2.41914          71.342         6.27104 
        2.43483         71.0034         6.17386 
         2.4505         69.9981         6.07891 
        2.46622         69.5268         5.98564 
        2.48195         68.5518         5.89434 
        2.49759         67.8011         5.80544 
        2.51328         67.0569         5.71815 
        2.52906         66.3026         5.63212 
        2.54479         65.6765         5.54818 
        2.56049         64.8507         5.46614 
        2.57618         64.0573         5.38583 
        2.59189         63.5959         5.30702 
        2.60758         62.7648         5.22992 
        2.62325         62.1211         5.15446 
        2.63898         61.5818         5.08024 
        2.65468         61.0042         5.00763 
        2.67044         60.3423         4.93615 
        2.68618         59.7798         4.86623 
        2.70184         59.0927         4.79796 
        2.71755         58.1364         4.73083 
        2.73329         57.7453         4.66489 
        2.74897         57.1916         4.60043 
        2.76462         56.8327         4.53734 
        2.78034         56.1605         4.47518 
        2.79607         55.3625         4.41412 
        2.81179         54.8126         4.35428 
        2.82749         54.2565         4.29562 
        2.84321         53.9253         4.23799 
        2.85893         53.2561         4.18143 
        2.87462         52.5195         4.12601 
        2.89033         52.0256         4.07155 
        2.90605         51.3821         4.01802 
        2.92176          51.084          3.9655 
        2.93747         50.4428         3.91394 
        2.95318          49.935          3.8633 
        2.96891         49.3598         3.81353 
        2.98456         49.0291         3.76487 
        3.00023         48.2991         3.71699 
        3.01596         47.9025         3.66979 
        3.03164         47.4618         3.62356 
        3.04738         47.0535         3.57799 
         3.0631         46.6656         3.53323 
        3.07883         46.0752         3.48923 
        3.09456         45.5888         3.44599 
        3.11026         45.1523         3.40356 
        3.12596         44.7441         3.36185 
        3.14163          44.226         3.32094 
        3.15734          43.844         3.28061 
        3.17308         43.4677         3.24087 
        3.18879         43.1701         3.20189 
        3.20447         42.5802         3.16362 
         3.2202         42.2277         3.12585 
         3.2359         41.8396         3.08878 
        3.25157          41.333         3.05239 
        3.26729         41.0545         3.01649 
        3.28304         40.6923         2.98109 
        3.29877         40.1104         2.94632 
        3.31446         39.8295         2.91217 
        3.33014         39.3894          2.8786 
        3.34585         38.9503         2.84551 
        3.36158         38.6679          2.8129 
        3.37727         38.2736          2.7809 
        3.39294         37.9108         2.74943 
        3.40867         37.6045         2.71833 
        3.42439         37.1741         2.68774 
        3.44008         36.8575         2.65768 
        3.45578          36.541         2.62806 
        3.47153         36.2542         2.59883 
        3.48724         35.8722         2.57009 
        3.50292         35.5837         2.54186 
        3.51859         35.2796         2.51407 
        3.53431         34.9707         2.48661 
        3.55007         34.4278          2.4595 
        3.56577         34.3334          2.4329 
        3.58146         33.8563          2.4067 
        3.59719         33.6611         2.38084 
        3.61292          33.375         2.35536 
        3.62859         33.0183         2.33036 
        3.64429         32.7096         2.30567 
        3.66003         32.3789         2.28126 
        3.67578          32.169         2.25722 
        3.69146         31.8863         2.23362 
        3.70712         31.4878          2.2104 
        3.72284         31.2995         2.18743 
        3.73853         31.0812         2.16482 
        3.75422         30.7432         2.14253 
        3.76993         30.4618         2.12053 
        3.78564         30.1625         2.09886 
        3.80137         30.0252         2.07745 
        3.81707         29.6774         2.05639 
        3.83279         29.4043          2.0356 
        3.84853         29.1247         2.01507 
        3.86424         28.7856         1.99486 
        3.87992         28.5624         1.97496 
        3.89561         28.3983         1.95534 
        3.91134         28.0672         1.93594 
        3.92704         27.8185         1.91683 
        3.94273         27.5319         1.89799 
        3.95845          27.363         1.87938 
        3.97418         27.0546         1.86101 
        3.98988         26.8637         1.84292 
        4.00554         26.5796         1.82511 
        4.02125         26.4441          1.8075 
        4.03698         26.1695         1.79008 
        4.05268          25.962         1.77294 
        4.06839         25.6959         1.75601 
         4.0841         25.4612         1.73931 
        4.09983         25.2338          1.7228 
        4.11555         25.0304         1.70652 
        4.13124         24.9743         1.69049 
        4.14693         24.6236         1.67466 
        4.16266         24.4621         1.65899 
        4.17839         24.2648         1.64353 
        4.19408         23.9932         1.62831 
        4.20977         23.8537         1.61327 
        4.22551          23.681         1.59839 
        4.24123         23.4223         1.58371 
        4.25691         23.2503         1.56926 
        4.27259         23.0915         1.55498 
        4.28831         22.8637         1.54085 
        4.30404         22.6677         1.52689 
        4.31974         22.4923         1.51313 
        4.33543          22.309         1.49955 
        4.35116         22.1417          1.4861 
        4.36688         21.9075         1.47283 
        4.38255         21.7258         1.45976 
        4.39825         21.5824         1.44683 
        4.41398         21.3989         1.43403 
         4.4297         21.2557          1.4214 
        4.44541         21.0576         1.40892 
        4.46111          20.804         1.39661 
        4.47683          20.682         1.38443 
        4.49251         20.5588         1.37242 
        4.50819         20.3591         1.36056 
         4.5239          20.206         1.34883 
        4.53962         20.0948         1.33721 
        4.55535         19.8907         1.32573 
        4.57106         19.7791          1.3144 
        4.58678         19.5531         1.30321 
         4.6025         19.3735         1.29214 
        4.61821         19.2705          1.2812 
        4.63391         19.1178          1.2704 
         4.6496         18.9925         1.25974 
        4.66532         18.7781         1.24917 
        4.68103          18.666         1.23874 
        4.69673          18.528         1.22843 
        4.71241         18.3917         1.21826 
        4.72811         18.2198         1.20818 
        4.74384         18.0816          1.1982 
        4.75955         17.9205         1.18836 
        4.77525         17.8064         1.17863 
        4.79096         17.6492         1.16899 
        4.80669         17.5476         1.15946 
         4.8224         17.4002         1.15005 
        4.83809         17.2309         1.14075 
        4.85379         17.1112         1.13155 
         4.8695         17.0293         1.12245 
        4.88521          16.872         1.11345 
        4.90093         16.7182         1.10454 
        4.91663         16.5898         1.09575 
        4.93234         16.4841         1.08704 
        4.94807         16.3523         1.07842 
        4.96377         16.2263         1.06991 
        4.97943         16.1264         1.06151 
        4.99514         15.9831         1.05317 
        5.01086         15.8727         1.04493 
        5.02654         15.7624         1.03679 
        5.04227         15.6311         1.02871 
          5.058         15.5038         1.02072 
        5.07371         15.3932         1.01283 
        5.08942         15.2989         1.00502 
        5.10513         15.1535        0.997293 
        5.12084         15.0774        0.989644 
        5.13656         14.9457        0.982077 
        5.15225         14.8601        0.974602 
        5.16796         14.7212        0.967194 
        5.18369         14.5834        0.959856 
         5.1994         14.5075        0.952608 
        5.21509          14.389        0.945442 
        5.23079         14.2933        0.938341 
        5.24649         14.2044         0.93132 
        5.26217         14.0854        0.924375 
        5.27788           13.99        0.917491 
        5.29359         13.8728        0.910677 
        5.30933         13.7923        0.903923 
        5.32504         13.7042        0.897248 
        5.34073         13.5861        0.890649 
        5.35646         13.5162        0.884103 
        5.37218          13.408        0.877622 
        5.38789         13.2868        0.871217 
        5.40357         13.2156        0.864883 
        5.41929         13.1107        0.858599 
        5.43502         13.0122        0.852376 
         5.4507         12.9165        0.846231 
        5.46639         12.8162        0.840145 
        5.48212         12.7361        0.834105 
        5.49786         12.6402        0.828118 
        5.51353          12.564         0.82222 
        5.52921         12.4794        0.816373 
        5.54495         12.3812        0.810566 
        5.56066          12.276        0.804822 
        5.57637         12.2111        0.799135 
        5.59207         12.1348        0.793509 
        5.60778         12.0418        0.787934 
        5.62346         11.9419        0.782421 
        5.63916         11.8663        0.776956 
        5.65487         11.7943        0.771541 
         5.6706         11.7022        0.766171 
        5.68633         11.6079         0.76085 
        5.70203         11.5383        0.755591 
        5.71773          11.439        0.750383 
        5.73344         11.3868        0.745222 
        5.74916         11.3034        0.740104 
        5.76486         11.2395        0.735042 
        5.78054         11.1543        0.730035 
        5.79626         11.0745        0.725061 
          5.812         11.0117        0.720129 
         5.8277         10.9277        0.715257 
        5.84339         10.8194         0.71043 
        5.85911         10.7619        0.705639 
        5.87484         10.6853        0.700893 
        5.89053         10.6106          0.6962 
        5.90623         10.5642        0.691549 
        5.92195         10.4744        0.686932 
        5.93767         10.4436         0.68236 
        5.95336          10.318        0.677837 
        5.96905         10.2826        0.673357 
        5.98476         10.2038        0.668912 
        6.00048         10.1278        0.664505 
        6.01617         10.0755        0.660144 
        6.03185         9.98837        0.655828 
        6.04756         9.93094         0.65154 
        6.06331         9.86964        0.647282 
        6.07903         9.80603         0.64307 
        6.09473         9.73528        0.638901 
        6.11044         9.65774        0.634764 
        6.12616         9.61418        0.630665 
        6.14186         9.55942        0.626607 
        6.15755         9.47779        0.622585 
        6.17326          9.4374        0.618595 
        6.18898         9.36392        0.614638 
        6.20467         9.29454        0.610723 
        6.22036         9.23909        0.606843 
         6.2361         9.14911        0.602986 
         6.2518         9.11642        0.599169 
        6.26748         9.04832        0.595394 
        6.28319         9.01746        0.591641 
        6.29893          8.9384        0.587917 
        6.31463         8.87001        0.584232 
        6.33033         8.81703        0.580579 
        6.34604         8.77336        0.576956 
        6.36177         8.72598         0.57336 
        6.37747         8.64827        0.569801 
