# k  (h/Mpc)    Pcb(k)  (Mpc/h)^3    Pcb_linear(k) (Mpc/h)^3   ShotnoiseSubtracted = true
      0.0200456         1162.89         1179.99 
      0.0350414         809.174         811.694 
      0.0492313         590.672         588.669 
      0.0637834         500.251         497.436 
      0.0800726         383.609         380.138 
       0.096163         268.687         268.746 
       0.111083         220.834         222.821 
       0.126058         200.423          200.15 
       0.142273         163.611         161.396 
       0.158546          128.73         126.195 
        0.17375         110.945         111.303 
       0.188953         102.197         101.271 
       0.204907         89.7707         85.9745 
       0.220756         74.5563         72.3372 
        0.23588         66.7455         65.1549 
         0.2514         60.2898         59.5604 
       0.267535         53.7992         52.4039 
       0.283568         47.6222         45.9896 
       0.299022         43.6001         41.8648 
       0.314451         39.2462         38.5028 
       0.330372         35.9936         34.7841 
       0.346141         32.5556         31.4216 
       0.361624         30.1565         28.8868 
       0.377134         28.2385         26.7292 
       0.392932         25.0591           24.57 
       0.408854         23.8817         22.5647 
       0.424564         22.1689         20.9089 
       0.440253         20.5225         19.4632 
       0.455999         19.2837         18.0943 
       0.471626         18.0884         16.8414 
        0.48727         16.9369         15.7356 
       0.502856         15.8097         14.7479 
       0.518488          15.078         13.8302 
       0.534347          14.376         12.9681 
       0.550082         13.1377         12.1938 
       0.565732         12.1534         11.4919 
       0.581496         11.8833         10.8385 
       0.597222         11.3744         10.2334 
       0.612804         10.6011         9.68166 
       0.628434         10.2097         9.17115 
       0.644267         9.75595         8.69124 
       0.660051         9.19626         8.24703 
       0.675724           8.739         7.83685 
       0.691403         8.43697         7.45464 
       0.707174         8.00706          7.0961 
       0.722871         7.66827         6.76285 
        0.73838         7.36229         6.45479 
       0.754018         7.11997         6.16376 
       0.769845         6.75383         5.88766 
        0.78569         6.52518         5.62835 
       0.801365         6.23974         5.38732 
       0.817031         6.02726         5.16068 
       0.832809         5.82377         4.94574 
       0.848511         5.49761         4.74411 
       0.864097         5.30691         4.55521 
       0.879701         5.13008          4.3765 
       0.895507         4.90585         4.20535 
       0.911279           4.831         4.04379 
        0.92691         4.64871         3.89214 
       0.942635         4.44246          3.7475 
       0.958396         4.28708         3.60997 
       0.974128          4.1701         3.47966 
       0.989692         4.08491         3.35714 
        1.00528         3.90385         3.24039 
        1.02113         3.76085         3.12742 
        1.03692         3.69104         3.02031 
        1.05264         3.56051         2.91876 
        1.06832         3.47485         2.82208 
        1.08405         3.31125         2.72956 
        1.09979         3.24533         2.64118 
        1.11537         3.16022         2.55763 
        1.13105         3.07698         2.47722 
        1.14679         2.99524             2.4 
        1.16256         2.89394         2.32594 
        1.17828         2.83015         2.25529 
        1.19395         2.75334         2.18783 
         1.2097         2.63948         2.12281 
        1.22537         2.58052         2.06078 
          1.241         2.52707         2.00143 
        1.25666         2.50682         1.94429 
        1.27241         2.38982         1.88913 
        1.28819         2.33894         1.83604 
        1.30392         2.29623         1.78516 
        1.31957         2.24249         1.73645 
        1.33529         2.17584         1.68939 
        1.35108         2.12724         1.64391 
        1.36674         2.06761         1.60044 
         1.3824         2.01093          1.5586 
        1.39811          1.9683         1.51812 
        1.41389          1.9356         1.47894 
        1.42964         1.89175         1.44122 
        1.44531         1.84943         1.40501 
        1.46101         1.81034         1.36998 
        1.47667         1.74931         1.33626 
        1.49229         1.73585         1.30377 
        1.50793         1.68849         1.27233 
        1.52367         1.66238         1.24174 
        1.53953         1.60907         1.21195 
        1.55526         1.57966         1.18339 
        1.57092         1.54881         1.15587 
        1.58662         1.52071         1.12917 
        1.60235         1.48512         1.10327 
        1.61809         1.45301         1.07818 
        1.63369         1.43869         1.05409 
        1.64941         1.39909         1.03057 
        1.66519          1.3765         1.00769 
        1.68085         1.33665        0.985678 
        1.69652         1.31579        0.964318 
        1.71228         1.29821        0.943474 
        1.72806         1.26215        0.923235 
        1.74368         1.24662        0.903797 
        1.75933         1.21696        0.884884 
        1.77505         1.19883        0.866427 
        1.79081         1.17678        0.848468 
         1.8065         1.14972        0.831099 
        1.82218         1.13703        0.814235 
        1.83797         1.11891        0.797727 
        1.85367         1.10378         0.78177 
        1.86928         1.08369        0.766349 
        1.88497         1.05612        0.751263 
        1.90073         1.03358        0.736531 
        1.91647         1.02721        0.722209 
        1.93218         1.00811        0.708301 
        1.94787        0.986617        0.694782 
        1.96363        0.969033        0.681565 
        1.97935        0.952673        0.668721 
        1.99499        0.936568        0.656283 
        2.01064        0.920425        0.644146 
         2.0264        0.911671        0.632241 
        2.04216        0.894775        0.620645 
        2.05781        0.878695        0.609416 
        2.07353        0.866671        0.598425 
        2.08928        0.848995        0.587684 
        2.10499        0.838283        0.577237 
        2.12065        0.831118        0.567077 
        2.13633        0.814875        0.557154 
        2.15211         0.79978        0.547406 
        2.16785        0.784877         0.53792 
        2.18349        0.776681         0.52872 
        2.19916         0.76387        0.519717 
        2.21489        0.750856        0.510895 
        2.23063        0.739481        0.502274 
         2.2463        0.734685        0.493891 
        2.26194        0.714515        0.485722 
        2.27765        0.706184        0.477697 
        2.29341        0.699941        0.469833 
        2.30914        0.693513        0.462164 
        2.32486        0.681096        0.454672 
        2.34061        0.669923        0.447334 
        2.35635        0.657523        0.440165 
        2.37203        0.650762         0.43318 
        2.38768        0.642692        0.426361 
        2.40339        0.634308        0.419665 
        2.41914        0.627052        0.413099 
        2.43483        0.616094        0.406697 
         2.4505        0.607205        0.400442 
        2.46622        0.599412        0.394298 
        2.48195        0.595227        0.388284 
        2.49759        0.584992        0.382428 
        2.51328        0.574408        0.376678 
        2.52906        0.568388         0.37101 
        2.54479        0.561981        0.365481 
        2.56049        0.552785        0.360076 
        2.57618        0.548043        0.354786 
        2.59189        0.540152        0.349595 
        2.60758        0.534056        0.344516 
        2.62325         0.52654        0.339545 
        2.63898        0.521742        0.334656 
        2.65468        0.514375        0.329873 
        2.67044        0.506411        0.325164 
        2.68618        0.499995        0.320559 
        2.70184        0.494246        0.316061 
        2.71755        0.488301        0.311639 
        2.73329         0.48364        0.307295 
        2.74897        0.477859        0.303049 
        2.76462        0.471515        0.298893 
        2.78034        0.466547        0.294798 
        2.79607        0.460804        0.290776 
        2.81179        0.454955        0.286834 
        2.82749        0.450822         0.28297 
        2.84321        0.446047        0.279173 
        2.85893         0.43997        0.275448 
        2.87462        0.435175        0.271797 
        2.89033        0.429194        0.268209 
        2.90605        0.425858        0.264684 
        2.92176        0.420044        0.261223 
        2.93747        0.415986        0.257827 
        2.95318         0.41149        0.254491 
        2.96891        0.407185        0.251213 
        2.98456         0.40315        0.248007 
        3.00023         0.39879        0.244853 
        3.01596        0.393837        0.241744 
        3.03164        0.390778        0.238699 
        3.04738        0.384147        0.235697 
         3.0631        0.382195        0.232748 
        3.07883        0.376807         0.22985 
        3.09456        0.372852        0.227002 
        3.11026        0.369596        0.224206 
        3.12596        0.365307        0.221459 
        3.14163        0.362283        0.218764 
        3.15734        0.359832        0.216107 
        3.17308        0.354949        0.213489 
        3.18879        0.352007        0.210922 
        3.20447        0.347708          0.2084 
         3.2202        0.345385        0.205913 
         3.2359        0.341526         0.20347 
        3.25157        0.337889        0.201073 
        3.26729        0.335855        0.198708 
        3.28304        0.332116        0.196377 
        3.29877        0.328566        0.194086 
        3.31446        0.326093        0.191837 
        3.33014        0.323275        0.189625 
        3.34585        0.321742        0.187445 
        3.36158         0.31761        0.185297 
        3.37727        0.314931        0.183189 
        3.39294        0.312162        0.181116 
        3.40867        0.308856        0.179068 
        3.42439        0.306918        0.177052 
        3.44008        0.304399        0.175072 
        3.45578        0.302642        0.173121 
        3.47153        0.299007        0.171195 
        3.48724        0.297929        0.169302 
        3.50292        0.295343        0.167443 
        3.51859        0.291583        0.165612 
        3.53431        0.289876        0.163803 
        3.55007        0.288233        0.162017 
        3.56577        0.284659        0.160265 
        3.58146        0.282002        0.158539 
        3.59719        0.280656        0.156835 
        3.61292        0.278922        0.155157 
        3.62859        0.275032         0.15351 
        3.64429        0.274053        0.151884 
        3.66003        0.271844        0.150276 
        3.67578         0.26927        0.148692 
        3.69146        0.267697        0.147138 
        3.70712        0.265764        0.145608 
        3.72284        0.263814        0.144095 
        3.73853         0.26251        0.142606 
        3.75422        0.259665        0.141137 
        3.76993        0.258064        0.139688 
        3.78564        0.255763         0.13826 
        3.80137        0.253518         0.13685 
        3.81707        0.252586        0.135462 
        3.83279        0.250176        0.134093 
        3.84853        0.248341        0.132741 
        3.86424        0.246229         0.13141 
        3.87992        0.244816        0.130099 
        3.89561        0.242536        0.128806 
        3.91134        0.241881        0.127528 
        3.92704        0.239052        0.126269 
        3.94273        0.237264        0.125029 
        3.95845        0.235509        0.123802 
        3.97418        0.233561        0.122593 
        3.98988        0.231757        0.121401 
        4.00554        0.229915        0.120228 
        4.02125         0.22769        0.119067 
        4.03698        0.225899         0.11792 
        4.05268        0.223948        0.116791 
        4.06839        0.221206        0.115676 
         4.0841        0.218353        0.114575 
        4.09983        0.216036        0.113488 
        4.11555        0.213933        0.112415 
        4.13124        0.211236        0.111359 
        4.14693        0.210015        0.110316 
        4.16266        0.207584        0.109284 
        4.17839        0.206074        0.108266 
        4.19408        0.203878        0.107263 
        4.20977         0.20234        0.106273 
        4.22551        0.200568        0.105292 
        4.24123        0.198724        0.104325 
        4.25691        0.196979        0.103373 
        4.27259        0.195407        0.102433 
        4.28831         0.19411        0.101502 
        4.30404        0.191712        0.100582 
        4.31974        0.191264       0.0996759 
        4.33543        0.189279       0.0987813 
        4.35116        0.187851       0.0978955 
        4.36688        0.186712        0.097021 
        4.38255        0.185054       0.0961604 
        4.39825        0.184268       0.0953085 
        4.41398        0.182824       0.0944653 
         4.4297        0.181487       0.0936332 
        4.44541        0.180799       0.0928114 
        4.46111        0.180016       0.0920001 
        4.47683        0.179076       0.0911979 
        4.49251        0.177736        0.090407 
        4.50819        0.176582       0.0896257 
         4.5239        0.176265       0.0888526 
        4.53962        0.175265       0.0880876 
        4.55535        0.174392       0.0873314 
        4.57106        0.173468       0.0865852 
        4.58678        0.173139       0.0858475 
         4.6025        0.172219       0.0851183 
        4.61821        0.171673       0.0843978 
        4.63391        0.171018       0.0836866 
         4.6496        0.170713       0.0829839 
        4.66532        0.170116       0.0822882 
        4.68103         0.16989       0.0816008 
        4.69673        0.169236        0.080922 
        4.71241        0.168992       0.0802516 
        4.72811        0.168152       0.0795877 
        4.74384        0.168463       0.0789306 
        4.75955        0.168195       0.0782819 
        4.77525        0.167952       0.0776409 
        4.79096        0.167242       0.0770063 
        4.80669        0.167554       0.0763785 
         4.8224        0.167098       0.0757585 
        4.83809        0.167077        0.075146 
        4.85379         0.16747         0.07454 
         4.8695        0.166981       0.0739402 
        4.88521        0.167037       0.0733473 
        4.90093        0.167537       0.0727608 
        4.91663        0.167672       0.0721813 
        4.93234        0.167503       0.0716076 
        4.94807        0.168061       0.0710397 
        4.96377        0.168406        0.070479 
        4.97943         0.16898       0.0699257 
        4.99514        0.168865       0.0693768 
        5.01086        0.169766       0.0688335 
        5.02654        0.169615       0.0682974 
        5.04227        0.169666       0.0677655 
          5.058        0.170829        0.067239 
        5.07371         0.17129       0.0667191 
        5.08942        0.172275       0.0662047 
        5.10513        0.172432       0.0656957 
        5.12084        0.173138       0.0651919 
        5.13656        0.173946       0.0646934 
        5.15225        0.174884        0.064201 
        5.16796        0.176007        0.063713 
        5.18369        0.175457       0.0632296 
         5.1994        0.176961       0.0627522 
        5.21509        0.177839       0.0622801 
        5.23079        0.179456       0.0618123 
        5.24649        0.180155       0.0613498 
        5.26217        0.180988       0.0608923 
        5.27788        0.182226       0.0604389 
        5.29359        0.183138         0.05999 
        5.30933        0.185038       0.0595451 
        5.32504        0.185167       0.0591054 
        5.34073        0.187035       0.0586707 
        5.35646        0.187898       0.0582395 
        5.37218        0.188972       0.0578125 
        5.38789        0.190411       0.0573906 
        5.40357        0.192616       0.0569734 
        5.41929        0.193439       0.0565594 
        5.43502        0.194005       0.0561495 
         5.4507        0.196307       0.0557446 
        5.46639        0.197772       0.0553438 
        5.48212        0.199746       0.0549459 
        5.49786        0.200897       0.0545515 
        5.51353        0.203676       0.0541629 
        5.52921        0.204281       0.0537778 
        5.54495        0.206056       0.0533953 
        5.56066        0.208693       0.0530169 
        5.57637        0.210218       0.0526423 
        5.59207        0.212348       0.0522716 
        5.60778        0.214128       0.0519044 
        5.62346        0.216571       0.0515413 
        5.63916        0.217659       0.0511812 
        5.65487        0.219523       0.0508245 
         5.6706        0.221239       0.0504708 
        5.68633        0.224948       0.0501203 
        5.70203        0.226255       0.0497738 
        5.71773        0.228554       0.0494308 
        5.73344        0.230021       0.0490908 
        5.74916        0.233186       0.0487537 
        5.76486        0.234566       0.0484202 
        5.78054        0.237836       0.0480904 
        5.79626        0.238844       0.0477627 
          5.812        0.241973       0.0474378 
         5.8277        0.244121       0.0471169 
        5.84339        0.247928       0.0467989 
        5.85911        0.249393       0.0464833 
        5.87484         0.25054       0.0461707 
        5.89053        0.254712       0.0458615 
        5.90623        0.256663       0.0455551 
        5.92195        0.259292        0.045251 
        5.93767         0.26174       0.0449498 
        5.95336        0.264417       0.0446519 
        5.96905        0.268806       0.0443568 
        5.98476        0.269781       0.0440639 
        6.00048        0.273624       0.0437736 
        6.01617        0.275325       0.0434864 
        6.03185        0.277497        0.043202 
        6.04756        0.280203       0.0429196 
        6.06331        0.282689       0.0426391 
        6.07903        0.285045       0.0423616 
        6.09473        0.289374        0.042087 
        6.11044         0.29196       0.0418145 
        6.12616        0.294523       0.0415445 
        6.14186        0.298103       0.0412771 
        6.15755        0.300334       0.0410122 
        6.17326        0.304287       0.0407493 
        6.18898        0.307466       0.0404887 
        6.20467        0.310494       0.0402308 
        6.22036        0.310285       0.0399752 
         6.2361        0.313952       0.0397211 
         6.2518        0.317992       0.0394697 
        6.26748         0.31898        0.039221 
        6.28319        0.323058       0.0389738 
        6.29893         0.32591       0.0387285 
        6.31463        0.330376       0.0384857 
        6.33033        0.332114       0.0382451 
        6.34604        0.335342       0.0380064 
        6.36177        0.337832       0.0377695 
        6.37747         0.34096       0.0375351 
