# k  (h/Mpc)    Pcb(k)  (Mpc/h)^3    Pcb_linear(k) (Mpc/h)^3   ShotnoiseSubtracted = true
      0.0200456         17186.6         17474.5 
      0.0350414         12423.6         12020.4 
      0.0492313         8595.55         8717.63 
      0.0637834            7032         7366.55 
      0.0800726         5361.41         5629.49 
       0.096163         4174.49         3979.87 
       0.111083         3490.25         3299.76 
       0.126058          2920.2         2964.03 
       0.142273         2461.79         2390.13 
       0.158546         2009.46         1868.82 
        0.17375         1811.96         1648.29 
       0.188953         1701.44         1499.73 
       0.204907         1436.81          1273.2 
       0.220756            1291         1071.24 
        0.23588         1160.52         964.882 
         0.2514         1043.29         882.032 
       0.267535         1007.08         776.053 
       0.283568         886.006         681.062 
       0.299022         847.494         619.977 
       0.314451         873.024         570.189 
       0.330372         754.024          515.12 
       0.346141         695.864         465.324 
       0.361624         666.895         427.786 
       0.377134         632.778         395.834 
       0.392932         608.255         363.858 
       0.408854          580.73         334.161 
       0.424564         564.773         309.641 
       0.440253         516.112         288.231 
       0.455999         494.084          267.96 
       0.471626         502.105         249.406 
        0.48727           473.4          233.03 
       0.502856         443.272         218.403 
       0.518488         439.359         204.813 
       0.534347           413.5         192.046 
       0.550082         396.947         180.579 
       0.565732         393.934         170.184 
       0.581496         382.094         160.508 
       0.597222         371.322         151.546 
       0.612804         362.125         143.376 
       0.628434         348.342         135.816 
       0.644267         335.323         128.709 
       0.660051          331.08         122.131 
       0.675724         325.044         116.056 
       0.691403         318.129         110.396 
       0.707174         305.803         105.086 
       0.722871         301.075         100.151 
        0.73838         297.583         95.5892 
       0.754018         286.311         91.2795 
       0.769845         285.463         87.1907 
        0.78569         278.323         83.3505 
       0.801365         270.173         79.7811 
       0.817031         267.257         76.4248 
       0.832809         262.255         73.2418 
       0.848511         255.977         70.2558 
       0.864097         249.478         67.4583 
       0.879701         248.618         64.8117 
       0.895507         242.242         62.2772 
       0.911279         236.358         59.8847 
        0.92691         233.723         57.6388 
       0.942635         232.078         55.4968 
       0.958396         225.971         53.4602 
       0.974128         223.145         51.5305 
       0.989692         215.185          49.716 
        1.00528         215.016         47.9871 
        1.02113         211.818         46.3141 
        1.03692         207.186         44.7279 
        1.05264         203.745          43.224 
        1.06832         203.407         41.7923 
        1.08405         197.817         40.4223 
        1.09979         196.412         39.1134 
        1.11537         192.935          37.876 
        1.13105         189.606         36.6853 
        1.14679          188.11         35.5417 
        1.16256         184.912          34.445 
        1.17828         183.178         33.3987 
        1.19395         178.376         32.3997 
         1.2097         177.619         31.4369 
        1.22537         176.535         30.5181 
          1.241         171.809         29.6392 
        1.25666         170.211         28.7931 
        1.27241         166.644         27.9762 
        1.28819         165.101           27.19 
        1.30392         163.051         26.4365 
        1.31957         159.392         25.7152 
        1.33529         157.436         25.0183 
        1.35108         156.127         24.3448 
        1.36674         153.293          23.701 
         1.3824         152.512         23.0814 
        1.39811         149.606          22.482 
        1.41389         147.116         21.9017 
        1.42964         145.311         21.3431 
        1.44531         144.168         20.8069 
        1.46101          141.13         20.2881 
        1.47667         140.917         19.7887 
        1.49229         138.686         19.3076 
        1.50793         136.166          18.842 
        1.52367         134.739          18.389 
        1.53953         132.418         17.9479 
        1.55526         131.906         17.5249 
        1.57092         130.304         17.1174 
        1.58662         127.662          16.722 
        1.60235         126.351         16.3384 
        1.61809         125.002         15.9668 
        1.63369          122.97         15.6101 
        1.64941         122.402         15.2618 
        1.66519          120.65          14.923 
        1.68085         118.461         14.5969 
        1.69652         117.597         14.2806 
        1.71228         116.442          13.972 
        1.72806         115.248         13.6722 
        1.74368         113.405         13.3844 
        1.75933         112.554         13.1043 
        1.77505         110.692          12.831 
        1.79081         109.337          12.565 
         1.8065         107.423         12.3078 
        1.82218         106.519          12.058 
        1.83797         106.186         11.8136 
        1.85367         104.151         11.5773 
        1.86928         103.711         11.3489 
        1.88497         101.864         11.1255 
        1.90073         101.197         10.9073 
        1.91647         99.4922         10.6952 
        1.93218         98.4468         10.4893 
        1.94787         97.0544         10.2891 
        1.96363         96.3304         10.0933 
        1.97935         95.4769         9.90312 
        1.99499         94.5574         9.71893 
        2.01064          92.394         9.53919 
         2.0264         91.9052         9.36289 
        2.04216         90.1299         9.19117 
        2.05781         89.7695         9.02487 
        2.07353           88.72         8.86211 
        2.08928         87.4533         8.70304 
        2.10499         86.5215         8.54833 
        2.12065         86.0355         8.39787 
        2.13633         84.9359         8.25092 
        2.15211         83.5741         8.10656 
        2.16785         82.4091         7.96609 
        2.18349         81.5855         7.82984 
        2.19916         80.6942         7.69652 
        2.21489         79.8503         7.56588 
        2.23063         78.6792          7.4382 
         2.2463         78.2457         7.31406 
        2.26194         77.2756         7.19308 
        2.27765         76.4068         7.07424 
        2.29341           75.57         6.95778 
        2.30914          74.755         6.84421 
        2.32486         73.3322         6.73325 
        2.34061          72.818         6.62458 
        2.35635         72.0581         6.51843 
        2.37203         71.0507         6.41498 
        2.38768         70.4508           6.314 
        2.40339         69.7391         6.21485 
        2.41914         68.5116          6.1176 
        2.43483         68.2369          6.0228 
         2.4505         67.2758         5.93017 
        2.46622         66.8336         5.83918 
        2.48195         65.8941         5.75012 
        2.49759         65.1997         5.66339 
        2.51328         64.5204         5.57824 
        2.52906         63.8186         5.49431 
        2.54479         63.1395         5.41243 
        2.56049         62.3304         5.33239 
        2.57618         61.5979         5.25405 
        2.59189         61.1556         5.17717 
        2.60758         60.3754         5.10196 
        2.62325         59.7693         5.02834 
        2.63898         59.2511         4.95593 
        2.65468         58.6436         4.88511 
        2.67044         58.0435         4.81537 
        2.68618         57.4894         4.74717 
        2.70184         56.8161         4.68056 
        2.71755          55.904         4.61508 
        2.73329         55.5889         4.55075 
        2.74897         55.0818         4.48787 
        2.76462           54.66         4.42632 
        2.78034         54.0046         4.36568 
        2.79607         53.1956         4.30612 
        2.81179         52.7152         4.24774 
        2.82749         52.2095         4.19052 
        2.84321         51.8862         4.13429 
        2.85893         51.2325         4.07912 
        2.87462         50.4795         4.02505 
        2.89033          50.063         3.97192 
        2.90605         49.4314         3.91971 
        2.92176         49.1603         3.86847 
        2.93747          48.552         3.81818 
        2.95318         48.0687         3.76877 
        2.96891          47.538         3.72022 
        2.98456         47.2174         3.67275 
        3.00023         46.5156         3.62604 
        3.01596         46.1662            3.58 
        3.03164         45.7103          3.5349 
        3.04738         45.2835         3.49045 
         3.0631         44.9764         3.44678 
        3.07883         44.3912         3.40386 
        3.09456         43.9327         3.36168 
        3.11026          43.459         3.32028 
        3.12596         43.0906         3.27959 
        3.14163           42.62         3.23968 
        3.15734         42.2411         3.20034 
        3.17308         41.9137         3.16157 
        3.18879         41.5806         3.12355 
        3.20447         40.9717         3.08621 
         3.2202         40.6447         3.04937 
         3.2359         40.3122          3.0132 
        3.25157           39.78         2.97771 
        3.26729         39.5647         2.94268 
        3.28304           39.21         2.90815 
        3.29877         38.6307         2.87422 
        3.31446         38.3741         2.84092 
        3.33014         37.9346         2.80817 
        3.34585         37.5164         2.77589 
        3.36158         37.2471         2.74407 
        3.37727         36.8462         2.71285 
        3.39294         36.5322         2.68215 
        3.40867          36.244         2.65182 
        3.42439         35.8341         2.62198 
        3.44008         35.5219         2.59265 
        3.45578         35.2041         2.56375 
        3.47153         34.9549         2.53524 
        3.48724         34.5478         2.50721 
        3.50292         34.3064         2.47967 
        3.51859         33.9796         2.45256 
        3.53431         33.6695         2.42577 
        3.55007         33.1623         2.39932 
        3.56577         33.0291         2.37337 
        3.58146         32.6129         2.34782 
        3.59719         32.4125         2.32258 
        3.61292         32.1522         2.29773 
        3.62859         31.7944         2.27334 
        3.64429         31.4963         2.24925 
        3.66003         31.1841         2.22545 
        3.67578         30.9747         2.20199 
        3.69146         30.7117         2.17897 
        3.70712         30.3227         2.15632 
        3.72284         30.1557         2.13391 
        3.73853         29.9123         2.11185 
        3.75422         29.5992         2.09011 
        3.76993         29.3373         2.06865 
        3.78564         29.0145          2.0475 
        3.80137         28.8999         2.02662 
        3.81707         28.5613         2.00607 
        3.83279         28.2889         1.98579 
        3.84853         28.0403         1.96576 
        3.86424         27.6903         1.94605 
        3.87992          27.489         1.92664 
        3.89561         27.3564         1.90749 
        3.91134         27.0039         1.88857 
        3.92704         26.7786         1.86993 
        3.94273         26.4871         1.85155 
        3.95845         26.3197          1.8334 
        3.97418         26.0653         1.81548 
        3.98988         25.8664         1.79783 
        4.00554         25.5763         1.78046 
        4.02125         25.4329         1.76327 
        4.03698         25.1876         1.74628 
        4.05268         24.9931         1.72956 
        4.06839         24.7385         1.71305 
         4.0841          24.512         1.69675 
        4.09983         24.2796         1.68065 
        4.11555         24.1092         1.66476 
        4.13124         24.0147         1.64913 
        4.14693         23.7401         1.63368 
        4.16266         23.5561          1.6184 
        4.17839         23.3519         1.60332 
        4.19408         23.0923         1.58846 
        4.20977         22.9375          1.5738 
        4.22551           22.79         1.55928 
        4.24123         22.5315         1.54496 
        4.25691         22.3916         1.53086 
        4.27259          22.221         1.51693 
        4.28831         22.0087         1.50315 
        4.30404         21.8001         1.48953 
        4.31974         21.6561         1.47611 
        4.33543         21.4687         1.46286 
        4.35116         21.2976         1.44974 
        4.36688         21.0929         1.43679 
        4.38255         20.9034         1.42404 
        4.39825         20.7708         1.41143 
        4.41398         20.5796         1.39894 
         4.4297         20.4569         1.38662 
        4.44541          20.263         1.37445 
        4.46111         20.0088         1.36243 
        4.47683         19.8992         1.35055 
        4.49251         19.7806         1.33884 
        4.50819         19.5974         1.32727 
         4.5239         19.4468         1.31582 
        4.53962         19.3497         1.30449 
        4.55535         19.1532         1.29329 
        4.57106         19.0302         1.28224 
        4.58678         18.8192         1.27132 
         4.6025          18.662         1.26052 
        4.61821         18.5568         1.24985 
        4.63391         18.3933         1.23932 
         4.6496         18.2553         1.22891 
        4.66532          18.082         1.21861 
        4.68103         17.9638         1.20843 
        4.69673         17.8143         1.19838 
        4.71241         17.7057         1.18845 
        4.72811         17.5306         1.17862 
        4.74384         17.3906         1.16889 
        4.75955         17.2382         1.15928 
        4.77525         17.1313         1.14979 
        4.79096         16.9881         1.14039 
        4.80669         16.8989         1.13109 
         4.8224         16.7675         1.12191 
        4.83809          16.585         1.11284 
        4.85379          16.464         1.10387 
         4.8695         16.3912         1.09498 
        4.88521         16.2219          1.0862 
        4.90093         16.0764         1.07752 
        4.91663         15.9811         1.06894 
        4.93234         15.8708         1.06044 
        4.94807          15.734         1.05203 
        4.96377          15.618         1.04373 
        4.97943         15.5227         1.03553 
        4.99514         15.3879          1.0274 
        5.01086         15.2721         1.01936 
        5.02654         15.1705         1.01142 
        5.04227         15.0522         1.00354 
          5.058         14.9092        0.995745 
        5.07371         14.8229        0.988047 
        5.08942         14.7159        0.980429 
        5.10513         14.5898        0.972891 
        5.12084         14.5059        0.965429 
        5.13656         14.3817        0.958048 
        5.15225            14.3        0.950756 
        5.16796         14.1746        0.943529 
        5.18369          14.048         0.93637 
         5.1994          13.967          0.9293 
        5.21509          13.851        0.922309 
        5.23079         13.7616        0.915382 
        5.24649         13.6636        0.908532 
        5.26217         13.5614        0.901757 
        5.27788         13.4544        0.895042 
        5.29359         13.3479        0.888395 
        5.30933         13.2601        0.881806 
        5.32504         13.1672        0.875295 
        5.34073         13.0798        0.868857 
        5.35646         13.0082        0.862471 
        5.37218         12.8996        0.856149 
        5.38789          12.776          0.8499 
        5.40357         12.7116        0.843721 
        5.41929         12.5969        0.837591 
        5.43502         12.5219         0.83152 
         5.4507         12.4329        0.825525 
        5.46639         12.3148        0.819588 
        5.48212         12.2548        0.813696 
        5.49786         12.1709        0.807856 
        5.51353          12.076        0.802102 
        5.52921         12.0052        0.796398 
        5.54495         11.9156        0.790733 
        5.56066         11.8148         0.78513 
        5.57637         11.7438        0.779582 
        5.59207          11.654        0.774093 
        5.60778         11.5871        0.768655 
        5.62346          11.485        0.763277 
        5.63916         11.4099        0.757945 
        5.65487         11.3509        0.752662 
         5.6706         11.2583        0.747424 
        5.68633         11.1693        0.742233 
        5.70203         11.1022        0.737103 
        5.71773         11.0101        0.732023 
        5.73344         10.9674        0.726987 
        5.74916         10.8866        0.721995 
        5.76486         10.8128        0.717057 
        5.78054         10.7315        0.712173 
        5.79626         10.6533         0.70732 
          5.812         10.5886        0.702509 
         5.8277         10.5107        0.697756 
        5.84339         10.4037        0.693047 
        5.85911         10.3637        0.688373 
        5.87484         10.2731        0.683744 
        5.89053          10.217        0.679166 
        5.90623         10.1676        0.674628 
        5.92195         10.0791        0.670124 
        5.93767         10.0445        0.665664 
        5.95336         9.92559        0.661252 
        5.96905         9.89119        0.656881 
        5.98476         9.80164        0.652545 
        6.00048         9.74788        0.648246 
        6.01617          9.6926        0.643992 
        6.03185          9.6183        0.639781 
        6.04756         9.55353        0.635598 
        6.06331         9.49642        0.631444 
        6.07903         9.43057        0.627336 
        6.09473         9.35858        0.623268 
        6.11044         9.29263        0.619233 
        6.12616         9.25003        0.615234 
        6.14186         9.20053        0.611275 
        6.15755          9.1273        0.607351 
        6.17326         9.07567        0.603459 
        6.18898         9.00786        0.599599 
        6.20467         8.94759         0.59578 
        6.22036         8.88196        0.591995 
         6.2361         8.81372        0.588232 
         6.2518         8.77163        0.584509 
        6.26748         8.71362        0.580826 
        6.28319         8.67622        0.577165 
        6.29893         8.60671        0.573532 
        6.31463         8.54211        0.569937 
        6.33033          8.4888        0.566374 
        6.34604          8.4384        0.562839 
        6.36177         8.39883        0.559331 
        6.37747         8.32657        0.555859 
