# k  (h/Mpc)    Pcb(k)  (Mpc/h)^3    Pcb_linear(k) (Mpc/h)^3   ShotnoiseSubtracted = true
      0.0200456           18850         19173.2 
      0.0350414         13643.1         13188.9 
      0.0492313         9414.46         9565.05 
      0.0637834         7697.79         8082.64 
      0.0800726         5867.45         6176.71 
       0.096163         4587.55         4366.74 
       0.111083         3834.75         3620.52 
       0.126058         3203.67         3252.15 
       0.142273         2710.41         2622.46 
       0.158546         2212.53         2050.49 
        0.17375          1999.6         1808.51 
       0.188953            1884         1645.52 
       0.204907         1594.72         1396.96 
       0.220756         1435.22         1175.38 
        0.23588         1289.87         1058.68 
         0.2514         1161.69         967.772 
       0.267535         1121.03         851.491 
       0.283568         989.556         747.266 
       0.299022         946.003         680.244 
       0.314451          979.04         625.616 
       0.330372         849.871         565.193 
       0.346141         783.052         510.557 
       0.361624         751.081          469.37 
       0.377134         715.239         434.312 
       0.392932         685.675         399.228 
       0.408854         655.581         366.644 
       0.424564          638.88         339.741 
       0.440253         586.275         316.249 
       0.455999         560.987         294.008 
       0.471626         571.343          273.65 
        0.48727         538.336         255.682 
       0.502856           507.9         239.633 
       0.518488         500.302         224.722 
       0.534347         473.762         210.714 
       0.550082         453.557         198.132 
       0.565732         449.198         186.727 
       0.581496         437.807          176.11 
       0.597222         426.118         166.278 
       0.612804         415.992         157.313 
       0.628434         399.806         149.018 
       0.644267         386.118          141.22 
       0.660051         381.414         134.003 
       0.675724         373.738         127.338 
       0.691403          366.15         121.127 
       0.707174         352.361         115.302 
       0.722871             347         109.887 
        0.73838         342.273         104.881 
       0.754018          330.61         100.153 
       0.769845         329.097         95.6662 
        0.78569         321.382         91.4528 
       0.801365         311.346         87.5364 
       0.817031         309.096         83.8538 
       0.832809         303.461         80.3614 
       0.848511         296.884         77.0852 
       0.864097         289.147         74.0157 
       0.879701         288.014         71.1119 
       0.895507           279.6          68.331 
       0.911279         273.756         65.7059 
        0.92691          271.25         63.2417 
       0.942635         269.056         60.8915 
       0.958396         261.311         58.6569 
       0.974128          258.87         56.5396 
       0.989692         249.342         54.5488 
        1.00528         249.232         52.6518 
        1.02113         245.978         50.8162 
        1.03692         240.723         49.0758 
        1.05264         236.565         47.4257 
        1.06832         235.582         45.8548 
        1.08405         230.164         44.3516 
        1.09979         227.862         42.9155 
        1.11537         223.526         41.5579 
        1.13105         219.849         40.2514 
        1.14679         218.263         38.9966 
        1.16256          215.14         37.7933 
        1.17828         212.781         36.6453 
        1.19395         207.157         35.5492 
         1.2097         206.831         34.4927 
        1.22537         205.084         33.4847 
          1.241         199.216         32.5204 
        1.25666          198.05          31.592 
        1.27241           194.5         30.6957 
        1.28819         192.221          29.833 
        1.30392         189.971         29.0063 
        1.31957          185.56         28.2149 
        1.33529         182.959         27.4503 
        1.35108         182.234         26.7113 
        1.36674         178.156         26.0049 
         1.3824         177.255          25.325 
        1.39811         175.051         24.6674 
        1.41389         171.231         24.0308 
        1.42964         169.321         23.4179 
        1.44531         168.102         22.8295 
        1.46101         164.846         22.2603 
        1.47667         164.003         21.7123 
        1.49229         161.593         21.1844 
        1.50793         158.724         20.6736 
        1.52367         157.429         20.1765 
        1.53953         154.178         19.6926 
        1.55526         153.758         19.2284 
        1.57092         152.434         18.7813 
        1.58662         148.476         18.3475 
        1.60235         147.464         17.9266 
        1.61809         145.349         17.5189 
        1.63369         143.232         17.1275 
        1.64941          142.21         16.7454 
        1.66519          140.48         16.3736 
        1.68085         138.001         16.0159 
        1.69652         136.848         15.6688 
        1.71228         135.196         15.3301 
        1.72806         134.241         15.0013 
        1.74368         132.331         14.6854 
        1.75933         131.156         14.3781 
        1.77505         129.259         14.0782 
        1.79081         127.178         13.7864 
         1.8065         125.242         13.5042 
        1.82218         123.929         13.2302 
        1.83797         123.448         12.9619 
        1.85367         121.844         12.7027 
        1.86928         120.815         12.4521 
        1.88497         118.757          12.207 
        1.90073         118.049         11.9676 
        1.91647         115.995         11.7349 
        1.93218         115.053         11.5089 
        1.94787         113.115         11.2892 
        1.96363         112.453         11.0745 
        1.97935         111.358         10.8658 
        1.99499         110.406         10.6637 
        2.01064         108.014         10.4665 
         2.0264         107.322          10.273 
        2.04216          105.33         10.0846 
        2.05781         104.792         9.90215 
        2.07353         103.554         9.72357 
        2.08928         102.075         9.54904 
        2.10499         101.224         9.37929 
        2.12065         100.316          9.2142 
        2.13633         99.2822         9.05297 
        2.15211         97.7299         8.89458 
        2.16785         96.5091         8.74045 
        2.18349         95.2418         8.59096 
        2.19916         94.1688         8.44467 
        2.21489         93.5919         8.30133 
        2.23063         91.9079         8.16125 
         2.2463         91.3339         8.02504 
        2.26194         90.4242          7.8923 
        2.27765         89.1196          7.7619 
        2.29341         88.2967         7.63413 
        2.30914          87.295         7.50952 
        2.32486         85.9001         7.38777 
        2.34061         85.3006         7.26854 
        2.35635         84.2335         7.15207 
        2.37203         83.1676         7.03856 
        2.38768         82.3415         6.92777 
        2.40339         81.7366         6.81897 
        2.41914         80.3455         6.71228 
        2.43483         79.7949         6.60826 
         2.4505         78.7267         6.50662 
        2.46622         78.1408          6.4068 
        2.48195         77.1227         6.30907 
        2.49759         76.1542         6.21391 
        2.51328         75.2627         6.12048 
        2.52906         74.2597          6.0284 
        2.54479         73.7687         5.93856 
        2.56049          72.861         5.85074 
        2.57618         71.9686         5.76478 
        2.59189         71.4625         5.68043 
        2.60758         70.3761         5.59791 
        2.62325         69.8277         5.51713 
        2.63898         69.1562         5.43769 
        2.65468         68.5467         5.35998 
        2.67044         67.7582         5.28346 
        2.68618          67.173         5.20863 
        2.70184         66.3078         5.13555 
        2.71755         65.4858          5.0637 
        2.73329         64.7366         4.99312 
        2.74897         64.1559         4.92412 
        2.76462         63.7626         4.85659 
        2.78034         63.0872         4.79006 
        2.79607         62.3964          4.7247 
        2.81179           61.72         4.66065 
        2.82749         61.0067         4.59787 
        2.84321         60.6064         4.53617 
        2.85893          59.891         4.47564 
        2.87462         59.2124         4.41632 
        2.89033         58.5274         4.35802 
        2.90605         57.9178         4.30074 
        2.92176         57.4487         4.24451 
        2.93747         56.8125         4.18933 
        2.95318         56.2416         4.13512 
        2.96891         55.5111         4.08186 
        2.98456         55.0611         4.02977 
        3.00023         54.3335         3.97852 
        3.01596         53.8105           3.928 
        3.03164         53.3696         3.87852 
        3.04738         52.9246         3.82974 
         3.0631           52.22         3.78183 
        3.07883          51.725         3.73473 
        3.09456          51.157         3.68846 
        3.11026         50.7846         3.64304 
        3.12596         50.3026         3.59839 
        3.14163         49.6185          3.5546 
        3.15734         49.2048         3.51144 
        3.17308         48.6999          3.4689 
        3.18879          48.397         3.42718 
        3.20447         47.9531         3.38621 
         3.2202         47.3575         3.34579 
         3.2359         46.9398         3.30611 
        3.25157         46.5669         3.26716 
        3.26729         46.0206         3.22873 
        3.28304         45.6608         3.19085 
        3.29877         45.0297         3.15362 
        3.31446         44.7047         3.11707 
        3.33014         44.2555         3.08114 
        3.34585         43.8047         3.04572 
        3.36158         43.3377         3.01081 
        3.37727         42.9813         2.97656 
        3.39294         42.6249         2.94288 
        3.40867         42.1921          2.9096 
        3.42439         41.7414         2.87685 
        3.44008         41.3201         2.84467 
        3.45578         41.0174         2.81297 
        3.47153         40.5745         2.78168 
        3.48724         40.2158         2.75093 
        3.50292         39.8531         2.72071 
        3.51859         39.5736         2.69096 
        3.53431         39.2266         2.66157 
        3.55007         38.6262         2.63255 
        3.56577         38.6058         2.60408 
        3.58146          37.999         2.57604 
        3.59719         37.7613         2.54835 
        3.61292         37.4511         2.52109 
        3.62859         37.0406         2.49432 
        3.64429         36.7148          2.4679 
        3.66003         36.3573         2.44177 
        3.67578         36.0672         2.41604 
        3.69146         35.7127         2.39078 
        3.70712          35.317         2.36593 
        3.72284         35.0497         2.34134 
        3.73853         34.8189         2.31714 
        3.75422          34.452         2.29328 
        3.76993         34.1308         2.26974 
        3.78564         33.9242         2.24653 
        3.80137         33.6076         2.22362 
        3.81707         33.2902         2.20108 
        3.83279         32.9673         2.17883 
        3.84853         32.6419         2.15685 
        3.86424         32.3601         2.13522 
        3.87992          32.108         2.11392 
        3.89561         31.8265         2.09292 
        3.91134         31.4499         2.07215 
        3.92704         31.1794          2.0517 
        3.94273         30.9547         2.03154 
        3.95845         30.7482         2.01162 
        3.97418         30.3482         1.99196 
        3.98988         30.0941         1.97259 
        4.00554         29.8325         1.95353 
        4.02125         29.6516         1.93467 
        4.03698         29.3455         1.91604 
        4.05268         29.1229         1.89769 
        4.06839         28.8621         1.87957 
         4.0841         28.5919         1.86169 
        4.09983         28.3121         1.84402 
        4.11555         28.0366         1.82659 
        4.13124         27.9626         1.80944 
        4.14693         27.5746         1.79249 
        4.16266         27.3581         1.77572 
        4.17839         27.2118         1.75917 
        4.19408         26.8983         1.74287 
        4.20977         26.7573         1.72678 
        4.22551         26.5433         1.71085 
        4.24123           26.29         1.69514 
        4.25691         25.9822         1.67967 
        4.27259         25.8889         1.66439 
        4.28831         25.5999         1.64927 
        4.30404         25.4507         1.63432 
        4.31974          25.161         1.61959 
        4.33543         24.9627         1.60506 
        4.35116         24.7953         1.59066 
        4.36688         24.5608         1.57645 
        4.38255          24.357         1.56247 
        4.39825         24.1602         1.54863 
        4.41398         23.9564         1.53493 
         4.4297         23.7397         1.52141 
        4.44541         23.5904         1.50805 
        4.46111         23.2896         1.49487 
        4.47683         23.1671         1.48184 
        4.49251         23.0327         1.46899 
        4.50819         22.7929         1.45629 
         4.5239         22.6329         1.44373 
        4.53962         22.4677          1.4313 
        4.55535         22.2592         1.41901 
        4.57106         22.1451         1.40689 
        4.58678         21.8979          1.3949 
         4.6025         21.6494         1.38305 
        4.61821         21.5298         1.37135 
        4.63391         21.3835         1.35979 
         4.6496         21.2383         1.34837 
        4.66532         21.0356         1.33707 
        4.68103         20.8453          1.3259 
        4.69673         20.7492         1.31487 
        4.71241         20.6094         1.30398 
        4.72811         20.3724         1.29319 
        4.74384         20.2204         1.28251 
        4.75955          20.101         1.27197 
        4.77525         19.9467         1.26155 
        4.79096         19.7546         1.25124 
        4.80669         19.5838         1.24104 
         4.8224         19.4261         1.23097 
        4.83809         19.2975         1.22102 
        4.85379         19.1455         1.21117 
         4.8695          19.005         1.20142 
        4.88521         18.8753         1.19179 
        4.90093         18.7301         1.18226 
        4.91663         18.5443         1.17285 
        4.93234         18.4334         1.16352 
        4.94807         18.3052         1.15429 
        4.96377         18.1532         1.14519 
        4.97943         18.0325         1.13619 
        4.99514         17.8656         1.12728 
        5.01086         17.7384         1.11845 
        5.02654         17.6172         1.10974 
        5.04227         17.4885         1.10109 
          5.058         17.3057         1.09254 
        5.07371         17.2181         1.08409 
        5.08942         17.1317         1.07573 
        5.10513         16.9673         1.06746 
        5.12084         16.8462         1.05928 
        5.13656         16.6855         1.05118 
        5.15225         16.5834         1.04318 
        5.16796         16.4452         1.03525 
        5.18369         16.3056         1.02739 
         5.1994         16.2125         1.01963 
        5.21509         16.0867         1.01196 
        5.23079         15.9639         1.00436 
        5.24649          15.875        0.996848 
        5.26217         15.7235        0.989415 
        5.27788         15.6409        0.982047 
        5.29359         15.4734        0.974753 
        5.30933         15.4272        0.967524 
        5.32504         15.2813         0.96038 
        5.34073         15.1848        0.953316 
        5.35646         15.0873         0.94631 
        5.37218         14.9227        0.939373 
        5.38789         14.8207        0.932516 
        5.40357         14.7234        0.925737 
        5.41929         14.6471        0.919011 
        5.43502         14.5198         0.91235 
         5.4507         14.4041        0.905772 
        5.46639         14.3147        0.899258 
        5.48212         14.2065        0.892794 
        5.49786         14.1041        0.886385 
        5.51353         14.0191        0.880072 
        5.52921         13.9152        0.873813 
        5.54495         13.8143        0.867598 
        5.56066         13.6847         0.86145 
        5.57637         13.5973        0.855363 
        5.59207          13.547         0.84934 
        5.60778         13.3939        0.843374 
        5.62346         13.3426        0.837473 
        5.63916         13.2409        0.831623 
        5.65487         13.1478        0.825827 
         5.6706         13.0599        0.820079 
        5.68633         12.9671        0.814384 
        5.70203         12.8638        0.808755 
        5.71773         12.7849        0.803181 
        5.73344         12.6802        0.797656 
        5.74916         12.5925        0.792178 
        5.76486         12.5217         0.78676 
        5.78054         12.4397        0.781401 
        5.79626         12.3548        0.776077 
          5.812          12.254        0.770797 
         5.8277         12.1671        0.765583 
        5.84339          12.079        0.760417 
        5.85911         11.9888        0.755288 
        5.87484          11.901        0.750208 
        5.89053         11.8324        0.745186 
        5.90623         11.7524        0.740207 
        5.92195         11.6629        0.735265 
        5.93767          11.612        0.730371 
        5.95336         11.5246         0.72553 
        5.96905         11.4334        0.720735 
        5.98476          11.388        0.715977 
        6.00048         11.2945         0.71126 
        6.01617         11.2127        0.706592 
        6.03185         11.1314        0.701972 
        6.04756         11.0457        0.697383 
        6.06331         10.9868        0.692825 
        6.07903         10.9291        0.688317 
        6.09473         10.8545        0.683854 
        6.11044         10.7692        0.679427 
        6.12616         10.6928         0.67504 
        6.14186         10.6214        0.670696 
        6.15755         10.5652         0.66639 
        6.17326         10.5027         0.66212 
        6.18898           10.44        0.657885 
        6.20467         10.3471        0.653694 
        6.22036         10.2839        0.649541 
         6.2361         10.2109        0.645413 
         6.2518         10.1694        0.641327 
        6.26748         10.0659        0.637286 
        6.28319         10.0251        0.633269 
        6.29893         9.94511        0.629283 
        6.31463         9.86171        0.625339 
        6.33033         9.83674        0.621429 
        6.34604         9.77236        0.617551 
        6.36177          9.6956        0.613702 
        6.37747         9.63478        0.609893 
