# k  (h/Mpc)    Pcb(k)  (Mpc/h)^3    Pcb_linear(k) (Mpc/h)^3   ShotnoiseSubtracted = true
      0.0200456         573.548         581.256 
      0.0350414         404.904         399.835 
      0.0492313         291.132         289.975 
      0.0637834         242.616         245.034 
      0.0800726         185.783         187.254 
       0.096163         134.465         132.382 
       0.111083         111.406          109.76 
       0.126058         97.8491         98.5924 
       0.142273         79.1655         79.5028 
       0.158546         62.6513         62.1627 
        0.17375         55.4081          54.827 
       0.188953         49.9872         49.8856 
       0.204907         41.8237         42.3505 
       0.220756         35.9031         35.6328 
        0.23588         32.2209         32.0949 
         0.2514         29.4137          29.339 
       0.267535         26.1052         25.8138 
       0.283568         22.8984         22.6542 
       0.299022          20.875         20.6223 
       0.314451         19.4582         18.9662 
       0.330372         17.4293         17.1344 
       0.346141         15.7754         15.4781 
       0.361624         14.4521         14.2294 
       0.377134         13.3119         13.1666 
       0.392932         12.5751          12.103 
       0.408854         11.3393         11.1152 
       0.424564         10.7181         10.2996 
       0.440253         9.85412         9.58743 
       0.455999          9.0465         8.91316 
       0.471626         8.45029         8.29598 
        0.48727         8.05973         7.75127 
       0.502856         7.56443         7.26473 
       0.518488         6.97102         6.81269 
       0.534347         6.50629         6.38801 
       0.550082         6.22518         6.00659 
       0.565732         5.93692         5.66083 
       0.581496         5.56337         5.33897 
       0.597222         5.24147         5.04088 
       0.612804         4.94026         4.76912 
       0.628434         4.72169         4.51765 
       0.644267         4.49091         4.28125 
       0.660051         4.25878         4.06243 
       0.675724         4.01675         3.86038 
       0.691403         3.84573          3.6721 
       0.707174          3.6577         3.49549 
       0.722871         3.56251         3.33133 
        0.73838         3.32396         3.17958 
       0.754018         3.17591         3.03623 
       0.769845         3.00756         2.90022 
        0.78569         2.92173         2.77249 
       0.801365         2.79967         2.65376 
       0.817031         2.69519         2.54212 
       0.832809         2.55431         2.43624 
       0.848511         2.47204         2.33692 
       0.864097         2.38291         2.24387 
       0.879701         2.30876         2.15583 
       0.895507         2.19379         2.07153 
       0.911279         2.12487         1.99194 
        0.92691         2.06254         1.91724 
       0.942635         1.95765         1.84599 
       0.958396          1.8961         1.77825 
       0.974128         1.83574         1.71406 
       0.989692         1.76318          1.6537 
        1.00528          1.7044          1.5962 
        1.02113         1.65932         1.54055 
        1.03692         1.61309         1.48778 
        1.05264         1.53922         1.43776 
        1.06832         1.49797         1.39014 
        1.08405         1.44067         1.34457 
        1.09979         1.40606         1.30103 
        1.11537         1.35585         1.25987 
        1.13105         1.30464         1.22026 
        1.14679         1.27476         1.18222 
        1.16256         1.23468         1.14574 
        1.17828         1.20777         1.11094 
        1.19395         1.16579         1.07771 
         1.2097         1.12977         1.04568 
        1.22537         1.09214         1.01512 
          1.241         1.06595         0.98589 
        1.25666         1.04498        0.957743 
        1.27241         1.01232        0.930573 
        1.28819        0.976647         0.90442 
        1.30392        0.953694        0.879357 
        1.31957        0.931106        0.855363 
        1.33529        0.898653        0.832184 
        1.35108        0.877866         0.80978 
        1.36674        0.852749        0.788368 
         1.3824        0.839583        0.767755 
        1.39811        0.812839        0.747818 
        1.41389        0.793596        0.728518 
        1.42964        0.772813        0.709937 
        1.44531        0.754347        0.692101 
        1.46101        0.731549        0.674844 
        1.47667        0.718347        0.658232 
        1.49229        0.694839        0.642228 
        1.50793        0.681371        0.626743 
        1.52367        0.662395        0.611673 
        1.53953        0.646265        0.597001 
        1.55526        0.635295        0.582931 
        1.57092        0.625464        0.569376 
        1.58662        0.611832        0.556224 
        1.60235        0.593769        0.543465 
        1.61809        0.579271        0.531103 
        1.63369        0.563505        0.519238 
        1.64941        0.554697        0.507653 
        1.66519        0.544208        0.496383 
        1.68085          0.5292        0.485538 
        1.69652         0.51844        0.475016 
        1.71228        0.505749        0.464749 
        1.72806        0.496911        0.454779 
        1.74368        0.486309        0.445204 
        1.75933        0.477153        0.435888 
        1.77505        0.468587        0.426796 
        1.79081        0.453649         0.41795 
         1.8065        0.449446        0.409394 
        1.82218         0.43672        0.401087 
        1.83797        0.425163        0.392955 
        1.85367        0.421459        0.385095 
        1.86928        0.411649        0.377499 
        1.88497        0.401558        0.370067 
        1.90073        0.396451         0.36281 
        1.91647        0.387321        0.355755 
        1.93218        0.381009        0.348904 
        1.94787        0.372581        0.342245 
        1.96363        0.366231        0.335734 
        1.97935         0.35847        0.329408 
        1.99499        0.351937        0.323281 
        2.01064        0.345787        0.317302 
         2.0264        0.337866        0.311438 
        2.04216        0.331477        0.305726 
        2.05781        0.326608        0.300194 
        2.07353        0.320096         0.29478 
        2.08928        0.315686        0.289489 
        2.10499        0.308375        0.284343 
        2.12065        0.303652        0.279338 
        2.13633        0.298481         0.27445 
        2.15211        0.292639        0.269649 
        2.16785        0.287816        0.264976 
        2.18349        0.283088        0.260444 
        2.19916        0.277237        0.256009 
        2.21489        0.271958        0.251664 
        2.23063        0.267626        0.247417 
         2.2463        0.263414        0.243288 
        2.26194        0.259597        0.239263 
        2.27765        0.254571         0.23531 
        2.29341        0.250173        0.231437 
        2.30914        0.244934        0.227659 
        2.32486        0.241323        0.223968 
        2.34061        0.237256        0.220354 
        2.35635        0.233656        0.216822 
        2.37203        0.231436        0.213381 
        2.38768        0.226651        0.210023 
        2.40339        0.222863        0.206724 
        2.41914        0.219695         0.20349 
        2.43483        0.215822        0.200336 
         2.4505        0.212009        0.197255 
        2.46622        0.209134        0.194229 
        2.48195        0.205288        0.191266 
        2.49759        0.203722        0.188381 
        2.51328        0.198676        0.185549 
        2.52906        0.195948        0.182757 
        2.54479        0.193094        0.180034 
        2.56049         0.18957        0.177371 
        2.57618        0.187891        0.174765 
        2.59189        0.184052        0.172208 
        2.60758        0.182301        0.169706 
        2.62325        0.179435        0.167258 
        2.63898        0.177374        0.164849 
        2.65468        0.173212        0.162493 
        2.67044        0.171241        0.160174 
        2.68618        0.168531        0.157905 
        2.70184        0.166466         0.15569 
        2.71755        0.163492        0.153511 
        2.73329        0.162212        0.151372 
        2.74897        0.158969         0.14928 
        2.76462        0.157316        0.147233 
        2.78034         0.15475        0.145216 
        2.79607        0.153074        0.143234 
        2.81179        0.149537        0.141293 
        2.82749        0.148537        0.139389 
        2.84321        0.146613        0.137519 
        2.85893        0.143923        0.135684 
        2.87462         0.14232        0.133885 
        2.89033        0.140004        0.132118 
        2.90605        0.138561        0.130381 
        2.92176        0.137065        0.128677 
        2.93747        0.134812        0.127004 
        2.95318        0.133314        0.125361 
        2.96891        0.131714        0.123746 
        2.98456        0.130226        0.122167 
        3.00023        0.128155        0.120613 
        3.01596        0.126317        0.119082 
        3.03164        0.124584        0.117581 
        3.04738        0.123357        0.116103 
         3.0631        0.121818         0.11465 
        3.07883        0.120068        0.113222 
        3.09456        0.118725        0.111819 
        3.11026        0.116863        0.110443 
        3.12596        0.115609        0.109089 
        3.14163        0.114387        0.107762 
        3.15734        0.113312        0.106453 
        3.17308        0.111543        0.105163 
        3.18879        0.110322        0.103899 
        3.20447        0.108732        0.102657 
         3.2202        0.107762        0.101431 
         3.2359          0.1064        0.100228 
        3.25157        0.104969       0.0990475 
        3.26729        0.104014       0.0978824 
        3.28304        0.103066       0.0967338 
        3.29877        0.101374       0.0956053 
        3.31446        0.100625       0.0944974 
        3.33014       0.0995493       0.0934081 
        3.34585       0.0978765       0.0923344 
        3.36158       0.0969614        0.091276 
        3.37727       0.0961452       0.0902376 
        3.39294       0.0952534       0.0892165 
        3.40867       0.0940726       0.0882075 
        3.42439       0.0931877       0.0872148 
        3.44008       0.0923387       0.0862393 
        3.45578       0.0914173       0.0852782 
        3.47153       0.0905644       0.0843296 
        3.48724       0.0895704       0.0833972 
        3.50292       0.0888409       0.0824812 
        3.51859       0.0876464       0.0815794 
        3.53431        0.086826       0.0806884 
        3.55007       0.0860048       0.0798085 
        3.56577       0.0854601       0.0789454 
        3.58146       0.0844504       0.0780954 
        3.59719       0.0835161        0.077256 
        3.61292       0.0827608       0.0764294 
        3.62859       0.0822177        0.075618 
        3.64429       0.0810849       0.0748169 
        3.66003       0.0808255        0.074025 
        3.67578       0.0799813       0.0732449 
        3.69146       0.0792873       0.0724791 
        3.70712       0.0784834       0.0717256 
        3.72284        0.077824       0.0709801 
        3.73853        0.077345       0.0702466 
        3.75422       0.0764504       0.0695232 
        3.76993       0.0759304       0.0688095 
        3.78564       0.0754256       0.0681061 
        3.80137       0.0749268       0.0674114 
        3.81707       0.0736993       0.0667279 
        3.83279       0.0733447       0.0660534 
        3.84853        0.072714       0.0653872 
        3.86424       0.0722028       0.0647315 
        3.87992       0.0716636       0.0640858 
        3.89561         0.07094        0.063449 
        3.91134       0.0703212       0.0628195 
        3.92704       0.0696569       0.0621994 
        3.94273       0.0689549       0.0615882 
        3.95845       0.0683329       0.0609842 
        3.97418        0.067999       0.0603883 
        3.98988       0.0668183       0.0598011 
        4.00554       0.0665493       0.0592234 
        4.02125       0.0659405       0.0586517 
        4.03698       0.0648079       0.0580867 
        4.05268       0.0643692       0.0575304 
        4.06839       0.0633938       0.0569811 
         4.0841        0.062387       0.0564391 
        4.09983       0.0616484       0.0559035 
        4.11555       0.0607278       0.0553751 
        4.13124       0.0599866        0.054855 
        4.14693       0.0591729       0.0543411 
        4.16266        0.058398       0.0538327 
        4.17839       0.0577058       0.0533311 
        4.19408       0.0570013       0.0528371 
        4.20977       0.0562599       0.0523492 
        4.22551        0.055692       0.0518662 
        4.24123       0.0549987       0.0513899 
        4.25691       0.0545492        0.050921 
        4.27259        0.053945       0.0504577 
        4.28831       0.0535982       0.0499993 
        4.30404        0.052818       0.0495462 
        4.31974       0.0524069       0.0490997 
        4.33543       0.0518974        0.048659 
        4.35116       0.0516057       0.0482227 
        4.36688       0.0509677       0.0477919 
        4.38255       0.0506348        0.047368 
        4.39825         0.05039       0.0469484 
        4.41398       0.0498509        0.046533 
         4.4297       0.0495516       0.0461231 
        4.44541       0.0493171       0.0457183 
        4.46111       0.0489437       0.0453186 
        4.47683       0.0486603       0.0449235 
        4.49251       0.0484584       0.0445339 
        4.50819       0.0482593        0.044149 
         4.5239       0.0479491       0.0437682 
        4.53962        0.047818       0.0433914 
        4.55535       0.0477312       0.0430189 
        4.57106       0.0474619       0.0426513 
        4.58678       0.0474636       0.0422879 
         4.6025       0.0471603       0.0419287 
        4.61821        0.047226       0.0415738 
        4.63391       0.0470704       0.0412235 
         4.6496       0.0469502       0.0408773 
        4.66532       0.0469993       0.0405346 
        4.68103       0.0470657        0.040196 
        4.69673       0.0468758       0.0398616 
        4.71241       0.0471498       0.0395314 
        4.72811       0.0468532       0.0392044 
        4.74384       0.0470043       0.0388807 
        4.75955        0.047171       0.0385611 
        4.77525       0.0471937       0.0382454 
        4.79096       0.0472915       0.0379328 
        4.80669       0.0473794       0.0376235 
         4.8224       0.0475546       0.0373181 
        4.83809       0.0476647       0.0370164 
        4.85379       0.0478972       0.0367179 
         4.8695        0.048151       0.0364225 
        4.88521        0.048341       0.0361304 
        4.90093       0.0486964       0.0358415 
        4.91663       0.0489935        0.035556 
        4.93234       0.0490088       0.0352734 
        4.94807       0.0493857       0.0349937 
        4.96377        0.049672       0.0347175 
        4.97943       0.0501443       0.0344449 
        4.99514       0.0504513       0.0341746 
        5.01086       0.0507501       0.0339069 
        5.02654       0.0512091       0.0336428 
        5.04227       0.0516388       0.0333808 
          5.058        0.052062       0.0331215 
        5.07371       0.0524624       0.0328654 
        5.08942       0.0530814        0.032612 
        5.10513       0.0534457       0.0323613 
        5.12084       0.0541039       0.0321131 
        5.13656       0.0546934       0.0318675 
        5.15225       0.0553373        0.031625 
        5.16796       0.0559358       0.0313846 
        5.18369       0.0565107       0.0311465 
         5.1994       0.0570677       0.0309113 
        5.21509       0.0578432       0.0306788 
        5.23079       0.0585239       0.0304484 
        5.24649        0.059196       0.0302205 
        5.26217       0.0599114       0.0299952 
        5.27788       0.0610789       0.0297718 
        5.29359        0.061712       0.0295507 
        5.30933       0.0624228       0.0293315 
        5.32504       0.0632959       0.0291149 
        5.34073       0.0638981       0.0289008 
        5.35646         0.06507       0.0286884 
        5.37218       0.0660073       0.0284781 
        5.38789       0.0669936       0.0282702 
        5.40357       0.0680951       0.0280647 
        5.41929        0.069272       0.0278608 
        5.43502        0.070358       0.0276589 
         5.4507        0.071215       0.0274594 
        5.46639       0.0721767        0.027262 
        5.48212       0.0733853        0.027066 
        5.49786       0.0751093       0.0268717 
        5.51353       0.0763424       0.0266803 
        5.52921       0.0771467       0.0264906 
        5.54495       0.0787707       0.0263022 
        5.56066        0.079973       0.0261158 
        5.57637       0.0817077       0.0259312 
        5.59207       0.0826355       0.0257487 
        5.60778       0.0840433       0.0255678 
        5.62346        0.085538       0.0253889 
        5.63916       0.0874195       0.0252115 
        5.65487       0.0892276       0.0250358 
         5.6706        0.089869       0.0248616 
        5.68633        0.092066       0.0246889 
        5.70203       0.0937587       0.0245183 
        5.71773       0.0958457       0.0243493 
        5.73344       0.0978694       0.0241818 
        5.74916       0.0998731       0.0240157 
        5.76486        0.101664       0.0238515 
        5.78054        0.103773        0.023689 
        5.79626        0.105388       0.0235276 
          5.812        0.107617       0.0233675 
         5.8277        0.109625       0.0232095 
        5.84339        0.111697       0.0230528 
        5.85911        0.113808       0.0228974 
        5.87484        0.115834       0.0227434 
        5.89053        0.118749       0.0225911 
        5.90623         0.12182       0.0224401 
        5.92195        0.123387       0.0222903 
        5.93767        0.125712        0.022142 
        5.95336        0.128197       0.0219952 
        5.96905        0.132058       0.0218498 
        5.98476         0.13368       0.0217056 
        6.00048        0.136319       0.0215626 
        6.01617        0.139374       0.0214211 
        6.03185        0.142188        0.021281 
        6.04756         0.14372       0.0211419 
        6.06331        0.148435       0.0210037 
        6.07903        0.150902       0.0208671 
        6.09473        0.153242       0.0207318 
        6.11044        0.158087       0.0205975 
        6.12616         0.16025       0.0204645 
        6.14186        0.163825       0.0203328 
        6.15755        0.166737       0.0202023 
        6.17326        0.170845       0.0200729 
        6.18898        0.173993       0.0199445 
        6.20467        0.177268       0.0198174 
        6.22036        0.180839       0.0196915 
         6.2361        0.183745       0.0195664 
         6.2518        0.190126       0.0194425 
        6.26748        0.192693         0.01932 
        6.28319        0.196332       0.0191982 
        6.29893        0.201266       0.0190774 
        6.31463         0.20522       0.0189578 
        6.33033         0.20794       0.0188393 
        6.34604        0.212987       0.0187217 
        6.36177        0.215792        0.018605 
        6.37747         0.22093       0.0184896 
