# k  (h/Mpc)    Pcb(k)  (Mpc/h)^3    Pcb_linear(k) (Mpc/h)^3   ShotnoiseSubtracted = true
      0.0200456         10750.9         10955.2 
      0.0350414         7732.43         7964.08 
      0.0492313         5738.85         5786.55 
      0.0637834         4903.62         4810.31 
      0.0800726          3880.7         3817.82 
       0.096163         2713.85         2770.16 
       0.111083         2158.38         2209.55 
       0.126058         1987.62         1958.11 
       0.142273         1716.55         1658.95 
       0.158546         1433.01         1310.23 
        0.17375         1150.74         1103.86 
       0.188953         1108.82         999.523 
       0.204907         1040.89         884.375 
       0.220756         883.747         748.234 
        0.23588         777.587         650.899 
         0.2514         679.665         591.335 
       0.267535         660.698         535.057 
       0.283568         598.922         471.848 
       0.299022         557.771         420.392 
       0.314451         522.853          384.21 
       0.330372         482.414          352.47 
       0.346141         437.476          319.92 
       0.361624         420.471         290.763 
       0.377134         391.428         267.548 
       0.392932         370.038         247.557 
       0.408854         354.999           228.2 
       0.424564          337.83         210.335 
       0.440253         325.611         195.005 
       0.455999         306.365         181.675 
       0.471626          285.47         169.425 
        0.48727         277.167         157.965 
       0.502856         267.788         147.671 
       0.518488         264.386         138.485 
       0.534347         249.099         129.946 
       0.550082          233.83         122.072 
       0.565732         229.858         114.869 
       0.581496         218.288         108.272 
       0.597222         212.883         102.222 
       0.612804         205.102          96.658 
       0.628434         198.263         91.4723 
       0.644267         191.773         86.6241 
       0.660051         189.448         82.1558 
       0.675724           185.1         78.0298 
       0.691403         179.752         74.1837 
       0.707174         172.154         70.5752 
       0.722871         170.676         67.2211 
        0.73838         166.926         64.1208 
       0.754018         161.773         61.1926 
       0.769845         157.273         58.4155 
        0.78569         154.992         55.8084 
       0.801365         150.499         53.3864 
       0.817031         145.495         51.1103 
       0.832809         143.458         48.9531 
       0.848511         139.833         46.9307 
       0.864097         137.299          45.037 
       0.879701         134.421         43.2465 
       0.895507         131.108         41.5327 
       0.911279         128.694         39.9157 
        0.92691         127.263         38.3986 
       0.942635         124.111         36.9523 
       0.958396         123.823         35.5778 
       0.974128         120.312         34.2761 
       0.989692         117.377         33.0525 
        1.00528         115.125         31.8872 
        1.02113         114.366           30.76 
        1.03692         110.032         29.6917 
        1.05264         109.568         28.6792 
        1.06832         107.001         27.7157 
        1.08405         105.603         26.7942 
        1.09979         105.057         25.9141 
        1.11537         101.542         25.0824 
        1.13105          101.38         24.2824 
        1.14679         100.184         23.5144 
        1.16256         98.7299         22.7782 
        1.17828         96.1884          22.076 
        1.19395         95.0771          21.406 
         1.2097         92.9239         20.7604 
        1.22537         93.0175         20.1447 
          1.241         90.8298         19.5559 
        1.25666         89.0271         18.9892 
        1.27241         87.9551         18.4424 
        1.28819          86.574         17.9163 
        1.30392         85.5384         17.4123 
        1.31957         84.3138         16.9301 
        1.33529         82.8374         16.4643 
        1.35108          82.056         16.0143 
        1.36674         81.1175         15.5844 
         1.3824         79.6209         15.1707 
        1.39811         78.7967         14.7707 
        1.41389         77.6308         14.3836 
        1.42964         76.7338         14.0111 
        1.44531         75.1303         13.6537 
        1.46101         74.2096         13.3079 
        1.47667         74.0684         12.9753 
        1.49229         72.5871         12.6549 
        1.50793          72.099          12.345 
        1.52367         70.9174         12.0435 
        1.53953         69.9256         11.7501 
        1.55526         69.2691         11.4688 
        1.57092         69.0241         11.1979 
        1.58662         67.5336         10.9351 
        1.60235          67.033         10.6803 
        1.61809          66.122         10.4335 
        1.63369         65.1055         10.1967 
        1.64941         64.5121         9.96559 
        1.66519         63.2891         9.74081 
        1.68085         62.8619         9.52457 
        1.69652         61.8045         9.31485 
        1.71228         61.4658         9.11027 
        1.72806         60.8164         8.91168 
        1.74368         60.0026         8.72102 
        1.75933         59.3231         8.53557 
        1.77505         58.7435         8.35465 
        1.79081         57.9578         8.17866 
         1.8065         57.4585         8.00851 
        1.82218         56.6413         7.84335 
        1.83797          56.043         7.68173 
        1.85367         55.4036         7.52557 
        1.86928         54.8676         7.37469 
        1.88497         54.2209         7.22713 
        1.90073         53.5332         7.08308 
        1.91647         53.1805         6.94308 
        1.93218         52.5077         6.80717 
        1.94787         51.9552          6.6751 
        1.96363         51.2621         6.54602 
        1.97935          50.852         6.42063 
        1.99499         50.1285         6.29923 
        2.01064         49.9584          6.1808 
         2.0264         48.7679         6.06467 
        2.04216         48.5418         5.95159 
        2.05781         47.9234         5.84211 
        2.07353         47.4403           5.735 
        2.08928         46.9145         5.63034 
        2.10499         46.5156         5.52858 
        2.12065         45.9398         5.42964 
        2.13633         45.7505         5.33304 
        2.15211         45.2918         5.23817 
        2.16785         44.4126         5.14588 
        2.18349         44.1603         5.05639 
        2.19916         43.7573         4.96884 
        2.21489         43.2824         4.88308 
        2.23063         42.6438         4.79928 
         2.2463         42.2319         4.71783 
        2.26194         41.6256         4.63848 
        2.27765         41.2138         4.56055 
        2.29341         40.7503          4.4842 
        2.30914         40.3179         4.40976 
        2.32486            39.8         4.33706 
        2.34061         39.5306         4.26587 
        2.35635         39.1132         4.19635 
        2.37203         38.6666         4.12862 
        2.38768         38.2813         4.06253 
        2.40339         38.0576         3.99764 
        2.41914         37.6823         3.93402 
        2.43483         37.0419         3.87201 
         2.4505         36.8024         3.81144 
        2.46622         36.4557         3.75197 
        2.48195         36.1276         3.69375 
        2.49759         35.6868         3.63709 
        2.51328          35.208         3.58146 
        2.52906         35.0294         3.52665 
        2.54479         34.4585         3.47319 
        2.56049         34.1887         3.42094 
        2.57618         33.8573         3.36982 
        2.59189         33.5806         3.31966 
        2.60758         33.3267          3.2706 
        2.62325          32.855         3.22259 
        2.63898         32.5971         3.17538 
        2.65468         32.2267         3.12922 
        2.67044         31.9117         3.08378 
        2.68618         31.6316         3.03934 
        2.70184         31.2575         2.99596 
        2.71755         31.1167         2.95331 
        2.73329         30.7489         2.91143 
        2.74897         30.4005          2.8705 
        2.76462         30.0271         2.83045 
        2.78034         29.9104           2.791 
        2.79607         29.5683         2.75226 
        2.81179         29.3203         2.71429 
        2.82749         29.0451         2.67709 
        2.84321         28.5744         2.64054 
        2.85893         28.3637         2.60469 
        2.87462         28.1093         2.56956 
        2.89033         27.8493         2.53505 
        2.90605         27.6692         2.50114 
        2.92176         27.5044         2.46787 
        2.93747          27.109         2.43523 
        2.95318         26.7375         2.40316 
        2.96891         26.5979         2.37166 
        2.98456         26.2375         2.34087 
        3.00023         26.0198         2.31057 
        3.01596         25.7498         2.28072 
        3.03164         25.5565         2.25148 
        3.04738         25.3608         2.22267 
         3.0631         25.1022         2.19437 
        3.07883          24.864         2.16656 
        3.09456         24.5556         2.13924 
        3.11026         24.3491         2.11243 
        3.12596         24.1741         2.08609 
        3.14163         23.9457         2.06025 
        3.15734         23.7225         2.03479 
        3.17308         23.4887          2.0097 
        3.18879         23.3022         1.98511 
        3.20447         23.0537         1.96096 
         3.2202         22.8381         1.93713 
         3.2359         22.5695         1.91375 
        3.25157         22.5612         1.89081 
        3.26729         22.2479         1.86817 
        3.28304         22.0497         1.84586 
        3.29877         21.7554         1.82394 
        3.31446         21.5869         1.80243 
        3.33014         21.3915         1.78128 
        3.34585         21.2345         1.76044 
        3.36158         21.0064          1.7399 
        3.37727         20.7979         1.71976 
        3.39294         20.6589         1.69995 
        3.40867          20.463         1.68038 
        3.42439         20.2905         1.66113 
        3.44008         20.0982         1.64222 
        3.45578         19.9028         1.62359 
        3.47153         19.6914         1.60521 
        3.48724         19.5358         1.58714 
        3.50292         19.4158          1.5694 
        3.51859         19.1992         1.55193 
        3.53431         19.0209         1.53467 
        3.55007         18.8403         1.51764 
        3.56577         18.6435         1.50093 
        3.58146         18.5331         1.48448 
        3.59719         18.3352         1.46824 
        3.61292         18.1805         1.45225 
        3.62859         18.0377         1.43655 
        3.64429         17.8835         1.42106 
        3.66003          17.741         1.40575 
        3.67578         17.5393         1.39067 
        3.69146          17.447         1.37587 
        3.70712         17.2482         1.36131 
        3.72284         17.1926          1.3469 
        3.73853         16.9671         1.33273 
        3.75422         16.7568         1.31876 
        3.76993         16.6657         1.30498 
        3.78564         16.5197          1.2914 
        3.80137          16.342         1.27799 
        3.81707         16.2014          1.2648 
        3.83279         16.0852         1.25178 
        3.84853         15.9148         1.23893 
        3.86424           15.82         1.22628 
        3.87992         15.6666         1.21383 
        3.89561         15.4977         1.20154 
        3.91134         15.4153         1.18941 
        3.92704         15.2609         1.17745 
        3.94273         15.1558         1.16568 
        3.95845         14.9761         1.15404 
        3.97418         14.9032         1.14255 
        3.98988         14.7325         1.13124 
        4.00554         14.6451         1.12012 
        4.02125         14.5094         1.10911 
        4.03698         14.4373         1.09823 
        4.05268         14.2534         1.08752 
        4.06839         14.1353         1.07695 
         4.0841         14.0325         1.06652 
        4.09983         13.8781         1.05621 
        4.11555         13.7679         1.04605 
        4.13124         13.6727         1.03604 
        4.14693         13.5629         1.02616 
        4.16266         13.4472         1.01639 
        4.17839         13.3216         1.00674 
        4.19408         13.2071        0.997249 
        4.20977          13.138        0.987872 
        4.22551         12.9907        0.978593 
        4.24123          12.908        0.969442 
        4.25691         12.7905        0.960434 
        4.27259         12.6829        0.951536 
        4.28831         12.5564        0.942734 
        4.30404         12.4735        0.934035 
        4.31974         12.3561        0.925464 
        4.33543         12.2794        0.917006 
        4.35116         12.1836        0.908633 
        4.36688         12.0493        0.900367 
        4.38255         11.9621        0.892235 
        4.39825         11.8696        0.884186 
        4.41398         11.8233        0.876221 
         4.4297         11.6776        0.868361 
        4.44541         11.5719          0.8606 
        4.46111         11.4975        0.852939 
        4.47683         11.4184        0.845366 
        4.49251         11.3204          0.8379 
        4.50819         11.2499        0.830526 
         4.5239         11.1475        0.823231 
        4.53962         11.0659        0.816014 
        4.55535         10.9652         0.80888 
        4.57106         10.8638        0.801841 
        4.58678         10.7698        0.794884 
         4.6025         10.7088        0.788009 
        4.61821         10.6206        0.781216 
        4.63391         10.5243        0.774511 
         4.6496         10.4522        0.767888 
        4.66532         10.3575        0.761333 
        4.68103         10.2961        0.754856 
        4.69673         10.2033        0.748461 
        4.71241         10.1065        0.742147 
        4.72811         10.0245        0.735894 
        4.74384         9.98232        0.729706 
        4.75955           9.888        0.723599 
        4.77525         9.79871        0.717564 
        4.79096         9.76095        0.711591 
        4.80669         9.66882        0.705683 
         4.8224          9.6072        0.699849 
        4.83809         9.52356        0.694087 
        4.85379         9.45115        0.688386 
         4.8695         9.39678        0.682745 
        4.88521         9.30802        0.677169 
        4.90093         9.22787        0.671655 
        4.91663         9.17438        0.666207 
        4.93234         9.11964        0.660813 
        4.94807         9.02043        0.655476 
        4.96377         8.94984        0.650207 
        4.97943         8.90312        0.645007 
        4.99514         8.84335        0.639851 
        5.01086         8.76939        0.634748 
        5.02654         8.70039        0.629713 
        5.04227         8.65196        0.624717 
          5.058         8.55515        0.619774 
        5.07371         8.51037        0.614893 
        5.08942         8.46125        0.610065 
        5.10513         8.38377        0.605288 
        5.12084         8.31699        0.600559 
        5.13656         8.27636        0.595882 
        5.15225         8.20958        0.591263 
        5.16796         8.15089        0.586685 
        5.18369           8.097        0.582151 
         5.1994         7.99436        0.577674 
        5.21509         7.97197        0.573248 
        5.23079          7.9099        0.568862 
        5.24649         7.85516        0.564526 
        5.26217         7.78678        0.560239 
        5.27788         7.73923        0.555989 
        5.29359         7.67648        0.551783 
        5.30933         7.62186        0.547615 
        5.32504         7.56833        0.543496 
        5.34073         7.53092        0.539424 
        5.35646         7.45353        0.535386 
        5.37218         7.42279        0.531388 
        5.38789         7.35701        0.527438 
        5.40357         7.31414        0.523532 
        5.41929         7.25644        0.519657 
        5.43502         7.20502        0.515821 
         5.4507         7.16771        0.512032 
        5.46639         7.12867        0.508282 
        5.48212         7.06887        0.504559 
        5.49786         7.02594         0.50087 
        5.51353         6.95561        0.497236 
        5.52921         6.91439        0.493634 
        5.54495         6.87212        0.490058 
        5.56066         6.82312         0.48652 
        5.57637         6.75364        0.483018 
        5.59207         6.73039        0.479554 
        5.60778         6.65933        0.476122 
        5.62346         6.62866        0.472729 
        5.63916         6.58406        0.469365 
        5.65487         6.54708        0.466032 
         5.6706         6.48717        0.462728 
        5.68633          6.4454        0.459455 
        5.70203         6.40866         0.45622 
        5.71773         6.37085        0.453016 
        5.73344         6.31888        0.449842 
        5.74916         6.28309        0.446695 
        5.76486         6.24551        0.443582 
        5.78054         6.20116        0.440504 
        5.79626         6.15534        0.437447 
          5.812         6.11402        0.434415 
         5.8277         6.07442        0.431421 
        5.84339         6.02353        0.428456 
        5.85911         5.99809        0.425512 
        5.87484         5.95223        0.422596 
        5.89053         5.90841        0.419714 
        5.90623         5.87067        0.416857 
        5.92195         5.81796        0.414022 
        5.93767          5.7957        0.411215 
        5.95336         5.75034        0.408438 
        5.96905         5.72939        0.405688 
        5.98476         5.68295        0.402959 
        6.00048         5.65166        0.400255 
        6.01617         5.61654        0.397579 
        6.03185         5.58389         0.39493 
        6.04756         5.53829          0.3923 
        6.06331         5.49961        0.389688 
        6.07903         5.47224        0.387105 
        6.09473         5.42535        0.384548 
        6.11044         5.39102        0.382011 
        6.12616         5.37027        0.379498 
        6.14186         5.33025         0.37701 
        6.15755         5.29087        0.374544 
        6.17326         5.25798        0.372099 
        6.18898         5.22297        0.369674 
        6.20467           5.197        0.367275 
        6.22036         5.16106        0.364898 
         6.2361         5.13134        0.362535 
         6.2518         5.09565        0.360197 
        6.26748         5.06908        0.357885 
        6.28319         5.02914        0.355586 
        6.29893          5.0042        0.353306 
        6.31463         4.97726         0.35105 
        6.33033         4.93621        0.348814 
        6.34604         4.91608        0.346596 
        6.36177         4.88228        0.344395 
        6.37747         4.84718        0.342217 
