# k  (h/Mpc)    Pcb(k)  (Mpc/h)^3    Pcb_linear(k) (Mpc/h)^3   ShotnoiseSubtracted = true
      0.0200456         15606.3         15855.9 
      0.0350414         11857.9         11526.7 
      0.0492313         8255.39         8375.08 
      0.0637834         6667.28         6962.13 
      0.0800726         5244.16         5525.67 
       0.096163         4156.33         4009.35 
       0.111083          3382.1         3197.96 
       0.126058         2806.45         2834.05 
       0.142273         2436.58         2401.06 
       0.158546          2001.7         1896.33 
        0.17375         1765.62         1597.66 
       0.188953         1651.44         1446.65 
       0.204907         1415.11         1279.99 
       0.220756         1272.63         1082.95 
        0.23588         1133.89         942.069 
         0.2514         1018.15          855.86 
       0.267535         987.861         774.406 
       0.283568         869.073         682.922 
       0.299022          830.12         608.448 
       0.314451         852.065         556.081 
       0.330372           736.5         510.142 
       0.346141         680.185         463.031 
       0.361624         651.756         420.832 
       0.377134         617.293         387.232 
       0.392932         595.042         358.298 
       0.408854         567.257         330.282 
       0.424564         551.215         304.425 
       0.440253         503.062         282.237 
       0.455999         481.931         262.944 
       0.471626         488.936         245.214 
        0.48727         462.122         228.629 
       0.502856         430.328         213.729 
       0.518488         428.361         200.434 
       0.534347          401.44         188.075 
       0.550082         386.266          176.68 
       0.565732          383.69         166.254 
       0.581496         371.329         156.706 
       0.597222          360.73         147.949 
       0.612804         352.081         139.896 
       0.628434         338.291         132.391 
       0.644267         325.162         125.374 
       0.660051         320.692         118.907 
       0.675724          315.77         112.935 
       0.691403         308.143         107.369 
       0.707174         296.557         102.146 
       0.722871         292.058         97.2914 
        0.73838          288.71         92.8042 
       0.754018         276.993         88.5662 
       0.769845         275.964         84.5468 
        0.78569         269.541         80.7735 
       0.801365         261.995          77.268 
       0.817031         257.925         73.9737 
       0.832809          253.53         70.8516 
       0.848511         247.139         67.9245 
       0.864097         241.311         65.1837 
       0.879701         240.231         62.5922 
       0.895507         234.137         60.1117 
       0.911279         227.755         57.7714 
        0.92691         225.404         55.5756 
       0.942635         223.687         53.4824 
       0.958396         217.942          51.493 
       0.974128         214.602         49.6089 
       0.989692         207.392         47.8381 
        1.00528         206.919         46.1514 
        1.02113         203.514           44.52 
        1.03692         199.105         42.9738 
        1.05264         196.024         41.5084 
        1.06832         195.581          40.114 
        1.08405         190.021         38.7801 
        1.09979         188.846         37.5063 
        1.11537         185.078         36.3026 
        1.13105         182.064         35.1448 
        1.14679         180.227         34.0332 
        1.16256         177.503         32.9677 
        1.17828         175.564         31.9514 
        1.19395         170.992         30.9816 
         1.2097         170.188         30.0473 
        1.22537         168.836         29.1561 
          1.241         164.681         28.3039 
        1.25666         162.559         27.4838 
        1.27241           158.9         26.6924 
        1.28819         157.669         25.9309 
        1.30392         155.463         25.2015 
        1.31957         151.928         24.5034 
        1.33529         150.345         23.8294 
        1.35108         148.587         23.1781 
        1.36674         146.058         22.5558 
         1.3824         145.328         21.9571 
        1.39811         142.009         21.3781 
        1.41389         140.193         20.8179 
        1.42964         138.088         20.2788 
        1.44531         136.776         19.7614 
        1.46101         133.911         19.2611 
        1.47667         133.731         18.7796 
        1.49229         131.605         18.3158 
        1.50793         129.199         17.8673 
        1.52367         127.637          17.431 
        1.53953           125.6         17.0063 
        1.55526         124.977         16.5992 
        1.57092          123.26         16.2071 
        1.58662         121.044         15.8268 
        1.60235         119.467          15.458 
        1.61809         118.439         15.1008 
        1.63369         116.387         14.7581 
        1.64941         115.906         14.4235 
        1.66519         113.944         14.0982 
        1.68085         111.994         13.7852 
        1.69652         110.993         13.4817 
        1.71228         110.022         13.1856 
        1.72806         108.622         12.8982 
        1.74368         106.815         12.6222 
        1.75933          106.06         12.3538 
        1.77505         104.176          12.092 
        1.79081         102.964         11.8373 
         1.8065         101.276          11.591 
        1.82218         100.253          11.352 
        1.83797          99.904          11.118 
        1.85367         97.7676          10.892 
        1.86928         97.4329         10.6736 
        1.88497         95.7755         10.4601 
        1.90073         95.0506         10.2516 
        1.91647         93.3496          10.049 
        1.93218         92.2415         9.85225 
        1.94787         91.0689         9.66111 
        1.96363         90.2085         9.47429 
        1.97935         89.4017          9.2928 
        1.99499         88.5259         9.11709 
        2.01064         86.5498         8.94569 
         2.0264          85.999         8.77761 
        2.04216         84.4556         8.61395 
        2.05781         83.9775         8.45549 
        2.07353         82.9309         8.30046 
        2.08928          81.774         8.14899 
        2.10499         80.7321         8.00171 
        2.12065         80.3689         7.85851 
        2.13633          79.345          7.7187 
        2.15211         78.0314         7.58139 
        2.16785          76.887         7.44781 
        2.18349         76.0449         7.31828 
        2.19916         75.2516         7.19157 
        2.21489         74.2715         7.06745 
        2.23063         73.3824         6.94617 
         2.2463         72.9135         6.82829 
        2.26194           71.91         6.71343 
        2.27765         71.0711         6.60064 
        2.29341         70.2573         6.49014 
        2.30914         69.4521          6.3824 
        2.32486         67.9688         6.27718 
        2.34061         67.6916         6.17415 
        2.35635         66.9556         6.07353 
        2.37203         65.9623          5.9755 
        2.38768         65.3878         5.87983 
        2.40339         64.6356         5.78592 
        2.41914         63.6501         5.69384 
        2.43483         63.2911          5.6041 
         2.4505         62.4062         5.51644 
        2.46622         61.9823         5.43035 
        2.48195         61.0414          5.3461 
        2.49759         60.4333         5.26408 
        2.51328         59.8263         5.18358 
        2.52906         59.1182         5.10424 
        2.54479         58.4042         5.02687 
        2.56049         57.6622         4.95125 
        2.57618         56.9882         4.87725 
        2.59189         56.5973         4.80466 
        2.60758         55.8018         4.73365 
        2.62325         55.3088         4.66417 
        2.63898         54.6961         4.59584 
        2.65468         54.1271         4.52903 
        2.67044         53.5759         4.46326 
        2.68618         53.0987         4.39894 
        2.70184         52.2755         4.33615 
        2.71755         51.6616         4.27443 
        2.73329         51.3365         4.21382 
        2.74897         50.9162         4.15458 
        2.76462         50.3469         4.09661 
        2.78034         49.6998         4.03951 
        2.79607          48.958         3.98344 
        2.81179         48.5474         3.92849 
        2.82749         48.1642         3.87465 
        2.84321         47.7803         3.82175 
        2.85893          47.154         3.76986 
        2.87462         46.4086         3.71901 
        2.89033          46.074         3.66907 
        2.90605         45.4939         3.61999 
        2.92176         45.1566         3.57184 
        2.93747         44.6599         3.52459 
        2.95318         44.2443         3.47818 
        2.96891         43.7267         3.43259 
        2.98456         43.3717         3.38802 
        3.00023         42.7346         3.34417 
        3.01596         42.4851         3.30096 
        3.03164         41.9418         3.25864 
        3.04738         41.5149         3.21694 
         3.0631         41.2889         3.17598 
        3.07883         40.7814         3.13574 
        3.09456         40.3116          3.0962 
        3.11026         39.8329          3.0574 
        3.12596         39.4549         3.01927 
        3.14163         39.0994         2.98187 
        3.15734         38.7602         2.94503 
        3.17308          38.471         2.90872 
        3.18879         38.0045         2.87311 
        3.20447         37.4657         2.83816 
         3.2202         37.1564         2.80368 
         3.2359         36.9116         2.76984 
        3.25157         36.4052         2.73663 
        3.26729         36.1809         2.70387 
        3.28304         35.8416         2.67158 
        3.29877         35.3065         2.63985 
        3.31446         35.1114         2.60872 
        3.33014         34.6151         2.57811 
        3.34585          34.287         2.54795 
        3.36158         33.9777         2.51822 
        3.37727         33.6495         2.48906 
        3.39294         33.3541         2.46039 
        3.40867         33.0862         2.43207 
        3.42439         32.7397         2.40421 
        3.44008         32.4553         2.37684 
        3.45578         32.1198         2.34988 
        3.47153         31.9128         2.32327 
        3.48724         31.5012         2.29712 
        3.50292         31.2836         2.27144 
        3.51859           30.93         2.24616 
        3.53431         30.6503         2.22119 
        3.55007         30.2197         2.19653 
        3.56577         30.0142         2.17235 
        3.58146         29.7432         2.14854 
        3.59719         29.4741         2.12504 
        3.61292         29.2891         2.10189 
        3.62859         28.9046         2.07917 
        3.64429         28.6194         2.05675 
        3.66003         28.3911         2.03459 
        3.67578          28.153         2.01276 
        3.69146         27.9777         1.99134 
        3.70712          27.572         1.97027 
        3.72284         27.4113         1.94942 
        3.73853         27.1724         1.92891 
        3.75422         26.9324         1.90869 
        3.76993         26.6273         1.88874 
        3.78564         26.3724         1.86908 
        3.80137         26.1762         1.84968 
        3.81707         25.9091         1.83058 
        3.83279         25.6312         1.81175 
        3.84853         25.4875         1.79314 
        3.86424         25.0827         1.77484 
        3.87992         24.9249         1.75681 
        3.89561         24.8052         1.73904 
        3.91134         24.4818         1.72147 
        3.92704          24.269         1.70417 
        3.94273         24.0151         1.68712 
        3.95845         23.8718         1.67028 
        3.97418         23.6893         1.65366 
        3.98988         23.4412         1.63729 
        4.00554         23.1757         1.62118 
        4.02125         22.9952         1.60525 
        4.03698         22.8217         1.58951 
        4.05268         22.6166         1.57401 
        4.06839         22.4122         1.55871 
         4.0841           22.24         1.54361 
        4.09983         21.9904         1.52869 
        4.11555         21.8377         1.51398 
        4.13124         21.7027          1.4995 
        4.14693         21.5239          1.4852 
        4.16266         21.2774         1.47105 
        4.17839         21.1319          1.4571 
        4.19408         20.8776         1.44335 
        4.20977         20.7685         1.42978 
        4.22551         20.5955         1.41635 
        4.24123           20.39         1.40311 
        4.25691         20.2234         1.39007 
        4.27259         20.0728         1.37719 
        4.28831         19.8879         1.36445 
        4.30404          19.679         1.35186 
        4.31974         19.5617         1.33946 
        4.33543         19.4297         1.32721 
        4.35116         19.2447          1.3151 
        4.36688         19.0809         1.30313 
        4.38255         18.8708         1.29136 
        4.39825         18.7769         1.27971 
        4.41398         18.5608         1.26818 
         4.4297         18.4875         1.25681 
        4.44541         18.2764         1.24558 
        4.46111         18.0459         1.23449 
        4.47683         17.9604         1.22353 
        4.49251         17.8616         1.21272 
        4.50819         17.6952         1.20205 
         4.5239         17.5568         1.19149 
        4.53962           17.46         1.18104 
        4.55535         17.2654         1.17072 
        4.57106         17.1428         1.16053 
        4.58678         16.9673         1.15046 
         4.6025         16.7916         1.14051 
        4.61821         16.7392         1.13068 
        4.63391          16.554         1.12098 
         4.6496         16.4193         1.11139 
        4.66532         16.2995          1.1019 
        4.68103         16.1833         1.09253 
        4.69673         16.0216         1.08327 
        4.71241          15.949         1.07413 
        4.72811         15.7827         1.06509 
        4.74384         15.6384         1.05613 
        4.75955         15.5495         1.04729 
        4.77525         15.4164         1.03856 
        4.79096         15.2849         1.02991 
        4.80669          15.204         1.02136 
         4.8224         15.0745         1.01292 
        4.83809         14.9235         1.00458 
        4.85379         14.8188        0.996325 
         4.8695          14.718         0.98816 
        4.88521         14.5768         0.98009 
        4.90093          14.441        0.972109 
        4.91663          14.385        0.964224 
        4.93234         14.2577        0.956418 
        4.94807          14.149        0.948693 
        4.96377         14.0494        0.941067 
        4.97943         13.9441        0.933542 
        4.99514         13.8261        0.926079 
        5.01086         13.7316        0.918692 
        5.02654         13.6188        0.911405 
        5.04227         13.5145        0.904175 
          5.058         13.3936         0.89702 
        5.07371         13.3143        0.889957 
        5.08942          13.191        0.882968 
        5.10513         13.1251        0.876054 
        5.12084         13.0075         0.86921 
        5.13656         12.9206        0.862441 
        5.15225         12.8173        0.855755 
        5.16796         12.7158        0.849129 
        5.18369         12.6129        0.842568 
         5.1994         12.5349        0.836088 
        5.21509          12.432        0.829681 
        5.23079         12.3369        0.823334 
        5.24649         12.2583        0.817059 
        5.26217         12.1547        0.810853 
        5.27788         12.0612        0.804703 
        5.29359         11.9734        0.798615 
        5.30933         11.8884        0.792582 
        5.32504         11.7945        0.786621 
        5.34073         11.7359        0.780727 
        5.35646         11.6599        0.774883 
        5.37218         11.5378        0.769097 
        5.38789         11.4624        0.763379 
        5.40357         11.3754        0.757726 
        5.41929         11.3062        0.752118 
        5.43502         11.2298        0.746565 
         5.4507         11.1409        0.741082 
        5.46639         11.0353        0.735654 
        5.48212         10.9827        0.730266 
        5.49786         10.9178        0.724927 
        5.51353         10.8339        0.719667 
        5.52921         10.7588        0.714454 
        5.54495         10.6559        0.709277 
        5.56066         10.5895        0.704158 
        5.57637         10.5388        0.699089 
        5.59207         10.4552        0.694075 
        5.60778         10.3727        0.689108 
        5.62346         10.2959        0.684196 
        5.63916          10.237        0.679328 
        5.65487         10.1625        0.674505 
         5.6706         10.0796        0.669722 
        5.68633         9.99574        0.664985 
        5.70203         9.93927        0.660302 
        5.71773         9.86774        0.655666 
        5.73344         9.81244        0.651072 
        5.74916         9.75551        0.646517 
        5.76486         9.67469        0.642012 
        5.78054         9.61008        0.637557 
        5.79626         9.53224        0.633132 
          5.812         9.45428        0.628744 
         5.8277         9.40712        0.624411 
        5.84339         9.31353        0.620119 
        5.85911         9.28308        0.615858 
        5.87484         9.20018        0.611638 
        5.89053         9.14526        0.607467 
        5.90623          9.0947        0.603332 
        5.92195         9.02985        0.599228 
        5.93767          8.9525        0.595165 
        5.95336         8.89083        0.591146 
        5.96905         8.85553        0.587166 
        5.98476         8.77477        0.583217 
        6.00048         8.71545        0.579303 
        6.01617         8.66234         0.57543 
        6.03185         8.61646        0.571597 
        6.04756         8.55439        0.567789 
        6.06331         8.49534        0.564009 
        6.07903         8.43492         0.56027 
        6.09473         8.37746        0.556569 
        6.11044          8.3269        0.552898 
        6.12616         8.27605        0.549261 
        6.14186         8.22708         0.54566 
        6.15755         8.17661        0.542091 
        6.17326          8.0972        0.538552 
        6.18898         8.06608        0.535042 
        6.20467         8.00734         0.53157 
        6.22036         7.94053        0.528129 
         6.2361         7.90208         0.52471 
         6.2518          7.8466        0.521326 
        6.26748          7.7984        0.517979 
        6.28319         7.75463        0.514652 
        6.29893         7.69616        0.511352 
        6.31463         7.63975        0.508087 
        6.33033         7.59478         0.50485 
        6.34604         7.53777         0.50164 
        6.36177         7.50492        0.498455 
        6.37747         7.44951        0.495303 
