# k  (h/Mpc)    Pcb(k)  (Mpc/h)^3    Pcb_linear(k) (Mpc/h)^3   ShotnoiseSubtracted = true
      0.0200456         291.937         295.702 
      0.0350414         216.748         214.965 
      0.0492313         156.835          156.19 
      0.0637834          129.16         129.839 
      0.0800726         102.303          103.05 
       0.096163         75.5754         74.7718 
       0.111083         60.4467         59.6399 
       0.126058         52.6501         52.8531 
       0.142273         44.4929         44.7782 
       0.158546         35.4918         35.3654 
        0.17375         30.0935         29.7953 
       0.188953         27.0273          26.979 
       0.204907         23.5522         23.8709 
       0.220756          20.238         20.1962 
        0.23588         17.6164          17.569 
         0.2514         15.9909         15.9612 
       0.267535         14.4941         14.4422 
       0.283568         12.7836         12.7361 
       0.299022         11.4156         11.3472 
       0.314451         10.5433         10.3705 
       0.330372         9.58919         9.51381 
       0.346141         8.70968         8.63523 
       0.361624         7.90321         7.84824 
       0.377134         7.24983         7.22162 
       0.392932         6.84182         6.68203 
       0.408854          6.2031         6.15954 
       0.424564          5.8073         5.67733 
       0.440253         5.33691         5.26355 
       0.455999         4.92505         4.90374 
       0.471626         4.59597         4.57309 
        0.48727         4.35197         4.26378 
       0.502856         4.07478          3.9859 
       0.518488         3.76408         3.73797 
       0.534347         3.51597         3.50748 
       0.550082         3.34987         3.29496 
       0.565732         3.18459         3.10053 
       0.581496         2.97842         2.92246 
       0.597222         2.80786         2.75915 
       0.612804         2.64883         2.60898 
       0.628434         2.51394         2.46901 
       0.644267         2.39201         2.33815 
       0.660051         2.26855         2.21754 
       0.675724         2.13882         2.10617 
       0.691403         2.03885         2.00236 
       0.707174         1.93892         1.90496 
       0.722871         1.88067         1.81442 
        0.73838         1.75897         1.73074 
       0.754018         1.67886          1.6517 
       0.769845         1.58966         1.57674 
        0.78569         1.53786         1.50637 
       0.801365         1.47359           1.441 
       0.817031         1.41463         1.37956 
       0.832809         1.34346         1.32134 
       0.848511         1.29392         1.26675 
       0.864097         1.24738         1.21563 
       0.879701         1.20489          1.1673 
       0.895507         1.14216         1.12104 
       0.911279         1.10678          1.0774 
        0.92691         1.07279         1.03645 
       0.942635         1.01778        0.997412 
       0.958396        0.984274        0.960312 
       0.974128        0.949914        0.925174 
       0.989692        0.915102        0.892149 
        1.00528        0.878601        0.860695 
        1.02113        0.856605        0.830269 
        1.03692        0.829785        0.801434 
        1.05264        0.793048        0.774106 
        1.06832        0.769573          0.7481 
        1.08405        0.739601        0.723224 
        1.09979        0.719755        0.699469 
        1.11537        0.692386        0.677021 
        1.13105        0.666455        0.655428 
        1.14679        0.650867        0.634697 
        1.16256        0.631443        0.614826 
        1.17828        0.613771        0.595874 
        1.19395        0.594248        0.577787 
         1.2097        0.574347        0.560362 
        1.22537        0.555128        0.543743 
          1.241        0.540349         0.52785 
        1.25666        0.528149        0.512554 
        1.27241         0.51033        0.497796 
        1.28819         0.49405        0.483595 
        1.30392        0.482267        0.469992 
        1.31957        0.467841        0.456974 
        1.33529        0.455079        0.444403 
        1.35108        0.441602        0.432256 
        1.36674         0.42961        0.420652 
         1.3824        0.420444        0.409486 
        1.39811        0.406491        0.398689 
        1.41389        0.397928        0.388241 
        1.42964        0.387055        0.378186 
        1.44531        0.376008        0.368538 
        1.46101        0.365061        0.359206 
        1.47667        0.357253        0.350227 
        1.49229        0.347108        0.341579 
        1.50793        0.339931        0.333214 
        1.52367        0.329756        0.325076 
        1.53953        0.321386        0.317156 
        1.55526        0.314306        0.309564 
        1.57092        0.309422        0.302252 
        1.58662        0.301286         0.29516 
        1.60235        0.293709        0.288282 
        1.61809        0.285538         0.28162 
        1.63369        0.278359        0.275228 
        1.64941        0.273052         0.26899 
        1.66519        0.267464        0.262922 
        1.68085        0.259791        0.257086 
        1.69652        0.254586        0.251425 
        1.71228        0.248119        0.245903 
        1.72806        0.243645        0.240543 
        1.74368        0.237772        0.235397 
        1.75933        0.233172        0.230391 
        1.77505        0.228578        0.225507 
        1.79081        0.221927        0.220757 
         1.8065        0.218682        0.216164 
        1.82218        0.212541        0.211707 
        1.83797        0.207477        0.207344 
        1.85367        0.204174        0.203129 
        1.86928        0.199136        0.199057 
        1.88497        0.194952        0.195074 
        1.90073        0.191051        0.191185 
        1.91647        0.187984        0.187407 
        1.93218        0.184901        0.183738 
        1.94787        0.179585        0.180173 
        1.96363        0.176414        0.176689 
        1.97935         0.17273        0.173305 
        1.99499        0.169123        0.170028 
        2.01064        0.166122        0.166831 
         2.0264        0.163146        0.163697 
        2.04216        0.159118        0.160645 
        2.05781        0.156245        0.157689 
        2.07353        0.153658        0.154798 
        2.08928        0.151082        0.151973 
        2.10499        0.147433        0.149227 
        2.12065        0.144988        0.146556 
        2.13633        0.142327        0.143949 
        2.15211         0.13996        0.141388 
        2.16785        0.136744        0.138897 
        2.18349        0.134594        0.136481 
        2.19916        0.131553        0.134118 
        2.21489        0.129101        0.131803 
        2.23063        0.127083        0.129542 
         2.2463        0.125009        0.127343 
        2.26194        0.122842        0.125201 
        2.27765        0.120473        0.123098 
        2.29341        0.118084        0.121037 
        2.30914        0.115911        0.119028 
        2.32486        0.113941        0.117065 
        2.34061        0.111937        0.115144 
        2.35635         0.11008        0.113267 
        2.37203        0.109139        0.111439 
        2.38768        0.106612        0.109655 
        2.40339        0.104826        0.107904 
        2.41914        0.102875        0.106187 
        2.43483        0.101437        0.104513 
         2.4505       0.0994319        0.102878 
        2.46622       0.0978632        0.101273 
        2.48195       0.0962741       0.0997013 
        2.49759       0.0948471       0.0981717 
        2.51328       0.0923856       0.0966703 
        2.52906       0.0915413       0.0951909 
        2.54479       0.0900086       0.0937479 
        2.56049       0.0882676       0.0923376 
        2.57618       0.0874263       0.0909576 
        2.59189       0.0855039       0.0896037 
        2.60758       0.0845711       0.0882796 
        2.62325       0.0829069       0.0869838 
        2.63898       0.0819784       0.0857095 
        2.65468       0.0802925       0.0844634 
        2.67044       0.0791517       0.0832368 
        2.68618       0.0778567       0.0820374 
        2.70184       0.0769669       0.0808664 
        2.71755        0.075554       0.0797154 
        2.73329       0.0744103        0.078585 
        2.74897       0.0733896       0.0774802 
        2.76462       0.0720181       0.0763992 
        2.78034       0.0711499       0.0753342 
        2.79607       0.0702287       0.0742885 
        2.81179       0.0688453       0.0732638 
        2.82749        0.068082       0.0722596 
        2.84321       0.0669776       0.0712731 
        2.85893       0.0658078       0.0703054 
        2.87462       0.0652393       0.0693572 
        2.89033       0.0640042       0.0684257 
        2.90605       0.0632326       0.0675105 
        2.92176       0.0624842       0.0666125 
        2.93747       0.0613167       0.0657313 
        2.95318       0.0607621       0.0648658 
        2.96891       0.0597823       0.0640156 
        2.98456       0.0589098       0.0631843 
        3.00023       0.0583169       0.0623666 
        3.01596         0.05711       0.0615608 
        3.03164       0.0564147       0.0607716 
        3.04738       0.0556912       0.0599939 
         3.0631       0.0546748       0.0592301 
        3.07883        0.054152       0.0584795 
        3.09456       0.0535127       0.0577421 
        3.11026       0.0526384       0.0570185 
        3.12596       0.0522226       0.0563074 
        3.14163       0.0513317         0.05561 
        3.15734       0.0508664       0.0549229 
        3.17308       0.0500748       0.0542457 
        3.18879       0.0493898       0.0535817 
        3.20447       0.0486176       0.0529299 
         3.2202       0.0481421       0.0522869 
         3.2359       0.0476125       0.0516557 
        3.25157       0.0469961       0.0510364 
        3.26729       0.0463319       0.0504254 
        3.28304        0.045957       0.0498232 
        3.29877       0.0451951       0.0492316 
        3.31446       0.0445945       0.0486509 
        3.33014       0.0442674       0.0480801 
        3.34585       0.0435617       0.0475176 
        3.36158       0.0430774       0.0469632 
        3.37727       0.0424744       0.0464194 
        3.39294       0.0420971       0.0458847 
        3.40867       0.0416573       0.0453566 
        3.42439       0.0411748        0.044837 
        3.44008       0.0407379       0.0443265 
        3.45578       0.0403207       0.0438237 
        3.47153       0.0398814       0.0433275 
        3.48724        0.039338       0.0428399 
        3.50292       0.0390773       0.0423609 
        3.51859       0.0385471       0.0418895 
        3.53431       0.0380851       0.0414237 
        3.55007       0.0377441        0.040964 
        3.56577       0.0373257        0.040513 
        3.58146        0.036944       0.0400689 
        3.59719       0.0364971       0.0396306 
        3.61292       0.0360463       0.0391989 
        3.62859        0.035723       0.0387753 
        3.64429       0.0354289       0.0383571 
        3.66003       0.0351394       0.0379438 
        3.67578       0.0348103       0.0375368 
        3.69146       0.0344956       0.0371372 
        3.70712        0.034111       0.0367442 
        3.72284       0.0336715       0.0363554 
        3.73853       0.0335347       0.0359729 
        3.75422       0.0330446       0.0355958 
        3.76993       0.0327917       0.0352238 
        3.78564       0.0324986       0.0348572 
        3.80137       0.0322714       0.0344953 
        3.81707       0.0318617       0.0341392 
        3.83279       0.0315799       0.0337879 
        3.84853       0.0313096       0.0334409 
        3.86424       0.0311562       0.0330995 
        3.87992       0.0308702       0.0327634 
        3.89561        0.030431       0.0324319 
        3.91134       0.0302381       0.0321043 
        3.92704       0.0299068       0.0317817 
        3.94273       0.0296596       0.0314638 
        3.95845       0.0294199       0.0311496 
        3.97418       0.0291184       0.0308397 
        3.98988       0.0287387       0.0305344 
        4.00554       0.0285818        0.030234 
        4.02125       0.0282165       0.0299369 
        4.03698       0.0278005       0.0296433 
        4.05268       0.0275627       0.0293542 
        4.06839       0.0271172       0.0290688 
         4.0841       0.0266954       0.0287873 
        4.09983       0.0262901       0.0285092 
        4.11555       0.0259489       0.0282348 
        4.13124       0.0255534       0.0279648 
        4.14693        0.025243        0.027698 
        4.16266       0.0248415       0.0274342 
        4.17839       0.0245597       0.0271739 
        4.19408        0.024255       0.0269176 
        4.20977       0.0239345       0.0266645 
        4.22551       0.0236558        0.026414 
        4.24123       0.0233598        0.026167 
        4.25691       0.0231435       0.0259239 
        4.27259       0.0228995       0.0256837 
        4.28831        0.022678       0.0254461 
        4.30404       0.0223897       0.0252113 
        4.31974       0.0221901         0.02498 
        4.33543       0.0219539       0.0247517 
        4.35116       0.0217339       0.0245257 
        4.36688       0.0216213       0.0243026 
        4.38255       0.0213617       0.0240831 
        4.39825        0.021305       0.0238658 
        4.41398       0.0211234       0.0236508 
         4.4297       0.0209936       0.0234387 
        4.44541       0.0208115       0.0232292 
        4.46111       0.0206507       0.0230224 
        4.47683       0.0206301        0.022818 
        4.49251       0.0204975       0.0226165 
        4.50819       0.0204201       0.0224175 
         4.5239       0.0203032       0.0222205 
        4.53962       0.0202586       0.0220257 
        4.55535       0.0202074       0.0218332 
        4.57106       0.0201957       0.0216432 
        4.58678       0.0200606       0.0214554 
         4.6025       0.0200039       0.0212698 
        4.61821       0.0200596       0.0210865 
        4.63391       0.0200169       0.0209055 
         4.6496       0.0199729       0.0207267 
        4.66532       0.0199451       0.0205498 
        4.68103       0.0200892        0.020375 
        4.69673       0.0200285       0.0202024 
        4.71241       0.0200965       0.0200319 
        4.72811       0.0200505       0.0198632 
        4.74384       0.0201123       0.0196961 
        4.75955       0.0202273       0.0195313 
        4.77525       0.0203011       0.0193684 
        4.79096       0.0203626       0.0192072 
        4.80669       0.0204813       0.0190477 
         4.8224       0.0205644       0.0188902 
        4.83809       0.0206365       0.0187347 
        4.85379       0.0208588       0.0185808 
         4.8695       0.0209425       0.0184286 
        4.88521       0.0210578       0.0182781 
        4.90093       0.0211921       0.0181292 
        4.91663       0.0213496       0.0179822 
        4.93234       0.0215263       0.0178366 
        4.94807       0.0217288       0.0176925 
        4.96377       0.0218772       0.0175503 
        4.97943       0.0222238         0.01741 
        4.99514       0.0222834       0.0172708 
        5.01086       0.0225568        0.017133 
        5.02654       0.0227678       0.0169971 
        5.04227       0.0230055       0.0168623 
          5.058       0.0232465       0.0167288 
        5.07371       0.0234656       0.0165971 
        5.08942       0.0237779       0.0164668 
        5.10513       0.0240968       0.0163378 
        5.12084       0.0244006       0.0162102 
        5.13656       0.0247947        0.016084 
        5.15225       0.0250685       0.0159593 
        5.16796       0.0254062       0.0158357 
        5.18369       0.0257572       0.0157133 
         5.1994       0.0261302       0.0155925 
        5.21509       0.0265903        0.015473 
        5.23079       0.0268844       0.0153547 
        5.24649       0.0273477       0.0152376 
        5.26217       0.0277224       0.0151219 
        5.27788       0.0282537       0.0150072 
        5.29359       0.0285985       0.0148937 
        5.30933       0.0291284       0.0147811 
        5.32504       0.0296195         0.01467 
        5.34073       0.0301715       0.0145601 
        5.35646       0.0305795       0.0144511 
        5.37218       0.0311209       0.0143432 
        5.38789       0.0315705       0.0142365 
        5.40357        0.032345       0.0141311 
        5.41929       0.0329928       0.0140265 
        5.43502       0.0334696        0.013923 
         5.4507       0.0341103       0.0138207 
        5.46639       0.0347344       0.0137195 
        5.48212       0.0353935        0.013619 
        5.49786       0.0361471       0.0135194 
        5.51353       0.0370448       0.0134213 
        5.52921       0.0374138       0.0133241 
        5.54495       0.0383482       0.0132276 
        5.56066       0.0392114       0.0131321 
        5.57637       0.0400626       0.0130376 
        5.59207       0.0407651       0.0129441 
        5.60778       0.0414024       0.0128514 
        5.62346       0.0424149       0.0127598 
        5.63916       0.0433462        0.012669 
        5.65487       0.0441725       0.0125791 
         5.6706       0.0450183       0.0124899 
        5.68633       0.0458918       0.0124015 
        5.70203        0.047056       0.0123142 
        5.71773       0.0483308       0.0122278 
        5.73344       0.0492707       0.0121421 
        5.74916       0.0504879       0.0120571 
        5.76486       0.0517149       0.0119731 
        5.78054       0.0532609         0.01189 
        5.79626       0.0537878       0.0118075 
          5.812       0.0554405       0.0117257 
         5.8277        0.056427       0.0116449 
        5.84339       0.0578779       0.0115648 
        5.85911       0.0591208       0.0114854 
        5.87484       0.0603016       0.0114067 
        5.89053       0.0622543       0.0113289 
        5.90623       0.0634424       0.0112518 
        5.92195        0.064939       0.0111752 
        5.93767       0.0668357       0.0110994 
        5.95336       0.0676222       0.0110245 
        5.96905       0.0696839       0.0109503 
        5.98476       0.0708598       0.0108766 
        6.00048       0.0729971       0.0108036 
        6.01617       0.0750776       0.0107314 
        6.03185       0.0766218       0.0106599 
        6.04756       0.0786076       0.0105889 
        6.06331       0.0810853       0.0105184 
        6.07903       0.0824975       0.0104487 
        6.09473       0.0843104       0.0103797 
        6.11044       0.0867979       0.0103112 
        6.12616       0.0887761       0.0102434 
        6.14186        0.091194       0.0101762 
        6.15755       0.0934086       0.0101097 
        6.17326       0.0957493       0.0100436 
        6.18898       0.0987138      0.00997819 
        6.20467        0.100636      0.00991344 
        6.22036        0.104216      0.00984927 
         6.2361         0.10624       0.0097855 
         6.2518         0.10898      0.00972239 
        6.26748        0.110578      0.00965998 
        6.28319        0.114358      0.00959794 
        6.29893        0.117115      0.00953639 
        6.31463        0.120487      0.00947549 
        6.33033        0.123427      0.00941513 
        6.34604        0.126995      0.00935526 
        6.36177        0.129694      0.00929586 
        6.37747        0.132658      0.00923708 
