# k  (h/Mpc)    Pcb(k)  (Mpc/h)^3    Pcb_linear(k) (Mpc/h)^3   ShotnoiseSubtracted = true
      0.0200456         8322.65         8440.15 
      0.0350414         6281.97         6135.71 
      0.0492313         4434.21         4458.09 
      0.0637834         3596.71         3705.97 
      0.0800726         2837.49         2941.34 
       0.096163         2201.31         2134.19 
       0.111083         1784.91         1702.29 
       0.126058            1497         1508.57 
       0.142273          1282.9         1278.09 
       0.158546         1050.53         1009.43 
        0.17375          912.68         850.441 
       0.188953         837.609         770.055 
       0.204907         713.465         681.342 
       0.220756          637.28         576.456 
        0.23588         563.883         501.467 
         0.2514         505.285         455.578 
       0.267535         486.002          412.22 
       0.283568         423.552         363.522 
       0.299022         400.703          323.88 
       0.314451         396.018         296.004 
       0.330372         341.772          271.55 
       0.346141         316.502         246.473 
       0.361624         300.021         224.011 
       0.377134         276.709         206.125 
       0.392932          269.45         190.723 
       0.408854         254.914          175.81 
       0.424564         244.402         162.047 
       0.440253         220.601         150.236 
       0.455999         208.864         139.966 
       0.471626         205.459         130.528 
        0.48727         196.824           121.7 
       0.502856         179.596         113.769 
       0.518488          178.58         106.692 
       0.534347         166.462         100.113 
       0.550082         162.636         94.0473 
       0.565732         160.052         88.4978 
       0.581496         148.125         83.4151 
       0.597222         144.921         78.7537 
       0.612804         140.208         74.4675 
       0.628434         136.169         70.4723 
       0.644267          129.32         66.7372 
       0.660051         125.625         63.2947 
       0.675724         123.951         60.1159 
       0.691403         120.898         57.1528 
       0.707174          116.68         54.3727 
       0.722871         114.637         51.7886 
        0.73838         112.117         49.4001 
       0.754018         105.294         47.1442 
       0.769845         104.868         45.0046 
        0.78569         101.935         42.9961 
       0.801365         98.7523         41.1301 
       0.817031          95.651         39.3765 
       0.832809         93.9864         37.7146 
       0.848511         91.8484         36.1565 
       0.864097         90.2351         34.6975 
       0.879701         88.6494         33.3181 
       0.895507         85.3776         31.9977 
       0.911279         84.0429         30.7519 
        0.92691          81.746         29.5831 
       0.942635         79.9796         28.4689 
       0.958396         79.6689           27.41 
       0.974128         77.7944          26.407 
       0.989692         76.0326         25.4644 
        1.00528          74.638         24.5666 
        1.02113         72.8725         23.6982 
        1.03692         72.7603         22.8751 
        1.05264         71.4323         22.0951 
        1.06832         69.1367         21.3528 
        1.08405         68.4382         20.6428 
        1.09979         67.8806         19.9648 
        1.11537         66.0505         19.3241 
        1.13105         64.7616         18.7077 
        1.14679         64.0044          18.116 
        1.16256         62.8378         17.5488 
        1.17828          62.286         17.0079 
        1.19395         60.5791         16.4916 
         1.2097         60.7678         15.9943 
        1.22537         59.2391         15.5199 
          1.241         58.8042         15.0663 
        1.25666         56.9961         14.6297 
        1.27241         56.9396         14.2085 
        1.28819         56.1389         13.8031 
        1.30392         55.0992         13.4149 
        1.31957         54.8214         13.0433 
        1.33529         53.9173         12.6845 
        1.35108         53.1265         12.3378 
        1.36674         52.3293         12.0066 
         1.3824         51.6099         11.6878 
        1.39811         50.7776         11.3797 
        1.41389         50.0297         11.0815 
        1.42964         49.6909         10.7945 
        1.44531         48.7832         10.5191 
        1.46101         48.4578         10.2527 
        1.47667         47.7253         9.99644 
        1.49229          47.068          9.7496 
        1.50793         46.6325         9.51085 
        1.52367         46.0257         9.27857 
        1.53953         45.5877         9.05251 
        1.55526         44.8514         8.83581 
        1.57092         44.4669         8.62711 
        1.58662         43.8724         8.42467 
        1.60235         43.2969         8.22836 
        1.61809         42.7041         8.03821 
        1.63369          42.178         7.85577 
        1.64941         41.7697         7.67771 
        1.66519         41.0596         7.50453 
        1.68085         40.7011         7.33794 
        1.69652         40.0539         7.17637 
        1.71228         39.9023         7.01876 
        1.72806         39.2741         6.86576 
        1.74368         38.7657         6.71887 
        1.75933         38.5523         6.57599 
        1.77505         38.2216         6.43661 
        1.79081         37.7103         6.30102 
         1.8065         37.1243         6.16993 
        1.82218         36.5318         6.04269 
        1.83797         36.3228         5.91818 
        1.85367         35.8658         5.79787 
        1.86928         35.8638         5.68163 
        1.88497          35.061         5.56795 
        1.90073         34.8252         5.45696 
        1.91647          34.629          5.3491 
        1.93218         34.4514          5.2444 
        1.94787         33.9115         5.14265 
        1.96363         33.3294          5.0432 
        1.97935         33.1722         4.94659 
        1.99499         32.8484         4.85307 
        2.01064         32.3489         4.76183 
         2.0264         32.1009         4.67236 
        2.04216         31.8895         4.58524 
        2.05781         31.5122         4.50089 
        2.07353         31.1295         4.41837 
        2.08928         30.9222         4.33774 
        2.10499          30.622         4.25934 
        2.12065         30.2356         4.18312 
        2.13633         30.0431         4.10869 
        2.15211         29.5133          4.0356 
        2.16785         29.2873          3.9645 
        2.18349         29.0182         3.89555 
        2.19916         28.7241          3.8281 
        2.21489         28.4609         3.76203 
        2.23063         28.2781         3.69747 
         2.2463         28.0064         3.63472 
        2.26194         27.6425         3.57359 
        2.27765         27.3652         3.51355 
        2.29341          27.062         3.45473 
        2.30914         26.8066         3.39738 
        2.32486         26.5648         3.34137 
        2.34061         26.3379         3.28652 
        2.35635         26.0236         3.23296 
        2.37203         25.8354         3.18078 
        2.38768         25.6139         3.12986 
        2.40339         25.4522         3.07987 
        2.41914         25.1396         3.03086 
        2.43483         25.0504         2.98308 
         2.4505         24.5841         2.93642 
        2.46622         24.3427          2.8906 
        2.48195         24.1664         2.84575 
        2.49759         23.8258         2.80209 
        2.51328         23.7067         2.75924 
        2.52906         23.5315         2.71701 
        2.54479         23.2795         2.67582 
        2.56049          23.214         2.63557 
        2.57618         22.9405         2.59618 
        2.59189         22.5943         2.55754 
        2.60758         22.4438         2.51974 
        2.62325         22.2012         2.48276 
        2.63898         22.0821         2.44639 
        2.65468         21.8756         2.41082 
        2.67044         21.6091         2.37581 
        2.68618         21.3706         2.34157 
        2.70184         21.1778         2.30815 
        2.71755         20.9926          2.2753 
        2.73329         20.7927         2.24303 
        2.74897         20.6694          2.2115 
        2.76462         20.5193         2.18064 
        2.78034         20.1866         2.15025 
        2.79607         20.0337          2.1204 
        2.81179         19.8907         2.09115 
        2.82749          19.684         2.06249 
        2.84321         19.5685         2.03433 
        2.85893         19.3281         2.00671 
        2.87462          19.189         1.97965 
        2.89033         19.0491         1.95306 
        2.90605         18.7939         1.92694 
        2.92176         18.5808          1.9013 
        2.93747         18.4969         1.87615 
        2.95318         18.3588         1.85145 
        2.96891         18.1127         1.82718 
        2.98456         18.0693         1.80346 
        3.00023         17.8093         1.78012 
        3.01596          17.633         1.75712 
        3.03164         17.5094         1.73459 
        3.04738         17.3659         1.71239 
         3.0631         17.2339         1.69059 
        3.07883         17.0738         1.66917 
        3.09456         16.9325         1.64812 
        3.11026         16.7812         1.62746 
        3.12596         16.6077         1.60717 
        3.14163         16.4772         1.58726 
        3.15734         16.3432         1.56765 
        3.17308         16.2323         1.54832 
        3.18879         15.9873         1.52937 
        3.20447         15.9544         1.51077 
         3.2202         15.7733         1.49241 
         3.2359         15.6527          1.4744 
        3.25157         15.5488         1.45672 
        3.26729         15.3697         1.43928 
        3.28304         15.2952         1.42209 
        3.29877         15.2254         1.40521 
        3.31446          15.025         1.38863 
        3.33014         14.8824         1.37234 
        3.34585         14.7724         1.35628 
        3.36158         14.6366         1.34046 
        3.37727         14.4992         1.32494 
        3.39294         14.3877         1.30968 
        3.40867         14.2539          1.2946 
        3.42439         14.1575         1.27977 
        3.44008         14.0351          1.2652 
        3.45578         13.8893         1.25085 
        3.47153         13.8004         1.23669 
        3.48724         13.7138         1.22277 
        3.50292         13.6047          1.2091 
        3.51859         13.4725         1.19564 
        3.53431         13.3304         1.18235 
        3.55007         13.2379         1.16922 
        3.56577         13.1402         1.15635 
        3.58146         13.0023         1.14368 
        3.59719         12.9098         1.13117 
        3.61292         12.8036         1.11884 
        3.62859         12.6901         1.10675 
        3.64429         12.5972         1.09482 
        3.66003          12.486         1.08302 
        3.67578         12.3992          1.0714 
        3.69146         12.3015            1.06 
        3.70712          12.152         1.04878 
        3.72284         12.0766         1.03768 
        3.73853         11.9879         1.02677 
        3.75422         11.8589           1.016 
        3.76993         11.7682         1.00538 
        3.78564         11.6991        0.994921 
        3.80137         11.5931         0.98459 
        3.81707         11.4961        0.974427 
        3.83279         11.4411        0.964399 
        3.84853         11.3121        0.954497 
        3.86424         11.2144        0.944752 
        3.87992         11.1338        0.935158 
        3.89561         11.0576        0.925697 
        3.91134         10.9665        0.916347 
        3.92704         10.8913        0.907137 
        3.94273         10.7929        0.898063 
        3.95845         10.6798        0.889096 
        3.97418         10.6002        0.880249 
        3.98988         10.5661        0.871535 
        4.00554         10.4467        0.862963 
        4.02125          10.372        0.854481 
        4.03698         10.2875          0.8461 
        4.05268         10.2336        0.837851 
        4.06839         10.1148        0.829705 
         4.0841         10.0389         0.82167 
        4.09983         9.96353        0.813731 
        4.11555         9.86656        0.805899 
        4.13124          9.8034        0.798192 
        4.14693          9.7033        0.790579 
        4.16266          9.6475        0.783047 
        4.17839         9.55513        0.775619 
        4.19408         9.50438        0.768303 
        4.20977         9.39326        0.761079 
        4.22551         9.34686         0.75393 
        4.24123         9.28324         0.74688 
        4.25691         9.19607         0.73994 
        4.27259         9.11877        0.733085 
        4.28831          9.0371        0.726303 
        4.30404         9.01828        0.719601 
        4.31974         8.90864        0.712998 
        4.33543          8.8617        0.706482 
        4.35116         8.75546        0.700031 
        4.36688         8.70999        0.693663 
        4.38255         8.65735        0.687398 
        4.39825         8.55497        0.681197 
        4.41398         8.49904         0.67506 
         4.4297         8.43563        0.669005 
        4.44541         8.38064        0.663025 
        4.46111         8.30696        0.657123 
        4.47683         8.27857        0.651289 
        4.49251         8.17722        0.645537 
        4.50819         8.13195        0.639856 
         4.5239         8.06423        0.634235 
        4.53962         7.99625        0.628675 
        4.55535         7.94748        0.623179 
        4.57106          7.8922        0.617756 
        4.58678         7.84527        0.612397 
         4.6025         7.76579          0.6071 
        4.61821         7.70406        0.601866 
        4.63391         7.66516        0.596701 
         4.6496         7.60492        0.591598 
        4.66532          7.5528        0.586548 
        4.68103         7.48226        0.581558 
        4.69673         7.44006        0.576631 
        4.71241         7.36939        0.571766 
        4.72811         7.31163        0.566949 
        4.74384         7.29906        0.562182 
        4.75955         7.23428        0.557477 
        4.77525          7.1902        0.552827 
        4.79096         7.14513        0.548226 
        4.80669         7.07129        0.543674 
         4.8224         7.01828        0.539179 
        4.83809         6.97547         0.53474 
        4.85379         6.91531        0.530348 
         4.8695         6.89537        0.526002 
        4.88521         6.81211        0.521706 
        4.90093         6.77637        0.517458 
        4.91663         6.72694         0.51326 
        4.93234         6.67637        0.509105 
        4.94807         6.61553        0.504993 
        4.96377         6.58248        0.500934 
        4.97943         6.51778        0.496928 
        4.99514         6.49029        0.492956 
        5.01086         6.44316        0.489024 
        5.02654         6.39799        0.485145 
        5.04227         6.35535        0.481296 
          5.058          6.2906        0.477487 
        5.07371         6.28564        0.473728 
        5.08942         6.21905        0.470008 
        5.10513         6.18123        0.466327 
        5.12084         6.12702        0.462684 
        5.13656         6.08434        0.459081 
        5.15225         6.02765        0.455522 
        5.16796         6.00352        0.451995 
        5.18369         5.95746        0.448502 
         5.1994         5.91089        0.445053 
        5.21509         5.87825        0.441643 
        5.23079         5.84546        0.438264 
        5.24649         5.78088        0.434924 
        5.26217         5.76834         0.43162 
        5.27788         5.71325        0.428347 
        5.29359         5.68525        0.425106 
        5.30933         5.64372        0.421895 
        5.32504         5.60675        0.418721 
        5.34073         5.56428        0.415584 
        5.35646         5.51879        0.412473 
        5.37218         5.48856        0.409393 
        5.38789         5.45506         0.40635 
        5.40357         5.40958        0.403341 
        5.41929         5.36584        0.400355 
        5.43502         5.33297          0.3974 
         5.4507         5.30702        0.394481 
        5.46639         5.26369        0.391591 
        5.48212         5.24612        0.388724 
        5.49786         5.20944        0.385882 
        5.51353         5.17698        0.383082 
        5.52921         5.12855        0.380307 
        5.54495         5.09532        0.377551 
        5.56066         5.06364        0.374826 
        5.57637         5.02678        0.372128 
        5.59207         4.99761        0.369459 
        5.60778         4.95923        0.366815 
        5.62346         4.92414        0.364201 
        5.63916         4.89362        0.361609 
        5.65487         4.86631        0.359042 
         5.6706         4.83756        0.356496 
        5.68633         4.80386        0.353974 
        5.70203         4.76078        0.351482 
        5.71773         4.74372        0.349014 
        5.73344         4.70432        0.346568 
        5.74916         4.67933        0.344144 
        5.76486          4.6521        0.341746 
        5.78054         4.62626        0.339374 
        5.79626         4.58099        0.337019 
          5.812         4.55871        0.334683 
         5.8277         4.53641        0.332377 
        5.84339         4.50366        0.330092 
        5.85911         4.47468        0.327824 
        5.87484         4.43488        0.325578 
        5.89053         4.42022        0.323357 
        5.90623         4.39242        0.321156 
        5.92195          4.3688        0.318972 
        5.93767         4.33196        0.316809 
        5.95336         4.31763         0.31467 
        5.96905         4.28532        0.312551 
        5.98476          4.2603        0.310449 
        6.00048         4.22709        0.308365 
        6.01617         4.19696        0.306304 
        6.03185         4.17086        0.304263 
        6.04756         4.14299        0.302237 
        6.06331         4.12573        0.300224 
        6.07903          4.1011        0.298234 
        6.09473         4.07113        0.296264 
        6.11044         4.04075         0.29431 
        6.12616         4.03078        0.292374 
        6.14186         3.99666        0.290457 
        6.15755         3.97221        0.288557 
        6.17326         3.94962        0.286673 
        6.18898         3.92071        0.284805 
        6.20467         3.89754        0.282957 
        6.22036         3.87607        0.281125 
         6.2361         3.84869        0.279305 
         6.2518         3.82921        0.277504 
        6.26748         3.80812        0.275722 
        6.28319         3.78787        0.273952 
        6.29893         3.76206        0.272195 
        6.31463         3.74084        0.270457 
        6.33033         3.72185        0.268734 
        6.34604         3.69659        0.267025 
        6.36177         3.67471        0.265329 
        6.37747         3.65824        0.263652 
