# k  (h/Mpc)    Pcb(k)  (Mpc/h)^3    Pcb_linear(k) (Mpc/h)^3   ShotnoiseSubtracted = true
      0.0200456         9852.67         9995.47 
      0.0350414         7448.95         7266.37 
      0.0492313         5241.39          5279.6 
      0.0637834         4246.39         4388.89 
      0.0800726         3347.78         3483.35 
       0.096163         2610.82         2527.47 
       0.111083         2119.23         2015.98 
       0.126058         1772.03         1786.57 
       0.142273         1523.05         1513.62 
       0.158546         1249.06         1195.44 
        0.17375         1088.58         1007.16 
       0.188953         1003.37         911.957 
       0.204907         855.647         806.896 
       0.220756          765.58         682.683 
        0.23588         678.848         593.875 
         0.2514         607.914          539.53 
       0.267535         587.325         488.182 
       0.283568         512.258         430.511 
       0.299022         486.523         383.563 
       0.314451         485.884          350.55 
       0.330372         418.032         321.591 
       0.346141         387.422         291.892 
       0.361624         368.712          265.29 
       0.377134         342.091         244.109 
       0.392932         332.718         225.869 
       0.408854         315.621         208.208 
       0.424564         303.717         191.908 
       0.440253         274.103         177.921 
       0.455999         261.119         165.759 
       0.471626         259.231         154.582 
        0.48727         247.155         144.126 
       0.502856         225.818         134.734 
       0.518488         226.051         126.353 
       0.534347         210.071         118.562 
       0.550082         205.064         111.378 
       0.565732         202.893         104.806 
       0.581496         189.405         98.7864 
       0.597222         185.063         93.2661 
       0.612804         179.429           88.19 
       0.628434         173.678         83.4586 
       0.644267         165.413         79.0352 
       0.660051         161.474         74.9583 
       0.675724         159.755         71.1938 
       0.691403         155.591         67.6847 
       0.707174          150.23         64.3923 
       0.722871         147.826          61.332 
        0.73838         145.749         58.5033 
       0.754018         136.966         55.8317 
       0.769845         136.742         53.2979 
        0.78569         133.095         50.9192 
       0.801365         129.049         48.7093 
       0.817031         125.427         46.6327 
       0.832809         123.305         44.6645 
       0.848511         120.398         42.8192 
       0.864097          118.31         41.0914 
       0.879701         116.601         39.4578 
       0.895507         112.877         37.8941 
       0.911279         110.486         36.4188 
        0.92691         107.994         35.0346 
       0.942635         105.798          33.715 
       0.958396         104.841         32.4609 
       0.974128         102.522         31.2732 
       0.989692         100.228         30.1569 
        1.00528         98.7561         29.0936 
        1.02113         96.1782         28.0652 
        1.03692         95.9601         27.0905 
        1.05264         94.6336         26.1667 
        1.06832          91.512         25.2876 
        1.08405         90.7994         24.4468 
        1.09979         90.0292         23.6438 
        1.11537         87.5703          22.885 
        1.13105         86.4322         22.1551 
        1.14679          85.054         21.4543 
        1.16256         83.3392         20.7826 
        1.17828         82.6452          20.142 
        1.19395         80.3943         19.5306 
         1.2097         80.4127         18.9416 
        1.22537         78.4704         18.3799 
          1.241         78.2657         17.8426 
        1.25666         75.5039         17.3256 
        1.27241         75.1914         16.8267 
        1.28819         74.6024         16.3467 
        1.30392         73.0796         15.8869 
        1.31957         72.5228         15.4468 
        1.33529         71.4697         15.0219 
        1.35108         70.8757         14.6113 
        1.36674         69.7053         14.2191 
         1.3824         68.9751         13.8416 
        1.39811         67.4231         13.4767 
        1.41389         66.4582         13.1235 
        1.42964         65.8126         12.7836 
        1.44531         65.1504         12.4575 
        1.46101         64.5176         12.1421 
        1.47667         63.4936         11.8385 
        1.49229           62.72         11.5462 
        1.50793         62.0096         11.2635 
        1.52367         61.5108         10.9884 
        1.53953         60.5005         10.7207 
        1.55526         59.5323          10.464 
        1.57092          59.369         10.2169 
        1.58662         58.4927         9.97713 
        1.60235         57.7054         9.74464 
        1.61809         56.7211         9.51945 
        1.63369         56.0929          9.3034 
        1.64941         55.7952         9.09252 
        1.66519          54.507         8.88743 
        1.68085         54.2791         8.69015 
        1.69652         53.1358          8.4988 
        1.71228         52.9336         8.31214 
        1.72806         52.2957         8.13095 
        1.74368         51.5814         7.95699 
        1.75933         51.2305         7.78778 
        1.77505         50.7062         7.62271 
        1.79081          50.004         7.46215 
         1.8065         49.5317          7.3069 
        1.82218         48.2421         7.15621 
        1.83797         47.9707         7.00875 
        1.85367         47.6385         6.86627 
        1.86928         47.2928         6.72861 
        1.88497          46.399         6.59398 
        1.90073         45.8389         6.46254 
        1.91647         45.7018         6.33481 
        1.93218         45.4305         6.21081 
        1.94787         44.6295         6.09031 
        1.96363         43.9316         5.97254 
        1.97935         43.6306         5.85813 
        1.99499         43.1032         5.74737 
        2.01064         42.5428         5.63931 
         2.0264         42.4064         5.53336 
        2.04216         41.7687         5.43019 
        2.05781         41.2798          5.3303 
        2.07353         40.6389         5.23257 
        2.08928         40.6156         5.13708 
        2.10499         40.1906         5.04423 
        2.12065         39.6325         4.95396 
        2.13633         39.4346         4.86583 
        2.15211         38.7685         4.77927 
        2.16785         38.2082         4.69506 
        2.18349         37.8986         4.61341 
        2.19916         37.5298         4.53353 
        2.21489         37.2978         4.45528 
        2.23063         36.8217         4.37883 
         2.2463         36.5821         4.30452 
        2.26194         36.0401         4.23211 
        2.27765         35.6506         4.16101 
        2.29341         35.2703         4.09135 
        2.30914         34.9405         4.02343 
        2.32486         34.4248          3.9571 
        2.34061         34.2411         3.89215 
        2.35635         33.9229         3.82872 
        2.37203         33.6174         3.76692 
        2.38768         33.3259         3.70662 
        2.40339         33.0694         3.64742 
        2.41914         32.6931         3.58937 
        2.43483          32.397         3.53279 
         2.4505         32.0441         3.47753 
        2.46622         31.6528         3.42326 
        2.48195         31.4924         3.37015 
        2.49759          30.985         3.31845 
        2.51328         30.7087          3.2677 
        2.52906         30.5483         3.21769 
        2.54479         30.1922         3.16891 
        2.56049         30.0545         3.12124 
        2.57618         29.6381         3.07459 
        2.59189         29.3242         3.02883 
        2.60758         29.0536         2.98407 
        2.62325         28.7962         2.94027 
        2.63898         28.6389          2.8972 
        2.65468         28.2018         2.85508 
        2.67044         28.0078         2.81361 
        2.68618         27.7543         2.77307 
        2.70184         27.4184         2.73349 
        2.71755         27.1928         2.69458 
        2.73329          26.912         2.65637 
        2.74897         26.6619         2.61903 
        2.76462         26.4743         2.58248 
        2.78034         26.1227         2.54648 
        2.79607         25.9141         2.51114 
        2.81179         25.6885          2.4765 
        2.82749         25.4345         2.44256 
        2.84321         25.1923         2.40921 
        2.85893          25.013          2.3765 
        2.87462         24.7842         2.34445 
        2.89033         24.5418         2.31296 
        2.90605         24.2698         2.28202 
        2.92176         24.0285         2.25167 
        2.93747         23.8474         2.22188 
        2.95318         23.7378         2.19263 
        2.96891         23.4117         2.16389 
        2.98456         23.2312         2.13579 
        3.00023         22.9136         2.10815 
        3.01596         22.6199         2.08091 
        3.03164         22.5151         2.05423 
        3.04738         22.3689         2.02794 
         3.0631          22.146         2.00212 
        3.07883         21.8876         1.97675 
        3.09456         21.6916         1.95183 
        3.11026         21.4539         1.92737 
        3.12596          21.232         1.90333 
        3.14163         21.0877         1.87976 
        3.15734          20.939         1.85653 
        3.17308         20.6997         1.83364 
        3.18879         20.5237          1.8112 
        3.20447         20.4154         1.78916 
         3.2202         20.1355         1.76743 
         3.2359         19.9403         1.74609 
        3.25157         19.7669         1.72516 
        3.26729         19.6422          1.7045 
        3.28304         19.4744         1.68415 
        3.29877         19.3157         1.66415 
        3.31446         19.1209         1.64452 
        3.33014         18.8911         1.62523 
        3.34585         18.8386         1.60621 
        3.36158         18.5628         1.58747 
        3.37727         18.4555         1.56909 
        3.39294         18.2996         1.55102 
        3.40867         18.1327         1.53316 
        3.42439         17.9224          1.5156 
        3.44008         17.7676         1.49835 
        3.45578         17.6167         1.48135 
        3.47153         17.4934         1.46458 
        3.48724          17.347         1.44809 
        3.50292         17.1932          1.4319 
        3.51859         17.0476         1.41597 
        3.53431         16.8796         1.40023 
        3.55007         16.7201         1.38468 
        3.56577           16.63         1.36944 
        3.58146         16.4386         1.35443 
        3.59719         16.3116         1.33961 
        3.61292         16.1798         1.32502 
        3.62859         15.9772          1.3107 
        3.64429         15.8752         1.29657 
        3.66003          15.784          1.2826 
        3.67578         15.6909         1.26884 
        3.69146         15.4966         1.25533 
        3.70712         15.3664         1.24205 
        3.72284         15.2117          1.2289 
        3.73853         15.1425         1.21598 
        3.75422         14.9137         1.20323 
        3.76993         14.8344         1.19065 
        3.78564         14.7134         1.17826 
        3.80137         14.5759         1.16603 
        3.81707          14.417         1.15399 
        3.83279         14.3767         1.14211 
        3.84853          14.216         1.13039 
        3.86424         14.0629         1.11885 
        3.87992         14.0037         1.10748 
        3.89561         13.8541         1.09628 
        3.91134         13.7671         1.08521 
        3.92704         13.6352          1.0743 
        3.94273         13.5287         1.06355 
        3.95845         13.4198         1.05293 
        3.97418         13.2753         1.04246 
        3.98988         13.1968         1.03214 
        4.00554         13.0675         1.02199 
        4.02125         12.9688         1.01194 
        4.03698         12.8966         1.00202 
        4.05268         12.7538        0.992246 
        4.06839         12.6278          0.9826 
         4.0841          12.554        0.973084 
        4.09983         12.4179        0.963681 
        4.11555         12.3341        0.954406 
        4.13124         12.2187        0.945279 
        4.14693         12.1423        0.936263 
        4.16266         12.0289        0.927344 
        4.17839         11.9245        0.918546 
        4.19408         11.8612        0.909882 
        4.20977         11.7455        0.901327 
        4.22551         11.6603         0.89286 
        4.24123         11.5775        0.884511 
        4.25691          11.454        0.876292 
        4.27259         11.3602        0.868174 
        4.28831         11.3006        0.860143 
        4.30404         11.1877        0.852206 
        4.31974         11.1114        0.844386 
        4.33543         10.9797        0.836669 
        4.35116         10.9455        0.829029 
        4.36688         10.8265        0.821488 
        4.38255         10.7258        0.814069 
        4.39825          10.666        0.806725 
        4.41398         10.5911        0.799457 
         4.4297         10.4837        0.792286 
        4.44541         10.4292        0.785205 
        4.46111         10.3238        0.778215 
        4.47683         10.2302        0.771305 
        4.49251         10.1569        0.764494 
        4.50819         10.0827        0.757766 
         4.5239         10.0261        0.751109 
        4.53962         9.92401        0.744525 
        4.55535         9.85796        0.738015 
        4.57106         9.79832        0.731593 
        4.58678         9.71401        0.725246 
         4.6025          9.6456        0.718973 
        4.61821         9.57412        0.712775 
        4.63391         9.47276        0.706658 
         4.6496         9.39777        0.700615 
        4.66532         9.35439        0.694634 
        4.68103         9.24592        0.688725 
        4.69673         9.19141         0.68289 
        4.71241         9.12267        0.677129 
        4.72811         9.04717        0.671424 
        4.74384         9.00679        0.665778 
        4.75955         8.91716        0.660206 
        4.77525         8.85162          0.6547 
        4.79096         8.79166         0.64925 
        4.80669         8.70922         0.64386 
         4.8224         8.65381        0.638537 
        4.83809         8.58941         0.63328 
        4.85379         8.53995        0.628078 
         4.8695         8.46427        0.622931 
        4.88521         8.38339        0.617844 
        4.90093         8.35606        0.612813 
        4.91663         8.26983        0.607842 
        4.93234         8.21849        0.602921 
        4.94807         8.16103        0.598051 
        4.96377         8.09487        0.593244 
        4.97943         8.03024          0.5885 
        4.99514         7.98045        0.583795 
        5.01086         7.92331        0.579139 
        5.02654          7.8568        0.574545 
        5.04227         7.78718        0.569987 
          5.058         7.74616        0.565477 
        5.07371         7.70902        0.561024 
        5.08942         7.61263        0.556618 
        5.10513         7.56451         0.55226 
        5.12084         7.50699        0.547945 
        5.13656          7.4643        0.543678 
        5.15225         7.40952        0.539464 
        5.16796         7.35394        0.535287 
        5.18369         7.30939         0.53115 
         5.1994          7.2657        0.527065 
        5.21509         7.20294        0.523027 
        5.23079         7.12995        0.519026 
        5.24649         7.10551         0.51507 
        5.26217           7.056        0.511157 
        5.27788         7.00048         0.50728 
        5.29359         6.95307        0.503443 
        5.30933         6.88415        0.499639 
        5.32504         6.85656        0.495881 
        5.34073         6.80023        0.492166 
        5.35646         6.76646        0.488482 
        5.37218         6.71752        0.484835 
        5.38789         6.66317         0.48123 
        5.40357         6.61369        0.477666 
        5.41929          6.5851        0.474131 
        5.43502         6.52708        0.470631 
         5.4507         6.48027        0.467174 
        5.46639            6.43        0.463752 
        5.48212         6.38565        0.460356 
        5.49786          6.3467         0.45699 
        5.51353         6.31118        0.453674 
        5.52921         6.26096        0.450388 
        5.54495         6.21686        0.447125 
        5.56066         6.18048        0.443897 
        5.57637         6.13367        0.440702 
        5.59207         6.07751        0.437541 
        5.60778         6.06474         0.43441 
        5.62346          6.0119        0.431314 
        5.63916         5.97124        0.428245 
        5.65487         5.92033        0.425204 
         5.6706         5.89214        0.422189 
        5.68633         5.85211        0.419203 
        5.70203         5.81482        0.416251 
        5.71773          5.7728        0.413328 
        5.73344         5.74271        0.410432 
        5.74916         5.69687        0.407561 
        5.76486         5.66588        0.404721 
        5.78054         5.61506        0.401913 
        5.79626         5.58922        0.399123 
          5.812         5.54548        0.396357 
         5.8277         5.50968        0.393625 
        5.84339         5.47447         0.39092 
        5.85911         5.43704        0.388234 
        5.87484         5.40738        0.385574 
        5.89053          5.3579        0.382944 
        5.90623         5.33766        0.380337 
        5.92195         5.30771         0.37775 
        5.93767         5.25647        0.375189 
        5.95336         5.22674        0.372656 
        5.96905         5.18933        0.370146 
        5.98476         5.16515        0.367657 
        6.00048         5.13015        0.365189 
        6.01617          5.0974        0.362748 
        6.03185         5.07303        0.360332 
        6.04756         5.04181        0.357931 
        6.06331         4.99413        0.355548 
        6.07903         4.96403        0.353191 
        6.09473         4.93515        0.350858 
        6.11044         4.89622        0.348544 
        6.12616         4.86945        0.346251 
        6.14186         4.83811        0.343981 
        6.15755         4.80866        0.341731 
        6.17326         4.78268          0.3395 
        6.18898         4.75936        0.337288 
        6.20467         4.72146        0.335099 
        6.22036         4.69434         0.33293 
         6.2361          4.6592        0.330774 
         6.2518         4.63459        0.328641 
        6.26748         4.60841        0.326531 
        6.28319         4.57952        0.324434 
        6.29893         4.54399        0.322354 
        6.31463         4.52628        0.320295 
        6.33033         4.49463        0.318255 
        6.34604         4.46497        0.316231 
        6.36177         4.44066        0.314223 
        6.37747         4.41521        0.312236 
