# k  (h/Mpc)    Pcb(k)  (Mpc/h)^3    Pcb_linear(k) (Mpc/h)^3   ShotnoiseSubtracted = true
      0.0200456          1423.2         1443.68 
      0.0350414         1042.36         1049.51 
      0.0492313         764.802         762.551 
      0.0637834         639.927         633.902 
      0.0800726         507.327         503.112 
       0.096163         363.579         365.052 
       0.111083         288.652         291.175 
       0.126058         259.489          258.04 
       0.142273         221.268         218.617 
       0.158546         176.116         172.661 
        0.17375          145.64         145.467 
       0.188953         133.961         131.717 
       0.204907         122.264         116.543 
       0.220756         102.016         98.6022 
        0.23588         88.8195         85.7754 
         0.2514         79.6514          77.926 
       0.267535         72.8973         70.5097 
       0.283568         64.9218         62.1801 
       0.299022         58.5957         55.3992 
       0.314451         52.4491         50.6311 
       0.330372         48.6962         46.4484 
       0.346141         44.2161          42.159 
       0.361624         40.7175         38.3168 
       0.377134         38.0616         35.2575 
       0.392932         33.8484          32.623 
       0.408854         32.4485         30.0721 
       0.424564         30.1552         27.7179 
       0.440253          27.796         25.6977 
       0.455999         26.1836         23.9411 
       0.471626         24.5867         22.3267 
        0.48727         23.0915         20.8166 
       0.502856         21.5384           19.46 
       0.518488         20.5601         18.2496 
       0.534347         19.6389         17.1243 
       0.550082         17.9365         16.0867 
       0.565732         16.6015         15.1374 
       0.581496          16.255         14.2681 
       0.597222         15.6059         13.4707 
       0.612804          14.523         12.7376 
       0.628434         13.9851         12.0542 
       0.644267         13.4374         11.4153 
       0.660051         12.6722         10.8265 
       0.675724         12.0257         10.2828 
       0.691403         11.6187         9.77592 
       0.707174         11.0666         9.30039 
       0.722871         10.6101         8.85838 
        0.73838         10.1905         8.44983 
       0.754018          9.8431         8.06396 
       0.769845         9.36808         7.69799 
        0.78569          9.0625         7.35442 
       0.801365         8.67492         7.03525 
       0.817031         8.39383         6.73531 
       0.832809         8.14155         6.45104 
       0.848511         7.66325         6.18452 
       0.864097         7.42625         5.93497 
       0.879701         7.18627         5.69902 
       0.895507         6.86704         5.47317 
       0.911279         6.76844         5.26008 
        0.92691         6.52101         5.06016 
       0.942635         6.23294         4.86957 
       0.958396         6.02941         4.68844 
       0.974128         5.86962         4.51689 
       0.989692            5.77         4.35566 
        1.00528          5.5235         4.20209 
        1.02113         5.31717         4.05355 
        1.03692         5.21446         3.91276 
        1.05264           5.045         3.77934 
        1.06832         4.92615         3.65238 
        1.08405         4.71192         3.53093 
        1.09979         4.61266         3.41495 
        1.11537         4.50853         3.30536 
        1.13105         4.38231         3.19993 
        1.14679         4.27365         3.09872 
        1.16256         4.14063         3.00171 
        1.17828         4.05781         2.90918 
        1.19395         3.94122         2.82088 
         1.2097          3.7958          2.7358 
        1.22537         3.70753         2.65466 
          1.241         3.63654         2.57707 
        1.25666         3.60537          2.5024 
        1.27241         3.45447         2.43034 
        1.28819         3.37626         2.36101 
        1.30392         3.31734          2.2946 
        1.31957         3.24309         2.23104 
        1.33529         3.15626         2.16967 
        1.35108          3.0838         2.11036 
        1.36674         3.02299         2.05371 
         1.3824         2.91903         1.99919 
        1.39811         2.86968         1.94648 
        1.41389         2.82351         1.89547 
        1.42964         2.76189         1.84638 
        1.44531         2.70614         1.79928 
        1.46101         2.64859         1.75372 
        1.47667         2.56994         1.70988 
        1.49229         2.54869         1.66766 
        1.50793         2.47854         1.62682 
        1.52367         2.45131         1.58709 
        1.53953         2.37479         1.54842 
        1.55526         2.32926         1.51135 
        1.57092         2.29321         1.47566 
        1.58662         2.24697         1.44103 
        1.60235         2.20143         1.40745 
        1.61809         2.16052         1.37493 
        1.63369         2.13144         1.34372 
        1.64941         2.08157         1.31326 
        1.66519         2.05167         1.28364 
        1.68085         1.99656         1.25515 
        1.69652         1.96514         1.22751 
        1.71228         1.93914         1.20055 
        1.72806         1.89203         1.17438 
        1.74368         1.86539         1.14925 
        1.75933         1.82844         1.12482 
        1.77505         1.80198         1.10097 
        1.79081         1.77005         1.07778 
         1.8065         1.73609         1.05536 
        1.82218         1.71723          1.0336 
        1.83797          1.6936          1.0123 
        1.85367         1.66811        0.991718 
        1.86928         1.64095        0.971836 
        1.88497         1.60176        0.952391 
        1.90073         1.57274        0.933407 
        1.91647         1.55673        0.914958 
        1.93218         1.53855        0.897048 
        1.94787         1.50683        0.879644 
        1.96363         1.48075        0.862634 
        1.97935         1.45652        0.846109 
        1.99499         1.42901        0.830111 
        2.01064         1.41272        0.814505 
         2.0264         1.40344        0.799202 
        2.04216         1.37546          0.7843 
        2.05781         1.35253        0.769873 
        2.07353         1.33764        0.755757 
        2.08928         1.31511        0.741966 
        2.10499         1.29613        0.728556 
        2.12065         1.28592        0.715517 
        2.13633         1.26167        0.702787 
        2.15211         1.24119        0.690285 
        2.16785         1.22214        0.678123 
        2.18349         1.21011         0.66633 
        2.19916         1.18772        0.654793 
        2.21489         1.17172        0.643491 
        2.23063         1.15516        0.632449 
         2.2463         1.14675        0.621715 
        2.26194         1.12173        0.611258 
        2.27765         1.10892        0.600988 
        2.29341         1.09914        0.590927 
        2.30914         1.08666        0.581118 
        2.32486         1.07343        0.571537 
        2.34061         1.05579        0.562156 
        2.35635         1.03869        0.552995 
        2.37203         1.03004        0.544069 
        2.38768         1.01842        0.535359 
        2.40339         1.00693        0.526808 
        2.41914        0.994657        0.518425 
        2.43483        0.980427        0.510253 
         2.4505        0.965558        0.502272 
        2.46622        0.954793        0.494433 
        2.48195        0.948953        0.486762 
        2.49759        0.935102        0.479295 
        2.51328        0.919645        0.471965 
        2.52906        0.910134        0.464741 
        2.54479        0.901593        0.457697 
        2.56049         0.88951        0.450811 
        2.57618        0.881586        0.444074 
        2.59189        0.870653        0.437464 
        2.60758        0.859179        0.430999 
        2.62325        0.850763        0.424673 
        2.63898        0.842873        0.418452 
        2.65468        0.833083        0.412368 
        2.67044        0.822499        0.406379 
        2.68618        0.810949        0.400524 
        2.70184        0.802034        0.394807 
        2.71755         0.79392        0.389187 
        2.73329        0.787638        0.383668 
        2.74897        0.778499        0.378275 
        2.76462        0.769346        0.372996 
        2.78034         0.76353        0.367797 
        2.79607        0.753814        0.362692 
        2.81179        0.744404        0.357689 
        2.82749        0.739555        0.352787 
        2.84321        0.733036         0.34797 
        2.85893        0.722866        0.343245 
        2.87462        0.717938        0.338616 
        2.89033        0.706653        0.334068 
        2.90605        0.701403          0.3296 
        2.92176         0.69369        0.325216 
        2.93747        0.688269        0.320914 
        2.95318        0.681812        0.316688 
        2.96891        0.674611        0.312537 
        2.98456        0.670742        0.308479 
        3.00023        0.662352        0.304487 
        3.01596        0.656659        0.300553 
        3.03164        0.651227          0.2967 
        3.04738        0.640761        0.292903 
         3.0631        0.637562        0.289173 
        3.07883        0.631252        0.285509 
        3.09456        0.624825        0.281909 
        3.11026         0.61901        0.278376 
        3.12596        0.612958        0.274904 
        3.14163        0.607888          0.2715 
        3.15734        0.605333        0.268145 
        3.17308        0.596646        0.264839 
        3.18879        0.591113        0.261597 
        3.20447        0.586644        0.258415 
         3.2202        0.582037        0.255275 
         3.2359        0.577492        0.252194 
        3.25157        0.571297         0.24917 
        3.26729        0.568743        0.246187 
        3.28304        0.561362        0.243247 
        3.29877        0.556187        0.240359 
        3.31446        0.552665        0.237524 
        3.33014         0.54917        0.234737 
        3.34585        0.544619        0.231991 
        3.36158        0.538389        0.229284 
        3.37727        0.535689        0.226629 
        3.39294        0.531599        0.224019 
        3.40867        0.526761         0.22144 
        3.42439        0.521899        0.218903 
        3.44008        0.519563        0.216411 
        3.45578        0.516184        0.213956 
        3.47153        0.510714        0.211534 
        3.48724        0.508021        0.209153 
        3.50292        0.505054        0.206815 
        3.51859        0.499604        0.204513 
        3.53431        0.496769        0.202239 
        3.55007        0.494437        0.199995 
        3.56577        0.488634        0.197793 
        3.58146        0.485005        0.195625 
        3.59719        0.483307        0.193485 
        3.61292        0.479164        0.191377 
        3.62859        0.473662        0.189309 
        3.64429        0.472737        0.187267 
        3.66003        0.468434        0.185249 
        3.67578        0.464233        0.183262 
        3.69146        0.462216        0.181312 
        3.70712        0.458353        0.179393 
        3.72284        0.455385        0.177495 
        3.73853        0.451913        0.175627 
        3.75422        0.447841        0.173786 
        3.76993        0.447053         0.17197 
        3.78564        0.443418         0.17018 
        3.80137        0.438725        0.168413 
        3.81707        0.438434        0.166675 
        3.83279        0.433429        0.164959 
        3.84853        0.430082        0.163266 
        3.86424        0.427793        0.161599 
        3.87992        0.424646        0.159958 
        3.89561        0.422694        0.158339 
        3.91134        0.419523         0.15674 
        3.92704        0.415768        0.155165 
        3.94273        0.413765        0.153613 
        3.95845        0.411399        0.152079 
        3.97418        0.407239        0.150566 
        3.98988        0.404897        0.149075 
        4.00554        0.401652        0.147609 
        4.02125        0.398239        0.146158 
        4.03698        0.394266        0.144725 
        4.05268        0.391551        0.143313 
        4.06839        0.388102         0.14192 
         4.0841        0.384407        0.140546 
        4.09983        0.381271        0.139188 
        4.11555        0.377258        0.137848 
        4.13124        0.374084         0.13653 
        4.14693        0.371245        0.135228 
        4.16266        0.367935        0.133939 
        4.17839        0.365424        0.132669 
        4.19408        0.362676        0.131417 
        4.20977        0.360134        0.130182 
        4.22551        0.357234        0.128959 
        4.24123        0.354571        0.127753 
        4.25691        0.352121        0.126566 
        4.27259        0.349845        0.125393 
        4.28831        0.347258        0.124233 
        4.30404        0.344263        0.123087 
        4.31974        0.342458        0.121958 
        4.33543        0.340122        0.120843 
        4.35116         0.33852        0.119739 
        4.36688        0.335836         0.11865 
        4.38255        0.334247        0.117579 
        4.39825          0.3317        0.116518 
        4.41398        0.329662        0.115468 
         4.4297        0.327959        0.114433 
        4.44541        0.326228         0.11341 
        4.46111        0.325129          0.1124 
        4.47683        0.323475        0.111402 
        4.49251        0.321003        0.110418 
        4.50819          0.3192        0.109447 
         4.5239        0.318866        0.108485 
        4.53962        0.317007        0.107534 
        4.55535        0.316319        0.106594 
        4.57106        0.314242        0.105666 
        4.58678        0.312908         0.10475 
         4.6025        0.311363        0.103844 
        4.61821        0.310163        0.102948 
        4.63391        0.309438        0.102065 
         4.6496        0.307931        0.101192 
        4.66532        0.306888        0.100328 
        4.68103        0.306278       0.0994748 
        4.69673        0.305292       0.0986321 
        4.71241        0.304624          0.0978 
        4.72811        0.303477        0.096976 
        4.74384        0.302817       0.0961606 
        4.75955        0.302645       0.0953557 
        4.77525        0.301264       0.0945605 
        4.79096        0.300962       0.0937734 
        4.80669        0.300023       0.0929948 
         4.8224        0.299545        0.092226 
        4.83809        0.299193       0.0914667 
        4.85379        0.299162       0.0907154 
         4.8695        0.298307        0.089972 
        4.88521        0.297978       0.0892372 
        4.90093        0.298497       0.0885106 
        4.91663        0.297862       0.0877926 
        4.93234        0.296946       0.0870818 
        4.94807        0.297363       0.0863785 
        4.96377        0.297409       0.0856842 
        4.97943        0.297754        0.084999 
        4.99514        0.297185       0.0843195 
        5.01086        0.297678       0.0836469 
        5.02654         0.29751       0.0829834 
        5.04227        0.297366       0.0823251 
          5.058        0.297746       0.0816737 
        5.07371        0.297134       0.0810306 
        5.08942        0.298738       0.0803942 
        5.10513        0.298301       0.0797647 
        5.12084        0.298732       0.0791416 
        5.13656        0.299685       0.0785253 
        5.15225        0.299887       0.0779165 
        5.16796        0.301152       0.0773133 
        5.18369        0.301284       0.0767158 
         5.1994        0.302262       0.0761258 
        5.21509        0.302177       0.0755425 
        5.23079        0.303063       0.0749646 
        5.24649        0.304051       0.0743932 
        5.26217        0.303745       0.0738282 
        5.27788        0.304915       0.0732682 
        5.29359        0.305887       0.0727139 
        5.30933        0.307138       0.0721646 
        5.32504        0.307402       0.0716218 
        5.34073        0.308474       0.0710852 
        5.35646        0.309689       0.0705531 
        5.37218        0.310963       0.0700263 
        5.38789        0.312076       0.0695057 
        5.40357         0.31316        0.068991 
        5.41929        0.313108       0.0684803 
        5.43502        0.314809       0.0679748 
         5.4507        0.315875       0.0674756 
        5.46639        0.318108       0.0669813 
        5.48212        0.318884       0.0664908 
        5.49786        0.319153       0.0660046 
        5.51353         0.32222       0.0655257 
        5.52921        0.322528       0.0650511 
        5.54495         0.32381       0.0645797 
        5.56066        0.326595       0.0641136 
        5.57637        0.326499       0.0636521 
        5.59207        0.328953       0.0631955 
        5.60778        0.329664       0.0627433 
        5.62346        0.331476       0.0622961 
        5.63916         0.33259       0.0618528 
        5.65487        0.334783       0.0614137 
         5.6706        0.335919       0.0609782 
        5.68633         0.33926       0.0605469 
        5.70203        0.340585       0.0601205 
        5.71773         0.34204       0.0596984 
        5.73344        0.343091       0.0592801 
        5.74916         0.34484       0.0588654 
        5.76486        0.346918       0.0584552 
        5.78054        0.349289       0.0580496 
        5.79626        0.349151       0.0576467 
          5.812        0.352214       0.0572472 
         5.8277        0.353333       0.0568526 
        5.84339        0.355766       0.0564618 
        5.85911        0.356323       0.0560739 
        5.87484        0.358424       0.0556897 
        5.89053        0.361697       0.0553098 
        5.90623        0.363004       0.0549334 
        5.92195        0.364827       0.0545597 
        5.93767        0.367278       0.0541898 
        5.95336        0.367406       0.0538239 
        5.96905        0.370089       0.0534615 
        5.98476        0.371878       0.0531019 
        6.00048        0.375392       0.0527455 
        6.01617        0.375561       0.0523929 
        6.03185        0.377319       0.0520439 
        6.04756        0.380839       0.0516972 
        6.06331        0.382065        0.051353 
        6.07903         0.38496       0.0510126 
        6.09473        0.385905       0.0506756 
        6.11044        0.388393       0.0503414 
        6.12616        0.389768       0.0500102 
        6.14186        0.391995       0.0496823 
        6.15755        0.394379       0.0493574 
        6.17326        0.395846       0.0490352 
        6.18898        0.398025       0.0487156 
        6.20467        0.401353       0.0483995 
        6.22036        0.400757       0.0480862 
         6.2361        0.402927       0.0477748 
         6.2518        0.404367       0.0474667 
        6.26748        0.406873        0.047162 
        6.28319        0.409622       0.0468591 
        6.29893        0.411568       0.0465586 
        6.31463        0.413242       0.0462613 
        6.33033        0.414126       0.0459666 
        6.34604        0.416029       0.0456743 
        6.36177        0.418586       0.0453843 
        6.37747        0.421052       0.0450973 
