# k  (h/Mpc)    Pcb(k)  (Mpc/h)^3    Pcb_linear(k) (Mpc/h)^3   ShotnoiseSubtracted = true
      0.0200456         22980.6         23392.6 
      0.0350414         17547.4         17005.7 
      0.0492313         12072.8           12356 
      0.0637834         9730.58         10271.4 
      0.0800726         7633.34         8152.18 
       0.096163         6149.99         5915.11 
       0.111083         5009.41         4718.05 
       0.126058         4139.04         4181.15 
       0.142273         3631.65         3542.35 
       0.158546         2980.04         2797.72 
        0.17375          2670.6         2357.07 
       0.188953         2538.03         2134.28 
       0.204907         2184.62          1888.4 
       0.220756         1978.03          1597.7 
        0.23588         1766.67         1389.86 
         0.2514         1603.07         1262.67 
       0.267535         1545.56          1142.5 
       0.283568          1380.8         1007.53 
       0.299022          1316.5         897.662 
       0.314451         1373.06         820.402 
       0.330372         1218.94         752.626 
       0.346141         1119.72         683.123 
       0.361624          1074.9         620.865 
       0.377134         1032.65         571.294 
       0.392932         983.532         528.607 
       0.408854         944.766         487.274 
       0.424564         925.389         449.127 
       0.440253         860.451         416.393 
       0.455999         823.111         387.929 
       0.471626         837.238         361.771 
        0.48727         791.019         337.302 
       0.502856         762.261          315.32 
       0.518488         738.118         295.707 
       0.534347         711.017         277.473 
       0.550082         678.392         260.661 
       0.565732         668.277          245.28 
       0.581496         654.474         231.192 
       0.597222         641.913         218.273 
       0.612804         626.413         206.393 
       0.628434         601.068          195.32 
       0.644267         585.119         184.968 
       0.660051         579.053         175.427 
       0.675724         567.671         166.617 
       0.691403         550.582         158.404 
       0.707174         535.022         150.699 
       0.722871          530.19         143.537 
        0.73838         517.967         136.917 
       0.754018          506.24         130.664 
       0.769845         499.841         124.734 
        0.78569         489.258         119.167 
       0.801365         473.307         113.996 
       0.817031          469.39         109.136 
       0.832809         462.176         104.529 
       0.848511         454.811         100.211 
       0.864097         444.991         96.1673 
       0.879701         444.663          92.344 
       0.895507          427.24         88.6845 
       0.911279         421.848         85.2318 
        0.92691         416.884         81.9923 
       0.942635         411.934         78.9041 
       0.958396         399.178         75.9692 
       0.974128         393.853         73.1895 
       0.989692         383.184         70.5769 
        1.00528         379.574         68.0885 
        1.02113         373.209         65.6816 
        1.03692         367.797         63.4005 
        1.05264         362.683         61.2386 
        1.06832         354.876         59.1813 
        1.08405         353.532         57.2134 
        1.09979          345.92         55.3342 
        1.11537         337.086         53.5583 
        1.13105         333.461         51.8501 
        1.14679         327.894         50.2101 
        1.16256         326.161         48.6381 
        1.17828         320.893         47.1389 
        1.19395         312.926         45.7081 
         1.2097         311.044         44.3296 
        1.22537           306.1         43.0148 
          1.241          299.52         41.7576 
        1.25666         296.747         40.5476 
        1.27241         292.914           39.38 
        1.28819         285.864         38.2566 
        1.30392         286.014         37.1805 
        1.31957         278.093         36.1506 
        1.33529         274.571         35.1562 
        1.35108         273.255         34.1953 
        1.36674          265.94         33.2773 
         1.3824         263.387         32.3939 
        1.39811         260.403         31.5398 
        1.41389         254.506         30.7133 
        1.42964          251.36         29.9179 
        1.44531         248.692         29.1546 
        1.46101         244.286         28.4164 
        1.47667         241.704          27.706 
        1.49229         238.401         27.0219 
        1.50793         234.924         26.3602 
        1.52367         231.313         25.7164 
        1.53953         227.541         25.0898 
        1.55526         225.236         24.4892 
        1.57092         223.403         23.9108 
        1.58662         218.398         23.3497 
        1.60235         215.934         22.8056 
        1.61809          213.93         22.2786 
        1.63369         209.885          21.773 
        1.64941         206.959         21.2795 
        1.66519         204.418         20.7995 
        1.68085         200.831         20.3378 
        1.69652         198.966           19.89 
        1.71228         195.957         19.4531 
        1.72806         193.843         19.0291 
        1.74368         191.522         18.6219 
        1.75933         190.202         18.2259 
        1.77505         187.253         17.8396 
        1.79081         183.778         17.4639 
         1.8065         182.741         17.1005 
        1.82218          178.21         16.7479 
        1.83797         177.051         16.4028 
        1.85367         174.498         16.0693 
        1.86928         171.941         15.7471 
        1.88497           170.4         15.4321 
        1.90073         168.792         15.1245 
        1.91647         165.604         14.8255 
        1.93218         163.192         14.5353 
        1.94787         161.218         14.2533 
        1.96363          160.52         13.9777 
        1.97935         158.607         13.7099 
        1.99499         156.091         13.4507 
        2.01064          152.85         13.1978 
         2.0264          152.51         12.9499 
        2.04216         149.818         12.7084 
        2.05781         147.337         12.4746 
        2.07353         146.604         12.2459 
        2.08928         144.747         12.0224 
        2.10499         143.201         11.8051 
        2.12065         141.587         11.5939 
        2.13633         139.504         11.3876 
        2.15211         137.362          11.185 
        2.16785         136.055          10.988 
        2.18349         134.588         10.7969 
        2.19916         132.654         10.6099 
        2.21489         130.998         10.4268 
        2.23063         129.484         10.2479 
         2.2463         127.667          10.074 
        2.26194         126.702         9.90452 
        2.27765         124.601         9.73811 
        2.29341         123.643         9.57509 
        2.30914         122.257         9.41615 
        2.32486         120.224          9.2609 
        2.34061         118.769          9.1089 
        2.35635         117.961         8.96045 
        2.37203         115.993         8.81582 
        2.38768         115.208         8.67469 
        2.40339          113.03         8.53614 
        2.41914         112.037         8.40029 
        2.43483         111.167         8.26789 
         2.4505         109.764         8.13856 
        2.46622         108.047         8.01155 
        2.48195         107.139         7.88725 
        2.49759         105.503         7.76625 
        2.51328         104.534         7.64748 
        2.52906         103.561         7.53044 
        2.54479         102.151         7.41629 
        2.56049         100.802         7.30472 
        2.57618         99.8014         7.19555 
        2.59189         99.1015         7.08845 
        2.60758         97.4593          6.9837 
        2.62325         96.9204         6.88119 
        2.63898         95.7104         6.78038 
        2.65468         94.7734          6.6818 
        2.67044         93.6976         6.58477 
        2.68618          92.264         6.48988 
        2.70184         91.2859         6.39725 
        2.71755         90.6947         6.30619 
        2.73329         89.1198         6.21677 
        2.74897         88.3037         6.12937 
        2.76462         87.9385         6.04385 
        2.78034         86.3943          5.9596 
        2.79607         85.2926         5.87688 
        2.81179         84.6438         5.79582 
        2.82749         83.9132         5.71638 
        2.84321         82.5776         5.63834 
        2.85893         81.3822         5.56178 
        2.87462          80.982         5.48677 
        2.89033         79.9706         5.41308 
        2.90605         79.1502         5.34068 
        2.92176         78.4982         5.26964 
        2.93747         77.5987         5.19993 
        2.95318         76.3844         5.13146 
        2.96891         75.9479          5.0642 
        2.98456         74.8554         4.99844 
        3.00023         74.1845         4.93375 
        3.01596         73.5683         4.87001 
        3.03164         72.6784         4.80757 
        3.04738         72.3223         4.74605 
         3.0631         71.0807         4.68562 
        3.07883         70.5629         4.62625 
        3.09456         69.6119         4.56791 
        3.11026         69.2009         4.51067 
        3.12596         68.2925         4.45441 
        3.14163         67.6465         4.39924 
        3.15734         66.6698         4.34488 
        3.17308         66.2745         4.29131 
        3.18879          65.604         4.23879 
        3.20447         65.0385         4.18722 
         3.2202         64.0218         4.13635 
         3.2359         63.4393         4.08642 
        3.25157          63.079         4.03743 
        3.26729         62.2977         3.98909 
        3.28304          61.447         3.94145 
        3.29877         61.0791         3.89465 
        3.31446         60.2326         3.84872 
        3.33014         59.8154         3.80356 
        3.34585         59.2294         3.75906 
        3.36158          58.802          3.7152 
        3.37727         58.1918         3.67219 
        3.39294         57.5266         3.62989 
        3.40867         57.0598          3.5881 
        3.42439         56.4292           3.547 
        3.44008         55.8327         3.50662 
        3.45578         55.3055         3.46684 
        3.47153         54.8095         3.42759 
        3.48724         54.3222         3.38901 
        3.50292         53.7504         3.35112 
        3.51859         53.2957         3.31383 
        3.53431         52.6479         3.27698 
        3.55007         52.0672         3.24061 
        3.56577         51.5782         3.20493 
        3.58146         51.0596         3.16981 
        3.59719         50.6698         3.13513 
        3.61292         50.0189         3.10098 
        3.62859          49.687         3.06747 
        3.64429         49.2908         3.03438 
        3.66003         48.8885         3.00169 
        3.67578         48.2926         2.96949 
        3.69146         47.9031         2.93788 
        3.70712         47.5499         2.90679 
        3.72284         47.0382         2.87604 
        3.73853         46.6011         2.84578 
        3.75422         46.1294         2.81594 
        3.76993         45.7548         2.78651 
        3.78564         45.3262         2.75751 
        3.80137         44.9709         2.72888 
        3.81707         44.4428         2.70071 
        3.83279         44.1181         2.67292 
        3.84853         43.6482         2.64547 
        3.86424         43.2413         2.61847 
        3.87992         42.8136         2.59187 
        3.89561         42.5235         2.56565 
        3.91134         42.1135         2.53974 
        3.92704         41.7255         2.51421 
        3.94273         41.4062         2.48906 
        3.95845         40.9208         2.46421 
        3.97418         40.6274         2.43969 
        3.98988         40.2657         2.41554 
        4.00554         39.8061         2.39178 
        4.02125         39.6039         2.36827 
        4.03698         39.1344         2.34504 
        4.05268         38.9363         2.32218 
        4.06839         38.5604          2.2996 
         4.0841         38.2726         2.27733 
        4.09983         37.8326         2.25533 
        4.11555         37.5844         2.23362 
        4.13124         37.1037         2.21226 
        4.14693           36.88         2.19116 
        4.16266         36.5831         2.17029 
        4.17839         36.1889          2.1497 
        4.19408          35.919         2.12942 
        4.20977         35.6365          2.1094 
        4.22551         35.2921         2.08958 
        4.24123         35.0445         2.07004 
        4.25691          34.701         2.05081 
        4.27259         34.4106         2.03181 
        4.28831         34.1581         2.01302 
        4.30404         33.8779         1.99444 
        4.31974         33.5789         1.97614 
        4.33543         33.2705         1.95808 
        4.35116         32.9764          1.9402 
        4.36688         32.6815         1.92255 
        4.38255         32.4941         1.90519 
        4.39825         32.1978           1.888 
        4.41398         31.9097         1.87099 
         4.4297         31.6185         1.85421 
        4.44541         31.4689         1.83763 
        4.46111         31.0502         1.82128 
        4.47683         30.9175         1.80511 
        4.49251         30.6702         1.78916 
        4.50819           30.38         1.77342 
         4.5239         30.0604         1.75784 
        4.53962          29.875         1.74243 
        4.55535          29.623          1.7272 
        4.57106         29.3024         1.71217 
        4.58678         29.1437         1.69731 
         4.6025          28.948         1.68263 
        4.61821         28.7084         1.66813 
        4.63391         28.4444         1.65381 
         4.6496         28.1736         1.63967 
        4.66532         27.9836         1.62567 
        4.68103         27.7622         1.61184 
        4.69673         27.5624         1.59819 
        4.71241         27.3451          1.5847 
        4.72811         27.1246         1.57135 
        4.74384         26.9712         1.55814 
        4.75955         26.7679          1.5451 
        4.77525         26.4501         1.53221 
        4.79096         26.2331         1.51946 
        4.80669         26.0772         1.50684 
         4.8224         25.9033         1.49438 
        4.83809         25.6147         1.48208 
        4.85379           25.46         1.46991 
         4.8695         25.2624         1.45786 
        4.88521         25.0273         1.44596 
        4.90093         24.9084         1.43418 
        4.91663         24.6895         1.42255 
        4.93234         24.4218         1.41103 
        4.94807         24.2377         1.39963 
        4.96377         24.0897         1.38838 
        4.97943         23.9337         1.37728 
        4.99514         23.7861         1.36627 
        5.01086         23.5554         1.35537 
        5.02654         23.3542         1.34462 
        5.04227         23.2021         1.33396 
          5.058         22.9719          1.3234 
        5.07371         22.7944         1.31298 
        5.08942         22.5898         1.30267 
        5.10513         22.5243         1.29247 
        5.12084         22.3301         1.28237 
        5.13656         22.1607         1.27238 
        5.15225         22.0456         1.26252 
        5.16796          21.824         1.25275 
        5.18369         21.6449         1.24306 
         5.1994         21.4336          1.2335 
        5.21509         21.3141         1.22405 
        5.23079         21.1497         1.21469 
        5.24649         21.0042         1.20543 
        5.26217         20.8422         1.19627 
        5.27788         20.7121          1.1872 
        5.29359         20.5251         1.17822 
        5.30933          20.354         1.16932 
        5.32504         20.2228         1.16052 
        5.34073         20.0441         1.15183 
        5.35646         19.9147         1.14321 
        5.37218          19.775         1.13467 
        5.38789         19.6327         1.12623 
        5.40357         19.4729         1.11789 
        5.41929         19.3651         1.10962 
        5.43502         19.2155         1.10143 
         5.4507         19.0254         1.09334 
        5.46639          18.891         1.08533 
        5.48212         18.7642         1.07738 
        5.49786         18.6371         1.06951 
        5.51353         18.5228         1.06175 
        5.52921          18.372         1.05405 
        5.54495         18.2354         1.04642 
        5.56066          18.108         1.03886 
        5.57637         17.9647         1.03139 
        5.59207         17.8255         1.02399 
        5.60778         17.7833         1.01666 
        5.62346         17.6035         1.00941 
        5.63916         17.4758         1.00223 
        5.65487          17.318        0.995116 
         5.6706         17.2348        0.988061 
        5.68633          17.122        0.981071 
        5.70203         16.9878        0.974163 
        5.71773         16.8825        0.967323 
        5.73344         16.7701        0.960545 
        5.74916          16.634        0.953825 
        5.76486          16.511        0.947179 
        5.78054         16.3787        0.940607 
        5.79626         16.2845        0.934078 
          5.812          16.191        0.927605 
         5.8277         16.0334        0.921212 
        5.84339         15.9286        0.914879 
        5.85911         15.8468        0.908593 
        5.87484         15.6962        0.902368 
        5.89053         15.5764        0.896213 
        5.90623         15.5031        0.890113 
        5.92195         15.3746        0.884059 
        5.93767         15.2915        0.878064 
        5.95336         15.1797        0.872135 
        5.96905          15.068        0.866263 
        5.98476          14.982        0.860437 
        6.00048         14.8692        0.854662 
        6.01617         14.7967        0.848948 
        6.03185         14.6723        0.843293 
        6.04756         14.5802        0.837676 
        6.06331         14.4846        0.832098 
        6.07903         14.3545        0.826583 
        6.09473         14.2667        0.821122 
        6.11044         14.1779        0.815707 
        6.12616          14.098         0.81034 
        6.14186         14.0113        0.805028 
        6.15755         13.8827        0.799763 
        6.17326         13.7895        0.794541 
        6.18898         13.6961        0.789363 
        6.20467         13.5866        0.784241 
        6.22036         13.5067        0.779165 
         6.2361         13.4039        0.774119 
         6.2518         13.3262        0.769127 
        6.26748         13.2684        0.764189 
        6.28319          13.159        0.759282 
        6.29893         13.0797        0.754413 
        6.31463         13.0036        0.749595 
        6.33033         12.9191         0.74482 
        6.34604         12.8126        0.740084 
        6.36177         12.7338        0.735384 
        6.37747         12.6544        0.730734 
