# k  (h/Mpc)    Pcb(k)  (Mpc/h)^3    Pcb_linear(k) (Mpc/h)^3   ShotnoiseSubtracted = true
      0.0200456         130.647          132.34 
      0.0350414         96.8682         96.2067 
      0.0492313         70.2054         69.9019 
      0.0637834         57.9036         58.1089 
      0.0800726         45.8717         46.1196 
       0.096163         33.7699         33.4638 
       0.111083         26.9832         26.6916 
       0.126058          23.582         23.6542 
       0.142273         19.9348         20.0403 
       0.158546         15.8753         15.8276 
        0.17375         13.4328         13.3348 
       0.188953         12.0741         12.0743 
       0.204907         10.5692         10.6833 
       0.220756         9.04435         9.03872 
        0.23588         7.87092         7.86291 
         0.2514         7.14343         7.14337 
       0.267535          6.4638         6.46352 
       0.283568         5.70442         5.69996 
       0.299022         5.08645         5.07837 
       0.314451          4.6805         4.64129 
       0.330372         4.26807         4.25786 
       0.346141          3.8756         3.86465 
       0.361624         3.51735         3.51244 
       0.377134         3.22878           3.232 
       0.392932         3.02782         2.99051 
       0.408854         2.75696         2.75667 
       0.424564         2.56675         2.54086 
       0.440253          2.3661         2.35567 
       0.455999          2.1903         2.19464 
       0.471626         2.04212         2.04666 
        0.48727         1.92267         1.90823 
       0.502856         1.79953         1.78387 
       0.518488         1.66894         1.67291 
       0.534347         1.56015         1.56976 
       0.550082         1.48085         1.47464 
       0.565732           1.404         1.38763 
       0.581496         1.31368         1.30793 
       0.597222         1.23894         1.23484 
       0.612804         1.17027         1.16764 
       0.628434         1.10676         1.10499 
       0.644267         1.05243         1.04643 
       0.660051        0.998631        0.992448 
       0.675724        0.943071        0.942606 
       0.691403        0.896911        0.896145 
       0.707174         0.85333        0.852554 
       0.722871        0.822854        0.812035 
        0.73838        0.773911        0.774584 
       0.754018        0.738022        0.739211 
       0.769845         0.70062        0.705664 
        0.78569        0.674642         0.67417 
       0.801365        0.646674        0.644911 
       0.817031        0.619512        0.617416 
       0.832809        0.590195        0.591357 
       0.848511        0.566922        0.566927 
       0.864097          0.5461         0.54405 
       0.879701        0.526351        0.522421 
       0.895507        0.499717        0.501718 
       0.911279        0.483382        0.482184 
        0.92691        0.467515        0.463858 
       0.942635        0.445249        0.446387 
       0.958396        0.430007        0.429783 
       0.974128        0.414352        0.414057 
       0.989692        0.399492        0.399277 
        1.00528        0.383105        0.385199 
        1.02113        0.372977        0.371583 
        1.03692        0.360413        0.358678 
        1.05264        0.345753        0.346447 
        1.06832        0.334712        0.334808 
        1.08405        0.322385        0.323675 
        1.09979        0.312758        0.313044 
        1.11537        0.300816        0.302997 
        1.13105        0.290317        0.293333 
        1.14679        0.282591        0.284055 
        1.16256        0.274608        0.275162 
        1.17828        0.266149         0.26668 
        1.19395        0.257997        0.258586 
         1.2097        0.249338        0.250787 
        1.22537        0.241037        0.243349 
          1.241        0.234286        0.236236 
        1.25666        0.228452        0.229391 
        1.27241        0.220923        0.222786 
        1.28819        0.214153         0.21643 
        1.30392        0.208996        0.210342 
        1.31957         0.20242        0.204516 
        1.33529        0.197596         0.19889 
        1.35108        0.191049        0.193454 
        1.36674        0.186517        0.188261 
         1.3824        0.181336        0.183263 
        1.39811        0.175632        0.178431 
        1.41389        0.172115        0.173755 
        1.42964        0.167141        0.169255 
        1.44531        0.162474        0.164937 
        1.46101         0.15791        0.160761 
        1.47667        0.154304        0.156742 
        1.49229        0.150401        0.152872 
        1.50793        0.146735        0.149128 
        1.52367        0.142794        0.145486 
        1.53953        0.138884        0.141942 
        1.55526        0.135613        0.138544 
        1.57092        0.133212        0.135271 
        1.58662        0.129622        0.132097 
        1.60235        0.126435        0.129019 
        1.61809        0.123193        0.126038 
        1.63369        0.120214        0.123177 
        1.64941        0.117556        0.120385 
        1.66519         0.11501         0.11767 
        1.68085        0.112066        0.115058 
        1.69652        0.109805        0.112524 
        1.71228        0.106874        0.110053 
        1.72806        0.104954        0.107654 
        1.74368        0.102402        0.105351 
        1.75933         0.10035         0.10311 
        1.77505       0.0983115        0.100925 
        1.79081       0.0957484       0.0987988 
         1.8065       0.0939854       0.0967433 
        1.82218       0.0915153       0.0947483 
        1.83797       0.0896618       0.0927959 
        1.85367        0.087742       0.0909094 
        1.86928       0.0855658       0.0890868 
        1.88497       0.0840524       0.0873043 
        1.90073       0.0820473       0.0855641 
        1.91647       0.0809763       0.0838729 
        1.93218       0.0796354       0.0822311 
        1.94787         0.07726       0.0806357 
        1.96363       0.0758391       0.0790764 
        1.97935       0.0742658       0.0775616 
        1.99499       0.0728553       0.0760951 
        2.01064        0.071369       0.0746645 
         2.0264       0.0702192       0.0732617 
        2.04216       0.0687013       0.0718957 
        2.05781       0.0671723       0.0705731 
        2.07353       0.0660411       0.0692792 
        2.08928       0.0649168       0.0680149 
        2.10499       0.0635843       0.0667856 
        2.12065       0.0623728       0.0655905 
        2.13633       0.0612412       0.0644235 
        2.15211       0.0602186       0.0632775 
        2.16785       0.0587001       0.0621626 
        2.18349       0.0578042       0.0610815 
        2.19916       0.0566245       0.0600239 
        2.21489       0.0555704       0.0589879 
        2.23063       0.0547934       0.0579757 
         2.2463       0.0537584       0.0569918 
        2.26194       0.0528268       0.0560332 
        2.27765       0.0519622       0.0550917 
        2.29341       0.0507573       0.0541695 
        2.30914       0.0499678       0.0532703 
        2.32486       0.0489946        0.052392 
        2.34061       0.0481506       0.0515321 
        2.35635       0.0474139       0.0506922 
        2.37203        0.046939        0.049874 
        2.38768       0.0460842       0.0490756 
        2.40339       0.0451679       0.0482918 
        2.41914       0.0442822       0.0475232 
        2.43483       0.0437395       0.0467742 
         2.4505       0.0428631       0.0460425 
        2.46622       0.0421317        0.045324 
        2.48195       0.0414434       0.0446208 
        2.49759       0.0407593       0.0439363 
        2.51328       0.0399261       0.0432643 
        2.52906       0.0394477       0.0426022 
        2.54479        0.038849       0.0419564 
        2.56049       0.0381254       0.0413252 
        2.57618       0.0376159       0.0407076 
        2.59189       0.0368262       0.0401017 
        2.60758       0.0364662       0.0395091 
        2.62325       0.0357186       0.0389292 
        2.63898          0.0353       0.0383589 
        2.65468       0.0346128       0.0378012 
        2.67044       0.0340975       0.0372522 
        2.68618       0.0335455       0.0367154 
        2.70184        0.033218       0.0361914 
        2.71755       0.0326251       0.0356762 
        2.73329       0.0321544       0.0351703 
        2.74897        0.031665       0.0346759 
        2.76462        0.031137       0.0341921 
        2.78034        0.030734       0.0337155 
        2.79607       0.0302572       0.0332474 
        2.81179       0.0297617       0.0327889 
        2.82749       0.0294482       0.0323394 
        2.84321       0.0289515       0.0318979 
        2.85893        0.028506       0.0314648 
        2.87462       0.0281094       0.0310405 
        2.89033        0.027699       0.0306236 
        2.90605       0.0272975        0.030214 
        2.92176       0.0270125       0.0298121 
        2.93747       0.0265081       0.0294177 
        2.95318       0.0262193       0.0290304 
        2.96891       0.0257994       0.0286498 
        2.98456       0.0253915       0.0282778 
        3.00023       0.0252158       0.0279119 
        3.01596       0.0247044       0.0275512 
        3.03164       0.0244284        0.027198 
        3.04738       0.0240943         0.02685 
         3.0631       0.0236359       0.0265081 
        3.07883       0.0234653       0.0261722 
        3.09456       0.0231406       0.0258422 
        3.11026       0.0227407       0.0255183 
        3.12596       0.0225715       0.0252001 
        3.14163       0.0222292        0.024888 
        3.15734       0.0219941       0.0245805 
        3.17308       0.0217067       0.0242774 
        3.18879       0.0213773       0.0239802 
        3.20447       0.0210831       0.0236885 
         3.2202       0.0208292       0.0234007 
         3.2359       0.0205976       0.0231182 
        3.25157       0.0203153       0.0228411 
        3.26729       0.0200677       0.0225676 
        3.28304       0.0198728       0.0222981 
        3.29877       0.0196177       0.0220333 
        3.31446       0.0193034       0.0217735 
        3.33014        0.019122        0.021518 
        3.34585       0.0188874       0.0212662 
        3.36158       0.0186372       0.0210181 
        3.37727       0.0183908       0.0207748 
        3.39294       0.0181692       0.0205355 
        3.40867       0.0180476       0.0202991 
        3.42439       0.0177987       0.0200666 
        3.44008       0.0176205       0.0198381 
        3.45578       0.0173888       0.0196131 
        3.47153       0.0172194        0.019391 
        3.48724       0.0169966       0.0191728 
        3.50292       0.0168833       0.0189584 
        3.51859       0.0166801       0.0187474 
        3.53431       0.0164212        0.018539 
        3.55007       0.0162725       0.0183332 
        3.56577       0.0161022       0.0181314 
        3.58146       0.0159248       0.0179327 
        3.59719       0.0158059       0.0177365 
        3.61292       0.0155859       0.0175433 
        3.62859       0.0154032       0.0173537 
        3.64429       0.0152494       0.0171665 
        3.66003       0.0151542       0.0169816 
        3.67578       0.0149828       0.0167994 
        3.69146       0.0148497       0.0166206 
        3.70712       0.0146934       0.0164447 
        3.72284       0.0145385       0.0162707 
        3.73853       0.0143919       0.0160995 
        3.75422        0.014248       0.0159307 
        3.76993       0.0141289       0.0157642 
        3.78564       0.0139742       0.0156002 
        3.80137       0.0138631       0.0154382 
        3.81707       0.0137124       0.0152788 
        3.83279        0.013564       0.0151216 
        3.84853       0.0134645       0.0149663 
        3.86424       0.0133389       0.0148135 
        3.87992        0.013242       0.0146631 
        3.89561       0.0130952       0.0145147 
        3.91134       0.0129911       0.0143681 
        3.92704       0.0128429       0.0142237 
        3.94273       0.0127269       0.0140814 
        3.95845       0.0126165       0.0139408 
        3.97418       0.0125311       0.0138021 
        3.98988       0.0123329       0.0136655 
        4.00554       0.0122507       0.0135311 
        4.02125       0.0121081       0.0133981 
        4.03698       0.0119336       0.0132667 
        4.05268       0.0117896       0.0131373 
        4.06839       0.0116455       0.0130096 
         4.0841       0.0114633       0.0128836 
        4.09983        0.011299       0.0127591 
        4.11555       0.0111609       0.0126363 
        4.13124       0.0110078       0.0125155 
        4.14693       0.0108758       0.0123961 
        4.16266       0.0107425        0.012278 
        4.17839       0.0106132       0.0121615 
        4.19408       0.0104612       0.0120468 
        4.20977       0.0103301       0.0119336 
        4.22551       0.0102287       0.0118215 
        4.24123       0.0101084       0.0117109 
        4.25691        0.010028       0.0116021 
        4.27259       0.0098897       0.0114946 
        4.28831      0.00980937       0.0113883 
        4.30404       0.0096965       0.0112832 
        4.31974      0.00963932       0.0111797 
        4.33543      0.00953014       0.0110775 
        4.35116      0.00942824       0.0109763 
        4.36688       0.0093852       0.0108765 
        4.38255      0.00932027       0.0107783 
        4.39825      0.00927894        0.010681 
        4.41398      0.00919622       0.0105848 
         4.4297      0.00913732       0.0104899 
        4.44541      0.00905843       0.0103961 
        4.46111      0.00899234       0.0103036 
        4.47683      0.00901017       0.0102121 
        4.49251      0.00893461       0.0101219 
        4.50819      0.00891552       0.0100328 
         4.5239       0.0088636      0.00994469 
        4.53962      0.00886136       0.0098575 
        4.55535      0.00881007      0.00977132 
        4.57106        0.008826       0.0096863 
        4.58678      0.00879539      0.00960226 
         4.6025      0.00878399       0.0095192 
        4.61821      0.00876962      0.00943714 
        4.63391      0.00878207      0.00935615 
         4.6496       0.0087642      0.00927614 
        4.66532      0.00875664      0.00919695 
        4.68103      0.00878872      0.00911872 
        4.69673      0.00878355      0.00904146 
        4.71241      0.00884961      0.00896518 
        4.72811      0.00883749      0.00888966 
        4.74384      0.00887747       0.0088149 
        4.75955      0.00888145      0.00874112 
        4.77525       0.0089259      0.00866823 
        4.79096      0.00898645      0.00859607 
        4.80669      0.00903336       0.0085247 
         4.8224      0.00906162      0.00845423 
        4.83809        0.009151      0.00838462 
        4.85379      0.00921815      0.00831575 
         4.8695      0.00924555      0.00824761 
        4.88521      0.00931377      0.00818025 
        4.90093      0.00937465      0.00811364 
        4.91663      0.00948418      0.00804782 
        4.93234      0.00955728      0.00798267 
        4.94807      0.00960506      0.00791819 
        4.96377       0.0097212      0.00785455 
        4.97943      0.00989882      0.00779174 
        4.99514      0.00993556      0.00772945 
        5.01086       0.0100436       0.0076678 
        5.02654       0.0101441      0.00760697 
        5.04227       0.0102532      0.00754663 
          5.058       0.0104117      0.00748691 
        5.07371       0.0104707      0.00742796 
        5.08942       0.0106875      0.00736963 
        5.10513       0.0107511      0.00731192 
        5.12084       0.0108798       0.0072548 
        5.13656       0.0110463       0.0071983 
        5.15225       0.0112258       0.0071425 
        5.16796       0.0114215       0.0070872 
        5.18369       0.0115544      0.00703243 
         5.1994       0.0117322      0.00697834 
        5.21509       0.0118813      0.00692487 
        5.23079       0.0120895       0.0068719 
        5.24649       0.0123057      0.00681952 
        5.26217       0.0124489      0.00676772 
        5.27788       0.0126774      0.00671639 
        5.29359        0.012869      0.00666558 
        5.30933       0.0131345      0.00661522 
        5.32504       0.0133488      0.00656547 
        5.34073       0.0135797      0.00651628 
        5.35646       0.0138644       0.0064675 
        5.37218       0.0140573      0.00641921 
        5.38789       0.0142765      0.00637148 
        5.40357        0.014584       0.0063243 
        5.41929       0.0148583      0.00627749 
        5.43502       0.0151668      0.00623115 
         5.4507       0.0154272      0.00618539 
        5.46639       0.0156803      0.00614008 
        5.48212       0.0159795      0.00609511 
        5.49786        0.016446      0.00605055 
        5.51353       0.0167692      0.00600665 
        5.52921       0.0169808      0.00596314 
        5.54495       0.0173863      0.00591993 
        5.56066         0.01783       0.0058772 
        5.57637       0.0181214       0.0058349 
        5.59207       0.0185728      0.00579304 
        5.60778       0.0189164      0.00575159 
        5.62346       0.0192374      0.00571059 
        5.63916       0.0196635      0.00566996 
        5.65487       0.0201069       0.0056297 
         5.6706       0.0205404      0.00558979 
        5.68633        0.021111      0.00555024 
        5.70203       0.0215579      0.00551116 
        5.71773       0.0220311      0.00547247 
        5.73344       0.0223471      0.00543412 
        5.74916       0.0228862      0.00539611 
        5.76486       0.0235815      0.00535851 
        5.78054       0.0240325      0.00532132 
        5.79626       0.0245437      0.00528439 
          5.812       0.0252439      0.00524777 
         5.8277       0.0256599       0.0052116 
        5.84339       0.0263085      0.00517577 
        5.85911       0.0270655      0.00514021 
        5.87484       0.0276735      0.00510499 
        5.89053       0.0283469      0.00507017 
        5.90623       0.0290767      0.00503566 
        5.92195       0.0296415      0.00500141 
        5.93767       0.0304491       0.0049675 
        5.95336       0.0311258      0.00493396 
        5.96905       0.0320059      0.00490074 
        5.98476       0.0323968      0.00486778 
        6.00048       0.0337095      0.00483511 
        6.01617       0.0342353      0.00480278 
        6.03185       0.0350989      0.00477079 
        6.04756       0.0360862      0.00473901 
        6.06331        0.037092      0.00470746 
        6.07903       0.0378807      0.00467625 
        6.09473       0.0391776      0.00464536 
        6.11044       0.0401951      0.00461472 
        6.12616        0.041092      0.00458436 
        6.14186        0.042046      0.00455431 
        6.15755       0.0430595      0.00452452 
        6.17326       0.0443424      0.00449498 
        6.18898       0.0455129      0.00446569 
        6.20467       0.0469317      0.00443671 
        6.22036        0.048183      0.00440799 
         6.2361       0.0492988      0.00437945 
         6.2518       0.0507229      0.00435121 
        6.26748       0.0514962      0.00432327 
        6.28319       0.0536513      0.00429551 
        6.29893       0.0548833      0.00426796 
        6.31463       0.0565252      0.00424071 
        6.33033       0.0574691       0.0042137 
        6.34604       0.0594134       0.0041869 
        6.36177       0.0607443      0.00416031 
        6.37747       0.0628329      0.00413401 
