# k  (h/Mpc)    Pcb(k)  (Mpc/h)^3    Pcb_linear(k) (Mpc/h)^3   ShotnoiseSubtracted = true
      0.0200456           24020         24457.1 
      0.0350414         18352.3         17779.5 
      0.0492313         12607.2         12918.2 
      0.0637834         10159.6         10738.8 
      0.0800726         7967.31         8523.13 
       0.096163         6432.38         6184.27 
       0.111083         5239.45         4932.73 
       0.126058          4328.3          4371.4 
       0.142273         3802.33         3703.54 
       0.158546          3119.4         2925.02 
        0.17375         2801.74         2464.33 
       0.188953         2668.35         2231.39 
       0.204907         2297.62         1974.33 
       0.220756         2082.59          1670.4 
        0.23588         1860.55          1453.1 
         0.2514         1690.92         1320.13 
       0.267535         1628.51         1194.49 
       0.283568         1458.11         1053.38 
       0.299022         1389.63         938.508 
       0.314451         1450.56         857.733 
       0.330372         1293.35         786.873 
       0.346141         1188.19         714.207 
       0.361624         1140.41         649.117 
       0.377134         1097.22          597.29 
       0.392932         1043.17         552.661 
       0.408854         1003.77         509.446 
       0.424564         983.637         469.564 
       0.440253         917.145          435.34 
       0.455999         877.341         405.581 
       0.471626         891.032         378.233 
        0.48727         842.745         352.651 
       0.502856         815.507         329.668 
       0.518488         787.349         309.162 
       0.534347         760.758         290.099 
       0.550082         726.299         272.521 
       0.565732         714.392         256.441 
       0.581496         699.487         241.712 
       0.597222         687.623         228.205 
       0.612804         670.461         215.785 
       0.628434         643.783         204.208 
       0.644267         627.214         193.385 
       0.660051         620.902         183.409 
       0.675724         609.372         174.198 
       0.691403         589.391         165.612 
       0.707174         574.094         157.556 
       0.722871          570.06         150.068 
        0.73838         555.513         143.147 
       0.754018         544.459          136.61 
       0.769845         536.863          130.41 
        0.78569         525.278          124.59 
       0.801365         508.985         119.183 
       0.817031         504.185         114.102 
       0.832809         496.168         109.286 
       0.848511         488.419         104.771 
       0.864097         478.887         100.543 
       0.879701         479.475          96.546 
       0.895507         460.655         92.7199 
       0.911279         455.441         89.1101 
        0.92691         449.217         85.7232 
       0.942635         443.545         82.4945 
       0.958396         431.143          79.426 
       0.974128          424.68         76.5198 
       0.989692          414.27         73.7884 
        1.00528          409.45         71.1868 
        1.02113           402.6         68.6704 
        1.03692          397.01         66.2854 
        1.05264         391.925         64.0251 
        1.06832         382.901         61.8742 
        1.08405         381.943         59.8168 
        1.09979         373.242         57.8521 
        1.11537          364.31         55.9954 
        1.13105         360.256         54.2095 
        1.14679         354.033         52.4949 
        1.16256         352.205         50.8513 
        1.17828         346.724         49.2838 
        1.19395         338.307         47.7879 
         1.2097         335.157         46.3467 
        1.22537         330.351         44.9722 
          1.241         323.557         43.6577 
        1.25666         320.482         42.3926 
        1.27241         316.801         41.1719 
        1.28819         308.677         39.9974 
        1.30392         308.568         38.8723 
        1.31957         300.859         37.7956 
        1.33529         296.676         36.7559 
        1.35108           295.6         35.7513 
        1.36674         287.835         34.7915 
         1.3824         284.109         33.8679 
        1.39811         280.622          32.975 
        1.41389         275.349         32.1108 
        1.42964         271.596         31.2792 
        1.44531         268.131         30.4812 
        1.46101         263.286         29.7094 
        1.47667         261.058         28.9667 
        1.49229         257.522         28.2515 
        1.50793         253.261         27.5596 
        1.52367         249.335         26.8866 
        1.53953         245.952         26.2315 
        1.55526         242.672         25.6036 
        1.57092         240.732         24.9988 
        1.58662         235.557         24.4122 
        1.60235         232.572         23.8434 
        1.61809          230.81         23.2924 
        1.63369         226.436         22.7637 
        1.64941         223.381         22.2477 
        1.66519         220.416         21.7459 
        1.68085         216.522         21.2632 
        1.69652          214.27          20.795 
        1.71228         211.095         20.3383 
        1.72806         208.764          19.895 
        1.74368         206.261         19.4693 
        1.75933         204.675         19.0553 
        1.77505         201.526         18.6514 
        1.79081         198.399         18.2585 
         1.8065         197.389         17.8786 
        1.82218         192.225           17.51 
        1.83797         190.819         17.1491 
        1.85367         188.196         16.8005 
        1.86928         185.218         16.4637 
        1.88497         183.421         16.1343 
        1.90073         181.921         15.8127 
        1.91647          178.71         15.5001 
        1.93218         175.784         15.1967 
        1.94787         173.657         14.9019 
        1.96363         172.731         14.6137 
        1.97935         170.667         14.3338 
        1.99499         168.112         14.0628 
        2.01064         164.722         13.7984 
         2.0264         164.199         13.5391 
        2.04216         161.129         13.2867 
        2.05781         158.922         13.0423 
        2.07353         158.084         12.8031 
        2.08928         156.107         12.5695 
        2.10499         153.982         12.3423 
        2.12065         152.374         12.1214 
        2.13633         150.194         11.9058 
        2.15211          148.07          11.694 
        2.16785         146.749          11.488 
        2.18349         145.054         11.2882 
        2.19916         143.028         11.0927 
        2.21489         141.016         10.9013 
        2.23063         139.529         10.7142 
         2.2463         137.667         10.5324 
        2.26194         136.565         10.3552 
        2.27765         134.337         10.1812 
        2.29341         133.334         10.0108 
        2.30914         131.614         9.84461 
        2.32486          129.87          9.6823 
        2.34061         127.925         9.52338 
        2.35635         127.041         9.36818 
        2.37203         125.252         9.21697 
        2.38768         124.284         9.06941 
        2.40339         122.062         8.92456 
        2.41914         120.675         8.78253 
        2.43483         119.574          8.6441 
         2.4505         118.591         8.50889 
        2.46622          116.45          8.3761 
        2.48195         115.419         8.24615 
        2.49759         113.557         8.11964 
        2.51328         112.536         7.99546 
        2.52906         111.604          7.8731 
        2.54479         110.069         7.75375 
        2.56049         108.659         7.63711 
        2.57618         107.491         7.52297 
        2.59189         106.851         7.41099 
        2.60758         105.133         7.30148 
        2.62325         104.197          7.1943 
        2.63898         102.885         7.08891 
        2.65468         101.967         6.98585 
        2.67044         101.059          6.8844 
        2.68618         99.4242         6.78519 
        2.70184         98.4906         6.68834 
        2.71755         97.6152         6.59314 
        2.73329         96.0317         6.49965 
        2.74897         95.2206         6.40828 
        2.76462         94.8351         6.31886 
        2.78034         93.4256         6.23078 
        2.79607         92.0317         6.14429 
        2.81179         91.2747         6.05954 
        2.82749         90.6036         5.97649 
        2.84321         89.1654          5.8949 
        2.85893         87.9036         5.81486 
        2.87462         87.4316         5.73644 
        2.89033         86.3202         5.65939 
        2.90605         85.3894         5.58369 
        2.92176         84.8252         5.50942 
        2.93747         83.7761         5.43654 
        2.95318         82.5528         5.36496 
        2.96891         82.1487         5.29463 
        2.98456          80.808         5.22588 
        3.00023         80.1562         5.15825 
        3.01596         79.5468         5.09161 
        3.03164         78.4963         5.02633 
        3.04738         78.1242         4.96201 
         3.0631          76.909         4.89883 
        3.07883         76.2357         4.83675 
        3.09456         75.2626         4.77576 
        3.11026         74.8966         4.71591 
        3.12596         73.8345          4.6571 
        3.14163         73.2251         4.59942 
        3.15734         72.1851         4.54259 
        3.17308         71.7801         4.48658 
        3.18879         70.9593         4.43167 
        3.20447         70.3283         4.37775 
         3.2202         69.2376         4.32457 
         3.2359         68.7244         4.27236 
        3.25157         68.1609         4.22114 
        3.26729         67.2512         4.17061 
        3.28304         66.5472          4.1208 
        3.29877         66.0768         4.07187 
        3.31446          65.108         4.02384 
        3.33014          64.645         3.97663 
        3.34585         63.9455         3.93011 
        3.36158         63.4881         3.88426 
        3.37727          62.918         3.83928 
        3.39294         62.1524         3.79506 
        3.40867         61.6815         3.75137 
        3.42439         60.9189          3.7084 
        3.44008         60.3336         3.66618 
        3.45578          59.779         3.62459 
        3.47153         59.2285         3.58355 
        3.48724         58.7216         3.54322 
        3.50292         58.1906         3.50361 
        3.51859         57.6185         3.46462 
        3.53431         57.0022          3.4261 
        3.55007         56.2809         3.38807 
        3.56577         55.7558         3.35077 
        3.58146         55.2732         3.31404 
        3.59719         54.8679         3.27779 
        3.61292         54.1782         3.24208 
        3.62859         53.8146         3.20705 
        3.64429         53.2658         3.17246 
        3.66003         52.8181         3.13828 
        3.67578         52.1894         3.10461 
        3.69146         51.8249         3.07156 
        3.70712         51.3531         3.03906 
        3.72284         50.8196          3.0069 
        3.73853         50.4056         2.97527 
        3.75422         49.9508         2.94408 
        3.76993         49.5137         2.91331 
        3.78564         49.0499         2.88299 
        3.80137         48.5472         2.85305 
        3.81707         48.0481          2.8236 
        3.83279         47.6454         2.79455 
        3.84853         47.2671         2.76585 
        3.86424          46.792         2.73761 
        3.87992         46.3006         2.70981 
        3.89561         46.0507          2.6824 
        3.91134          45.492          2.6553 
        3.92704         45.1619         2.62862 
        3.94273         44.7615         2.60232 
        3.95845         44.2473         2.57634 
        3.97418         43.9171          2.5507 
        3.98988         43.5658         2.52545 
        4.00554         43.0652         2.50061 
        4.02125         42.7605         2.47604 
        4.03698         42.3485         2.45175 
        4.05268          42.043         2.42785 
        4.06839          41.668         2.40424 
         4.0841         41.3297         2.38096 
        4.09983         40.9758         2.35795 
        4.11555         40.6405         2.33526 
        4.13124         40.0698         2.31292 
        4.14693         39.8807         2.29086 
        4.16266         39.5337         2.26904 
        4.17839          39.067         2.24751 
        4.19408         38.8314         2.22632 
        4.20977         38.4568         2.20538 
        4.22551         38.1657         2.18467 
        4.24123         37.8252         2.16424 
        4.25691         37.4516         2.14413 
        4.27259          37.167         2.12426 
        4.28831         36.9438         2.10461 
        4.30404         36.6286         2.08519 
        4.31974         36.2624         2.06606 
        4.33543         35.8833         2.04718 
        4.35116         35.6522         2.02848 
        4.36688         35.2838         2.01003 
        4.38255         35.0788         1.99188 
        4.39825         34.8498         1.97391 
        4.41398          34.539         1.95612 
         4.4297         34.1555         1.93858 
        4.44541         33.9746         1.92125 
        4.46111         33.5745         1.90415 
        4.47683         33.4404         1.88724 
        4.49251         33.1368         1.87058 
        4.50819         32.8214         1.85411 
         4.5239         32.4766         1.83783 
        4.53962         32.2272         1.82172 
        4.55535         32.0169         1.80579 
        4.57106         31.6432         1.79008 
        4.58678         31.5096         1.77455 
         4.6025         31.2244          1.7592 
        4.61821         30.9509         1.74403 
        4.63391         30.7542         1.72906 
         4.6496         30.4721         1.71428 
        4.66532         30.2263         1.69964 
        4.68103         29.9008         1.68518 
        4.69673         29.7841         1.67091 
        4.71241         29.4697         1.65681 
        4.72811         29.2855         1.64285 
        4.74384         29.1335         1.62904 
        4.75955         28.9156          1.6154 
        4.77525         28.6112         1.60193 
        4.79096         28.3655          1.5886 
        4.80669         28.1349         1.57541 
         4.8224         27.9615         1.56238 
        4.83809         27.6723         1.54952 
        4.85379         27.5268         1.53679 
         4.8695         27.2682          1.5242 
        4.88521         27.0562         1.51175 
        4.90093         26.8449         1.49944 
        4.91663         26.6823         1.48728 
        4.93234          26.426         1.47524 
        4.94807         26.1637         1.46332 
        4.96377         26.0046         1.45156 
        4.97943         25.8691         1.43995 
        4.99514         25.6666         1.42844 
        5.01086         25.4552         1.41705 
        5.02654         25.2419         1.40581 
        5.04227         24.9941         1.39465 
          5.058         24.7593         1.38362 
        5.07371         24.6618         1.37272 
        5.08942         24.4459         1.36194 
        5.10513         24.2865         1.35128 
        5.12084         24.0554         1.34072 
        5.13656         23.9131         1.33028 
        5.15225         23.7647         1.31997 
        5.16796         23.5614         1.30975 
        5.18369         23.3645         1.29963 
         5.1994         23.1501         1.28963 
        5.21509         23.0306         1.27975 
        5.23079         22.8671         1.26996 
        5.24649         22.7079         1.26028 
        5.26217         22.4959         1.25071 
        5.27788         22.3738         1.24122 
        5.29359         22.1711         1.23183 
        5.30933         21.9812         1.22253 
        5.32504          21.858         1.21333 
        5.34073         21.6858         1.20424 
        5.35646         21.4785         1.19523 
        5.37218         21.3785          1.1863 
        5.38789         21.2267         1.17748 
        5.40357         21.0409         1.16876 
        5.41929         20.9138         1.16011 
        5.43502         20.7623         1.15155 
         5.4507         20.6214         1.14309 
        5.46639         20.4608         1.13472 
        5.48212          20.329         1.12641 
        5.49786         20.1477         1.11817 
        5.51353         19.9991         1.11006 
        5.52921           19.86         1.10202 
        5.54495         19.7211         1.09403 
        5.56066         19.5461         1.08614 
        5.57637         19.4097         1.07832 
        5.59207         19.2696         1.07058 
        5.60778         19.2149         1.06292 
        5.62346         18.9798         1.05535 
        5.63916         18.8729         1.04784 
        5.65487         18.7233          1.0404 
         5.6706          18.623         1.03302 
        5.68633         18.5064         1.02571 
        5.70203         18.3704         1.01849 
        5.71773         18.2378         1.01134 
        5.73344         18.1134         1.00425 
        5.74916         17.9629        0.997228 
        5.76486         17.8494        0.990279 
        5.78054         17.6887        0.983407 
        5.79626         17.6545        0.976581 
          5.812         17.4727        0.969814 
         5.8277         17.3264         0.96313 
        5.84339          17.225        0.956509 
        5.85911         17.1096        0.949937 
        5.87484         16.9825        0.943428 
        5.89053         16.8589        0.936994 
        5.90623         16.7597        0.930616 
        5.92195         16.6031        0.924286 
        5.93767         16.5186        0.918019 
        5.95336         16.4072         0.91182 
        5.96905         16.2999        0.905681 
        5.98476         16.1911        0.899589 
        6.00048         16.0722        0.893552 
        6.01617         15.9596        0.887578 
        6.03185         15.8599        0.881665 
        6.04756         15.7462        0.875793 
        6.06331         15.6514        0.869961 
        6.07903         15.4967        0.864195 
        6.09473         15.3969        0.858486 
        6.11044         15.3309        0.852824 
        6.12616         15.2295        0.847213 
        6.14186          15.111        0.841659 
        6.15755         15.0023        0.836155 
        6.17326         14.9188        0.830695 
        6.18898         14.7968        0.825282 
        6.20467         14.6852        0.819926 
        6.22036         14.5907        0.814619 
         6.2361         14.4845        0.809344 
         6.2518         14.3953        0.804125 
        6.26748         14.3241        0.798962 
        6.28319         14.2149        0.793831 
        6.29893         14.1244        0.788741 
        6.31463         14.0376        0.783704 
        6.33033         13.9342        0.778712 
        6.34604         13.8325         0.77376 
        6.36177         13.7593        0.768847 
        6.37747         13.6534        0.763985 
