# k  (h/Mpc)    Pcb(k)  (Mpc/h)^3    Pcb_linear(k) (Mpc/h)^3   ShotnoiseSubtracted = true
      0.0200456         804.543         815.804 
      0.0350414         590.669         593.062 
      0.0492313         432.463         430.908 
      0.0637834         360.794          358.21 
      0.0800726         286.012         284.302 
       0.096163         205.908         206.286 
       0.111083         163.602         164.539 
       0.126058         146.323         145.815 
       0.142273         124.485         123.537 
       0.158546         98.8505         97.5687 
        0.17375         82.1373         82.2015 
       0.188953         75.0711         74.4316 
       0.204907         68.0053         65.8568 
       0.220756         56.8744         55.7188 
        0.23588         49.4927         48.4706 
         0.2514         44.5243          44.035 
       0.267535         40.5278         39.8441 
       0.283568         35.9766         35.1372 
       0.299022         32.3321         31.3054 
       0.314451         29.0009          28.611 
       0.330372         26.8589         26.2474 
       0.346141         24.4017         23.8235 
       0.361624         22.3675         21.6523 
       0.377134         20.8058         19.9235 
       0.392932         18.6072         18.4349 
       0.408854         17.7191         16.9934 
       0.424564         16.3313          15.663 
       0.440253         15.0955         14.5215 
       0.455999         14.1961         13.5288 
       0.471626         13.3273         12.6166 
        0.48727         12.4111         11.7632 
       0.502856         11.5564         10.9966 
       0.518488         11.0212         10.3126 
       0.534347          10.481          9.6767 
       0.550082         9.59578         9.09038 
       0.565732         8.86785         8.55397 
       0.581496         8.63751         8.06269 
       0.597222         8.24374         7.61214 
       0.612804          7.6902         7.19784 
       0.628434         7.39728         6.81167 
       0.644267         7.02651         6.45065 
       0.660051          6.6246          6.1179 
       0.675724         6.30029         5.81066 
       0.691403         6.06551         5.52425 
       0.707174         5.74267         5.25553 
       0.722871         5.48437         5.00576 
        0.73838         5.26845         4.77489 
       0.754018         5.09018         4.55684 
       0.769845         4.81708         4.35003 
        0.78569         4.64205         4.15589 
       0.801365         4.43368         3.97553 
       0.817031         4.27759         3.80604 
       0.832809         4.11434          3.6454 
       0.848511         3.89421         3.49479 
       0.864097         3.74128         3.35378 
       0.879701         3.61027         3.22044 
       0.895507         3.46419         3.09282 
       0.911279         3.39695         2.97241 
        0.92691         3.26083         2.85943 
       0.942635         3.12081         2.75173 
       0.958396         3.00248         2.64938 
       0.974128         2.91216         2.55244 
       0.989692         2.84534         2.46133 
        1.00528         2.71883         2.37455 
        1.02113         2.61542         2.29061 
        1.03692         2.56636         2.21105 
        1.05264         2.46982         2.13566 
        1.06832         2.40594         2.06391 
        1.08405         2.28881         1.99528 
        1.09979         2.23879         1.92975 
        1.11537         2.17853         1.86781 
        1.13105         2.12096         1.80824 
        1.14679           2.062         1.75105 
        1.16256         1.98613         1.69623 
        1.17828         1.93795         1.64394 
        1.19395         1.88364         1.59404 
         1.2097         1.80093         1.54597 
        1.22537         1.76537         1.50012 
          1.241         1.72424         1.45627 
        1.25666         1.70514         1.41407 
        1.27241         1.62364         1.37335 
        1.28819         1.58577         1.33418 
        1.30392         1.55632         1.29665 
        1.31957         1.51671         1.26073 
        1.33529          1.4691         1.22605 
        1.35108         1.43463         1.19254 
        1.36674         1.38611         1.16052 
         1.3824         1.35839         1.12972 
        1.39811         1.32349         1.09993 
        1.41389         1.29866         1.07111 
        1.42964         1.26842         1.04337 
        1.44531         1.23489         1.01675 
        1.46101         1.21136        0.991004 
        1.47667         1.16487         0.96623 
        1.49229         1.15568        0.942372 
        1.50793         1.12255        0.919295 
        1.52367         1.10245        0.896843 
        1.53953         1.06674        0.874993 
        1.55526         1.04651        0.854047 
        1.57092         1.02342        0.833875 
        1.58662          1.0053        0.814308 
        1.60235         0.98067        0.795332 
        1.61809        0.955218        0.776953 
        1.63369        0.948396        0.759319 
        1.64941        0.918671        0.742108 
        1.66519        0.902426        0.725369 
        1.68085        0.875072        0.709267 
        1.69652        0.860355         0.69365 
        1.71228         0.84819        0.678415 
        1.72806        0.822873        0.663627 
        1.74368        0.813963        0.649429 
        1.75933        0.792803        0.635619 
        1.77505        0.779344        0.622146 
        1.79081        0.763989        0.609041 
         1.8065        0.743291         0.59637 
        1.82218        0.735309        0.584072 
        1.83797        0.720443        0.572036 
        1.85367        0.713244        0.560407 
        1.86928        0.696916        0.549172 
        1.88497        0.679735        0.538184 
        1.90073        0.665036        0.527456 
        1.91647        0.659855        0.517031 
        1.93218        0.643635         0.50691 
        1.94787        0.631769        0.497076 
        1.96363        0.619298        0.487463 
        1.97935        0.607739        0.478125 
        1.99499        0.597356        0.469085 
        2.01064        0.586453        0.460266 
         2.0264        0.576994        0.451619 
        2.04216        0.568454        0.443198 
        2.05781        0.557329        0.435045 
        2.07353        0.546818        0.427069 
        2.08928        0.535207        0.419275 
        2.10499        0.529079        0.411697 
        2.12065        0.523624         0.40433 
        2.13633        0.513016        0.397136 
        2.15211         0.50269        0.390071 
        2.16785        0.493269        0.383198 
        2.18349        0.485726        0.376534 
        2.19916        0.479147        0.370015 
        2.21489        0.469753        0.363629 
        2.23063        0.462681        0.357389 
         2.2463        0.457889        0.351323 
        2.26194        0.444301        0.345414 
        2.27765        0.439839        0.339611 
        2.29341        0.434973        0.333925 
        2.30914         0.43023        0.328382 
        2.32486        0.421097        0.322968 
        2.34061        0.414171        0.317667 
        2.35635        0.406168         0.31249 
        2.37203         0.40119        0.307446 
        2.38768        0.395589        0.302524 
        2.40339        0.390248        0.297693 
        2.41914        0.384531        0.292955 
        2.43483        0.378073        0.288337 
         2.4505        0.371533        0.283827 
        2.46622        0.366561        0.279398 
        2.48195        0.363245        0.275063 
        2.49759        0.356939        0.270843 
        2.51328        0.350355        0.266701 
        2.52906        0.346882        0.262619 
        2.54479        0.340876        0.258638 
        2.56049         0.33484        0.254748 
        2.57618        0.331335         0.25094 
        2.59189        0.327452        0.247205 
        2.60758        0.323414        0.243552 
        2.62325        0.317763        0.239977 
        2.63898         0.31423        0.236462 
        2.65468        0.308946        0.233024 
        2.67044         0.30471         0.22964 
        2.68618        0.300553        0.226331 
        2.70184        0.296898          0.2231 
        2.71755        0.291927        0.219925 
        2.73329        0.288448        0.216806 
        2.74897        0.285376        0.213758 
        2.76462        0.281439        0.210775 
        2.78034        0.277417        0.207838 
        2.79607        0.274055        0.204953 
        2.81179         0.27057        0.202126 
        2.82749        0.266833        0.199355 
        2.84321         0.26424        0.196634 
        2.85893        0.260385        0.193964 
        2.87462        0.256777        0.191348 
        2.89033        0.253305        0.188778 
        2.90605        0.250972        0.186253 
        2.92176        0.247305        0.183775 
        2.93747        0.244145        0.181344 
        2.95318        0.241647        0.178957 
        2.96891        0.238487        0.176611 
        2.98456        0.235457        0.174317 
        3.00023        0.233242        0.172062 
        3.01596        0.229844        0.169838 
        3.03164        0.227785        0.167661 
        3.04738         0.22369        0.165516 
         3.0631        0.222285        0.163408 
        3.07883          0.2187        0.161337 
        3.09456        0.216379        0.159303 
        3.11026        0.214681        0.157307 
        3.12596        0.211132        0.155345 
        3.14163         0.20944        0.153421 
        3.15734        0.207604        0.151525 
        3.17308        0.205043        0.149657 
        3.18879        0.203096        0.147825 
        3.20447        0.199374        0.146027 
         3.2202        0.198516        0.144253 
         3.2359        0.195917        0.142511 
        3.25157         0.19414        0.140803 
        3.26729        0.191614        0.139117 
        3.28304        0.190311        0.137456 
        3.29877        0.187739        0.135824 
        3.31446        0.186025        0.134222 
        3.33014        0.184216        0.132647 
        3.34585        0.183363        0.131095 
        3.36158        0.180707        0.129565 
        3.37727        0.179157        0.128065 
        3.39294        0.176935         0.12659 
        3.40867        0.174941        0.125133 
        3.42439        0.173783        0.123699 
        3.44008         0.17159        0.122291 
        3.45578        0.170754        0.120904 
        3.47153        0.168728        0.119535 
        3.48724        0.167486         0.11819 
        3.50292        0.165962        0.116868 
        3.51859        0.163674        0.115568 
        3.53431        0.162123        0.114283 
        3.55007        0.161335        0.113014 
        3.56577        0.159205         0.11177 
        3.58146        0.157824        0.110545 
        3.59719        0.156623        0.109336 
        3.61292        0.155649        0.108145 
        3.62859        0.153683        0.106976 
        3.64429        0.152423        0.105822 
        3.66003        0.151272        0.104682 
        3.67578        0.149963        0.103559 
        3.69146        0.148489        0.102457 
        3.70712        0.147574        0.101373 
        3.72284        0.146169          0.1003 
        3.73853        0.145251       0.0992448 
        3.75422        0.143945       0.0982043 
        3.76993        0.142706       0.0971779 
        3.78564        0.141245       0.0961666 
        3.80137        0.140194        0.095168 
        3.81707        0.139082       0.0941857 
        3.83279        0.138097       0.0932164 
        3.84853         0.13659       0.0922592 
        3.86424        0.135547       0.0913174 
        3.87992        0.134531         0.09039 
        3.89561        0.133229       0.0894755 
        3.91134        0.132632       0.0885718 
        3.92704        0.131035       0.0876816 
        3.94273        0.129762       0.0868045 
        3.95845        0.128704       0.0859378 
        3.97418         0.12812       0.0850827 
        3.98988        0.126323       0.0842404 
        4.00554         0.12549       0.0834118 
        4.02125        0.124268        0.082592 
        4.03698        0.122646        0.081782 
        4.05268        0.121579       0.0809846 
        4.06839        0.119782       0.0801972 
         4.0841        0.118276       0.0794206 
        4.09983        0.116874       0.0786532 
        4.11555        0.115497       0.0778962 
        4.13124        0.113711       0.0771512 
        4.14693         0.11299       0.0764153 
        4.16266        0.111419       0.0756874 
        4.17839        0.110303       0.0749694 
        4.19408        0.109151       0.0742622 
        4.20977        0.108157       0.0735639 
        4.22551        0.106995       0.0728729 
        4.24123        0.105926       0.0721915 
        4.25691        0.104719       0.0715207 
        4.27259        0.103807       0.0708581 
        4.28831        0.102774       0.0702027 
        4.30404        0.101844       0.0695549 
        4.31974        0.101545       0.0689166 
        4.33543        0.100304       0.0682867 
        4.35116       0.0992287       0.0676632 
        4.36688        0.098575       0.0670477 
        4.38255       0.0974514       0.0664422 
        4.39825       0.0972526       0.0658428 
        4.41398       0.0964484       0.0652496 
         4.4297       0.0958516       0.0646643 
        4.44541       0.0953373       0.0640864 
        4.46111       0.0945764       0.0635159 
        4.47683       0.0940756       0.0629519 
        4.49251       0.0934258        0.062396 
        4.50819       0.0930131       0.0618469 
         4.5239       0.0924831       0.0613036 
        4.53962       0.0922192       0.0607662 
        4.55535       0.0916774       0.0602349 
        4.57106       0.0913112       0.0597108 
        4.58678        0.090748       0.0591927 
         4.6025       0.0907311       0.0586807 
        4.61821       0.0905284       0.0581749 
        4.63391        0.090234       0.0576756 
         4.6496       0.0899939       0.0571824 
        4.66532       0.0899102       0.0566942 
        4.68103        0.089767       0.0562119 
        4.69673       0.0892478       0.0557357 
        4.71241       0.0894433       0.0552655 
        4.72811       0.0891983       0.0547999 
        4.74384       0.0892492       0.0543391 
        4.75955       0.0895803       0.0538843 
        4.77525       0.0895505       0.0534349 
        4.79096       0.0892171       0.0529901 
        4.80669       0.0894081       0.0525502 
         4.8224       0.0896773       0.0521157 
        4.83809       0.0895624       0.0516866 
        4.85379       0.0897773       0.0512621 
         4.8695       0.0898814        0.050842 
        4.88521       0.0902393       0.0504268 
        4.90093       0.0903898       0.0500162 
        4.91663        0.090612       0.0496105 
        4.93234       0.0909033       0.0492088 
        4.94807       0.0914572       0.0488114 
        4.96377       0.0918707        0.048419 
        4.97943       0.0926302       0.0480318 
        4.99514       0.0924246       0.0476479 
        5.01086       0.0933975       0.0472678 
        5.02654       0.0935369       0.0468929 
        5.04227       0.0941446       0.0465209 
          5.058       0.0948003       0.0461527 
        5.07371       0.0956018       0.0457893 
        5.08942       0.0958936       0.0454298 
        5.10513       0.0967958        0.045074 
        5.12084       0.0972772       0.0447219 
        5.13656       0.0977987       0.0443736 
        5.15225       0.0990937       0.0440296 
        5.16796       0.0997304       0.0436887 
        5.18369        0.100314       0.0433511 
         5.1994        0.101626       0.0430177 
        5.21509        0.102247       0.0426881 
        5.23079        0.103478       0.0423615 
        5.24649        0.104634       0.0420386 
        5.26217        0.105515       0.0417193 
        5.27788        0.106601       0.0414029 
        5.29359        0.107342       0.0410897 
        5.30933         0.10869       0.0407793 
        5.32504        0.109994       0.0404726 
        5.34073        0.110927       0.0401694 
        5.35646        0.111792       0.0398686 
        5.37218        0.113656       0.0395709 
        5.38789        0.114554       0.0392768 
        5.40357        0.115714       0.0389859 
        5.41929        0.117633       0.0386973 
        5.43502        0.118872       0.0384117 
         5.4507        0.120485       0.0381296 
        5.46639        0.121773       0.0378502 
        5.48212        0.123523       0.0375731 
        5.49786        0.125212       0.0372983 
        5.51353        0.126746       0.0370277 
        5.52921        0.128023       0.0367595 
        5.54495        0.130301       0.0364932 
        5.56066        0.131959       0.0362297 
        5.57637        0.133817        0.035969 
        5.59207        0.136073        0.035711 
        5.60778         0.13785       0.0354554 
        5.62346        0.140183       0.0352027 
        5.63916         0.14203       0.0349522 
        5.65487        0.143804       0.0347041 
         5.6706        0.146097        0.034458 
        5.68633        0.147552       0.0342142 
        5.70203        0.150152       0.0339733 
        5.71773        0.152613       0.0337348 
        5.73344        0.154063       0.0334984 
        5.74916        0.157387       0.0332641 
        5.76486        0.159356       0.0330323 
        5.78054        0.161553       0.0328031 
        5.79626        0.164269       0.0325754 
          5.812        0.166811       0.0323496 
         5.8277        0.169652       0.0321267 
        5.84339         0.17183       0.0319058 
        5.85911        0.175196       0.0316866 
        5.87484         0.17724       0.0314695 
        5.89053        0.180871       0.0312549 
        5.90623        0.183001       0.0310421 
        5.92195        0.185755        0.030831 
        5.93767        0.188276        0.030622 
        5.95336         0.19272       0.0304152 
        5.96905        0.194397       0.0302104 
        5.98476        0.196593       0.0300072 
        6.00048          0.2011       0.0298058 
        6.01617        0.203848       0.0296065 
        6.03185        0.206594       0.0294093 
        6.04756        0.210769       0.0292134 
        6.06331         0.21276       0.0290189 
        6.07903        0.216099       0.0288266 
        6.09473        0.219637       0.0286361 
        6.11044        0.223458       0.0284473 
        6.12616        0.225853       0.0282601 
        6.14186        0.230031       0.0280748 
        6.15755        0.233043       0.0278912 
        6.17326        0.237464       0.0277091 
        6.18898        0.239932       0.0275286 
        6.20467        0.244785       0.0273499 
        6.22036         0.24735       0.0271729 
         6.2361        0.250683       0.0269969 
         6.2518        0.255434       0.0268228 
        6.26748         0.25714       0.0266506 
        6.28319        0.262049       0.0264795 
        6.29893        0.266261       0.0263097 
        6.31463        0.270419       0.0261417 
        6.33033        0.273254       0.0259751 
        6.34604        0.276458         0.02581 
        6.36177        0.281645       0.0256461 
        6.37747        0.285543       0.0254839 
