# k  (h/Mpc)    Pcb(k)  (Mpc/h)^3    Pcb_linear(k) (Mpc/h)^3   ShotnoiseSubtracted = true
      0.0200456         6565.17         6677.08 
      0.0350414         4752.67         4854.01 
      0.0492313            3516         3526.83 
      0.0637834         2982.94         2931.83 
      0.0800726         2363.31         2326.92 
       0.096163         1664.19         1688.38 
       0.111083         1320.53          1346.7 
       0.126058         1209.76         1193.45 
       0.142273          1041.7         1011.11 
       0.158546         851.056         798.567 
        0.17375         688.966         672.792 
       0.188953         654.625         609.198 
       0.204907         611.628         539.016 
       0.220756         513.646          456.04 
        0.23588         449.526         396.715 
         0.2514          396.29         360.412 
       0.267535         376.736         326.111 
       0.283568         340.731         287.586 
       0.299022         313.924         256.224 
       0.314451         287.981         234.171 
       0.330372         266.866         214.826 
       0.346141         240.278         194.987 
       0.361624         228.554         177.217 
       0.377134          214.49         163.067 
       0.392932         196.563         150.883 
       0.408854         188.569         139.085 
       0.424564         180.682         128.197 
       0.440253         169.995         118.853 
       0.455999          159.99         110.729 
       0.471626         147.913         103.262 
        0.48727         143.583         96.2779 
       0.502856          137.37         90.0035 
       0.518488         133.553         84.4051 
       0.534347         127.544         79.2005 
       0.550082         118.053         74.4017 
       0.565732         113.661         70.0114 
       0.581496         109.156         65.9904 
       0.597222         105.639         62.3028 
       0.612804         100.501         58.9119 
       0.628434         98.2967         55.7513 
       0.644267         94.9836         52.7964 
       0.660051         92.5442          50.073 
       0.675724         89.2282         47.5583 
       0.691403         86.5438         45.2141 
       0.707174         83.4543         43.0148 
       0.722871         81.6248         40.9704 
        0.73838         79.8629         39.0809 
       0.754018         75.9649         37.2962 
       0.769845         74.4804         35.6036 
        0.78569         72.5989         34.0146 
       0.801365         70.2063         32.5384 
       0.817031         68.0707         31.1511 
       0.832809         67.2582         29.8363 
       0.848511         64.3044         28.6037 
       0.864097         62.7695         27.4495 
       0.879701         61.9272         26.3582 
       0.895507         60.8637         25.3137 
       0.911279         59.5401         24.3281 
        0.92691         58.0066         23.4035 
       0.942635         56.0914          22.522 
       0.958396         55.8718         21.6843 
       0.974128         54.3949         20.8908 
       0.989692         53.3473         20.1451 
        1.00528         52.2604         19.4349 
        1.02113         50.8909         18.7478 
        1.03692         49.7495         18.0967 
        1.05264         49.3474         17.4796 
        1.06832         48.0536         16.8924 
        1.08405         47.4694         16.3307 
        1.09979         46.7661         15.7943 
        1.11537         45.0438         15.2874 
        1.13105         45.3325         14.7998 
        1.14679         44.4282         14.3317 
        1.16256         43.4758          13.883 
        1.17828         42.4936         13.4551 
        1.19395          41.963         13.0467 
         1.2097         41.3568         12.6532 
        1.22537         41.0271         12.2779 
          1.241          39.991         11.9191 
        1.25666          39.139         11.5737 
        1.27241         38.8689         11.2404 
        1.28819         37.8207         10.9198 
        1.30392          37.383         10.6126 
        1.31957         37.1426         10.3187 
        1.33529         36.7512         10.0348 
        1.35108          36.145         9.76053 
        1.36674         35.4928          9.4985 
         1.3824          34.692         9.24636 
        1.39811         34.6125         9.00256 
        1.41389          34.082         8.76665 
        1.42964         33.4782         8.53961 
        1.44531         33.1989         8.32174 
        1.46101         32.4064         8.11104 
        1.47667         32.2918         7.90827 
        1.49229         31.9849           7.713 
        1.50793         31.4296         7.52412 
        1.52367         31.1271         7.34036 
        1.53953         30.8678         7.16152 
        1.55526         30.2383         6.99009 
        1.57092         29.9169         6.82498 
        1.58662         29.5317         6.66483 
        1.60235          29.237         6.50953 
        1.61809         28.8306          6.3591 
        1.63369         28.4986         6.21477 
        1.64941         28.0207          6.0739 
        1.66519         27.8496          5.9369 
        1.68085         27.4847         5.80511 
        1.69652         27.1813         5.67729 
        1.71228         26.9648          5.5526 
        1.72806         26.5239         5.43156 
        1.74368         26.1811         5.31536 
        1.75933         25.9069         5.20233 
        1.77505         25.7678         5.09206 
        1.79081         25.3423          4.9848 
         1.8065         25.1544         4.88109 
        1.82218          24.889         4.78043 
        1.83797         24.5286         4.68193 
        1.85367         24.2609         4.58674 
        1.86928         24.0345         4.49479 
        1.88497         23.6562         4.40485 
        1.90073         23.6882         4.31705 
        1.91647         23.2674         4.23172 
        1.93218         23.0824         4.14889 
        1.94787         22.8844          4.0684 
        1.96363         22.7009         3.98972 
        1.97935         22.4441          3.9133 
        1.99499         22.1726          3.8393 
        2.01064         22.0214         3.76712 
         2.0264         21.6364         3.69635 
        2.04216         21.4793         3.62742 
        2.05781         21.2569          3.5607 
        2.07353         21.0624         3.49541 
        2.08928         20.9888         3.43163 
        2.10499         20.6982          3.3696 
        2.12065         20.3614          3.3093 
        2.13633         20.3279         3.25043 
        2.15211         19.9587          3.1926 
        2.16785          19.899         3.13635 
        2.18349         19.7075         3.08181 
        2.19916         19.5037         3.02845 
        2.21489         19.2976         2.97618 
        2.23063         19.1425         2.92511 
         2.2463         18.9737         2.87546 
        2.26194          18.856          2.8271 
        2.27765         18.5767          2.7796 
        2.29341         18.3616         2.73307 
        2.30914         18.2651          2.6877 
        2.32486         18.1438         2.64339 
        2.34061         17.9393             2.6 
        2.35635         17.6873         2.55763 
        2.37203         17.6053         2.51634 
        2.38768         17.4628         2.47606 
        2.40339         17.2535         2.43651 
        2.41914         17.1004         2.39774 
        2.43483          16.955         2.35994 
         2.4505          16.764         2.32303 
        2.46622         16.6411         2.28678 
        2.48195         16.4682          2.2513 
        2.49759         16.3367         2.21676 
        2.51328         16.1869         2.18286 
        2.52906         16.0798         2.14945 
        2.54479          15.924         2.11687 
        2.56049         15.7957         2.08502 
        2.57618         15.6852         2.05386 
        2.59189         15.5251         2.02329 
        2.60758         15.4009         1.99339 
        2.62325          15.291         1.96413 
        2.63898         15.1136         1.93536 
        2.65468         15.0359         1.90722 
        2.67044         14.8527         1.87952 
        2.68618         14.7595         1.85244 
        2.70184         14.6224           1.826 
        2.71755         14.4637         1.80001 
        2.73329         14.3689         1.77448 
        2.74897         14.2178         1.74954 
        2.76462         14.2182         1.72513 
        2.78034         13.9884         1.70108 
        2.79607         13.8658         1.67747 
        2.81179         13.7529         1.65433 
        2.82749         13.6591         1.63165 
        2.84321         13.5073         1.60938 
        2.85893         13.4247         1.58753 
        2.87462         13.3197         1.56612 
        2.89033         13.1468         1.54508 
        2.90605         13.0784         1.52442 
        2.92176         12.9793         1.50414 
        2.93747         12.8849         1.48424 
        2.95318         12.7358          1.4647 
        2.96891         12.6261          1.4455 
        2.98456         12.5553         1.42673 
        3.00023         12.4665         1.40827 
        3.01596         12.3492         1.39007 
        3.03164         12.2589         1.37225 
        3.04738         12.1278         1.35469 
         3.0631         12.0446         1.33744 
        3.07883          11.914         1.32049 
        3.09456         11.8588         1.30384 
        3.11026         11.6918          1.2875 
        3.12596         11.6766         1.27144 
        3.14163         11.5623          1.2557 
        3.15734         11.4519         1.24018 
        3.17308         11.3784         1.22489 
        3.18879         11.3274          1.2099 
        3.20447         11.1771         1.19518 
         3.2202         11.0934         1.18066 
         3.2359         11.0555         1.16641 
        3.25157         10.9541         1.15242 
        3.26729         10.8407         1.13863 
        3.28304         10.7467         1.12503 
        3.29877         10.6504         1.11167 
        3.31446         10.5986         1.09856 
        3.33014         10.4909         1.08567 
        3.34585          10.456         1.07297 
        3.36158         10.3731         1.06045 
        3.37727         10.2653         1.04817 
        3.39294         10.1877          1.0361 
        3.40867         10.0663         1.02417 
        3.42439         10.0162         1.01244 
        3.44008         9.94446         1.00091 
        3.45578         9.86931        0.989558 
        3.47153         9.82751        0.978354 
        3.48724         9.74143        0.967343 
        3.50292         9.64193        0.956528 
        3.51859         9.59324        0.945882 
        3.53431         9.50323        0.935366 
        3.55007         9.43814        0.924984 
        3.56577         9.37765          0.9148 
        3.58146         9.30463        0.904774 
        3.59719         9.21693        0.894875 
        3.61292         9.14732        0.885128 
        3.62859         9.06258        0.875562 
        3.64429         9.02178         0.86612 
        3.66003         8.92899        0.856788 
        3.67578         8.84305        0.847596 
        3.69146         8.81553        0.838574 
        3.70712         8.75193          0.8297 
        3.72284          8.6702        0.820921 
        3.73853         8.60758        0.812285 
        3.75422         8.54938        0.803769 
        3.76993           8.481        0.795369 
        3.78564         8.40395        0.787091 
        3.80137         8.35975        0.778918 
        3.81707         8.27383        0.770878 
        3.83279         8.25099        0.762945 
        3.84853         8.17084        0.755111 
        3.86424         8.08726        0.747402 
        3.87992         8.02218        0.739812 
        3.89561         7.99373        0.732327 
        3.91134         7.92524         0.72493 
        3.92704         7.86815        0.717644 
        3.94273         7.80558        0.710465 
        3.95845         7.76332        0.703372 
        3.97418         7.67543        0.696373 
        3.98988         7.63743         0.68948 
        4.00554         7.56776        0.682698 
        4.02125         7.52013        0.675988 
        4.03698         7.47318        0.669358 
        4.05268         7.41976        0.662831 
        4.06839         7.34843        0.656387 
         4.0841         7.30266        0.650031 
        4.09983         7.27273         0.64375 
        4.11555         7.21587        0.637554 
        4.13124         7.16111        0.631457 
        4.14693         7.08816        0.625434 
        4.16266         7.04012        0.619476 
        4.17839         6.98926        0.613599 
        4.19408          6.9273        0.607811 
        4.20977         6.87851        0.602096 
        4.22551         6.82594         0.59644 
        4.24123         6.77646        0.590863 
        4.25691         6.72467        0.585373 
        4.27259          6.6854         0.57995 
        4.28831         6.63373        0.574585 
        4.30404         6.57704        0.569283 
        4.31974         6.53341        0.564059 
        4.33543         6.48592        0.558904 
        4.35116         6.44298        0.553801 
        4.36688         6.38741        0.548763 
        4.38255         6.33731        0.543807 
        4.39825         6.28849        0.538901 
        4.41398         6.25706        0.534046 
         4.4297         6.23083        0.529256 
        4.44541         6.16139        0.524525 
        4.46111         6.15157        0.519856 
        4.47683         6.06809         0.51524 
        4.49251         6.05839         0.51069 
        4.50819         5.99431        0.506196 
         4.5239         5.94695        0.501749 
        4.53962         5.92516        0.497351 
        4.55535         5.86209        0.493002 
        4.57106         5.82866        0.488712 
        4.58678         5.79285        0.484473 
         4.6025         5.74221        0.480282 
        4.61821         5.70644        0.476142 
        4.63391         5.67381        0.472055 
         4.6496         5.62445        0.468019 
        4.66532         5.60681        0.464023 
        4.68103         5.53939        0.460076 
        4.69673         5.52481        0.456178 
        4.71241         5.47666        0.452329 
        4.72811         5.43419        0.448519 
        4.74384         5.40093        0.444747 
        4.75955         5.35819        0.441025 
        4.77525         5.32742        0.437347 
        4.79096         5.29032        0.433706 
        4.80669         5.25904        0.430106 
         4.8224         5.22711         0.42655 
        4.83809         5.17777        0.423038 
        4.85379         5.13302        0.419563 
         4.8695         5.11618        0.416125 
        4.88521          5.0835        0.412726 
        4.90093         5.03135        0.409366 
        4.91663         5.01172        0.406045 
        4.93234         4.98525        0.402758 
        4.94807         4.93418        0.399505 
        4.96377         4.90498        0.396293 
        4.97943         4.86713        0.393124 
        4.99514         4.83366        0.389982 
        5.01086         4.80242        0.386871 
        5.02654         4.78518        0.383802 
        5.04227         4.74582        0.380758 
          5.058         4.70873        0.377745 
        5.07371         4.68682         0.37477 
        5.08942         4.65312        0.371827 
        5.10513          4.6263        0.368916 
        5.12084         4.59803        0.366034 
        5.13656         4.56674        0.363183 
        5.15225         4.53465        0.360368 
        5.16796         4.50493        0.357577 
        5.18369         4.46831        0.354814 
         5.1994         4.44577        0.352085 
        5.21509         4.41554        0.349388 
        5.23079         4.39144        0.346715 
        5.24649         4.35583        0.344072 
        5.26217         4.33367        0.341459 
        5.27788         4.30152        0.338869 
        5.29359         4.27002        0.336305 
        5.30933         4.24615        0.333765 
        5.32504         4.22418        0.331254 
        5.34073         4.18774        0.328773 
        5.35646         4.16474        0.326311 
        5.37218          4.1363        0.323875 
        5.38789         4.11615        0.321467 
        5.40357         4.08902        0.319086 
        5.41929         4.05771        0.316725 
        5.43502         4.04314        0.314387 
         5.4507         4.00393        0.312078 
        5.46639         3.98502        0.309792 
        5.48212         3.96873        0.307523 
        5.49786           3.943        0.305274 
        5.51353          3.9091        0.303059 
        5.52921         3.88698        0.300864 
        5.54495         3.85444        0.298684 
        5.56066         3.84285        0.296528 
        5.57637         3.81423        0.294394 
        5.59207         3.79273        0.292282 
        5.60778         3.76931        0.290191 
        5.62346         3.73555        0.288122 
        5.63916         3.71857        0.286072 
        5.65487          3.6974        0.284041 
         5.6706          3.6789        0.282027 
        5.68633         3.65331        0.280032 
        5.70203         3.62451         0.27806 
        5.71773         3.61367        0.276108 
        5.73344         3.59013        0.274173 
        5.74916         3.56815        0.272255 
        5.76486          3.5453        0.270358 
        5.78054          3.5211        0.268482 
        5.79626          3.5059        0.266619 
          5.812         3.48691        0.264771 
         5.8277         3.46927        0.262946 
        5.84339          3.4419        0.261139 
        5.85911         3.42421        0.259344 
        5.87484         3.40435        0.257567 
        5.89053          3.3787        0.255811 
        5.90623         3.35858        0.254069 
        5.92195         3.34121        0.252341 
        5.93767         3.32669         0.25063 
        5.95336         3.30855        0.248938 
        5.96905         3.28736        0.247262 
        5.98476         3.26557        0.245599 
        6.00048         3.24221        0.243951 
        6.01617         3.22934         0.24232 
        6.03185         3.20498        0.240705 
        6.04756         3.19163        0.239102 
        6.06331         3.16529         0.23751 
        6.07903         3.15408        0.235936 
        6.09473         3.13593        0.234377 
        6.11044         3.11385        0.232831 
        6.12616         3.09838          0.2313 
        6.14186         3.08568        0.229783 
        6.15755         3.06013         0.22828 
        6.17326          3.0528         0.22679 
        6.18898         3.03002        0.225312 
        6.20467         3.00942         0.22385 
        6.22036         2.98945        0.222401 
         6.2361         2.97975        0.220961 
         6.2518         2.96079        0.219536 
        6.26748         2.94265        0.218126 
        6.28319         2.92661        0.216726 
        6.29893         2.91169        0.215336 
        6.31463         2.89726        0.213961 
        6.33033         2.88654        0.212598 
        6.34604         2.86353        0.211246 
        6.36177         2.84667        0.209905 
        6.37747          2.8319        0.208577 
