# k  (h/Mpc)    Pcb(k)  (Mpc/h)^3    Pcb_linear(k) (Mpc/h)^3   ShotnoiseSubtracted = true
      0.0200456         22038.9         22565.9 
      0.0350414         15641.5         16404.7 
      0.0492313         11660.2         11919.3 
      0.0637834         10100.1         9908.42 
      0.0800726         7968.31         7864.07 
       0.096163          5522.3         5706.06 
       0.111083         4442.45          4551.3 
       0.126058         4090.06         4033.38 
       0.142273         3542.55         3417.16 
       0.158546         3106.78         2698.84 
        0.17375         2486.63         2273.77 
       0.188953         2432.88         2058.85 
       0.204907         2286.36         1821.66 
       0.220756         1983.39         1541.24 
        0.23588         1774.52         1340.74 
         0.2514         1545.85         1218.05 
       0.267535         1547.26         1102.13 
       0.283568          1403.4         971.927 
       0.299022         1328.66         865.937 
       0.314451         1266.95         791.408 
       0.330372         1162.48         726.028 
       0.346141         1115.25         658.981 
       0.361624         1072.19         598.923 
       0.377134         999.079         551.104 
       0.392932         958.999         509.926 
       0.408854         941.966         470.053 
       0.424564         871.129         433.254 
       0.440253         855.961         401.677 
       0.455999         826.797         374.219 
       0.471626         796.847         348.986 
        0.48727         764.319         325.382 
       0.502856          742.95         304.176 
       0.518488         736.108         285.256 
       0.534347         690.432         267.667 
       0.550082         673.757         251.448 
       0.565732         670.507         236.611 
       0.581496         633.877         223.022 
       0.597222         621.727         210.559 
       0.612804         610.703         199.099 
       0.628434         593.645         188.417 
       0.644267         578.489         178.431 
       0.660051         561.673         169.227 
       0.675724         556.246         160.728 
       0.691403         537.957         152.806 
       0.707174         520.629         145.373 
       0.722871         514.559         138.464 
        0.73838         505.111         132.078 
       0.754018         494.314         126.046 
       0.769845         485.568         120.326 
        0.78569         476.758         114.956 
       0.801365         464.921         109.967 
       0.817031         452.394         105.279 
       0.832809         448.865         100.835 
       0.848511         439.099         96.6693 
       0.864097         426.088         92.7686 
       0.879701         420.654         89.0805 
       0.895507         418.185         85.5502 
       0.911279         406.106         82.2196 
        0.92691          400.62         79.0946 
       0.942635         390.864         76.1155 
       0.958396         381.262         73.2843 
       0.974128         375.803         70.6028 
       0.989692         373.468         68.0826 
        1.00528         363.154         65.6822 
        1.02113         361.641         63.3604 
        1.03692         351.031         61.1598 
        1.05264          349.08         59.0743 
        1.06832         339.527         57.0897 
        1.08405         335.295         55.1914 
        1.09979         329.678         53.3786 
        1.11537         323.587         51.6655 
        1.13105         318.338         50.0177 
        1.14679         310.759         48.4356 
        1.16256         305.048         46.9192 
        1.17828         304.336         45.4729 
        1.19395         296.668         44.0927 
         1.2097         292.745         42.7629 
        1.22537          286.67         41.4946 
          1.241         284.423         40.2818 
        1.25666         279.334         39.1146 
        1.27241         275.445         37.9883 
        1.28819          271.22         36.9046 
        1.30392         265.025         35.8665 
        1.31957         264.685          34.873 
        1.33529         259.402         33.9137 
        1.35108         253.823         32.9868 
        1.36674         250.365         32.1012 
         1.3824         249.063         31.2491 
        1.39811         244.797         30.4251 
        1.41389         241.855         29.6278 
        1.42964         239.187         28.8605 
        1.44531         235.442         28.1242 
        1.46101         231.519         27.4121 
        1.47667         228.694         26.7268 
        1.49229         226.357         26.0669 
        1.50793         220.803         25.4286 
        1.52367         219.534         24.8075 
        1.53953         216.235         24.2031 
        1.55526         211.679         23.6237 
        1.57092         210.357         23.0658 
        1.58662         207.887         22.5245 
        1.60235         204.129         21.9996 
        1.61809         202.302         21.4913 
        1.63369          199.12         21.0035 
        1.64941         195.226         20.5274 
        1.66519         194.046         20.0644 
        1.68085         191.208          19.619 
        1.69652         188.379          19.187 
        1.71228         184.321         18.7656 
        1.72806         182.796         18.3566 
        1.74368         180.158         17.9638 
        1.75933          177.13         17.5818 
        1.77505           176.1         17.2091 
        1.79081         174.252         16.8467 
         1.8065         171.084         16.4962 
        1.82218         169.279          16.156 
        1.83797         167.741         15.8231 
        1.85367         164.964         15.5014 
        1.86928         162.193         15.1906 
        1.88497         160.343         14.8867 
        1.90073         158.826         14.5899 
        1.91647         157.078         14.3016 
        1.93218         155.199         14.0216 
        1.94787             152         13.7496 
        1.96363         149.968         13.4837 
        1.97935         149.294         13.2254 
        1.99499         146.587         12.9753 
        2.01064         145.119         12.7314 
         2.0264         143.463         12.4922 
        2.04216         141.576         12.2593 
        2.05781         140.131         12.0338 
        2.07353         138.585         11.8131 
        2.08928         136.105         11.5975 
        2.10499         134.934         11.3879 
        2.12065         132.561         11.1841 
        2.13633         131.678         10.9852 
        2.15211         129.146         10.7897 
        2.16785         127.896         10.5996 
        2.18349         126.824         10.4153 
        2.19916         125.086          10.235 
        2.21489         123.843         10.0583 
        2.23063         121.586         9.88571 
         2.2463         120.444         9.71794 
        2.26194          118.53         9.55448 
        2.27765         117.563         9.39395 
        2.29341         116.121         9.23669 
        2.30914         115.117         9.08336 
        2.32486         113.335         8.93361 
        2.34061         112.145         8.78698 
        2.35635         110.851         8.64377 
        2.37203         109.518         8.50426 
        2.38768         108.098         8.36811 
        2.40339         107.032         8.23446 
        2.41914         105.536         8.10341 
        2.43483         104.545         7.97569 
         2.4505         103.426         7.85093 
        2.46622         102.304         7.72841 
        2.48195          100.87          7.6085 
        2.49759         99.4861         7.49178 
        2.51328         99.0939          7.3772 
        2.52906         97.4465          7.2643 
        2.54479         96.5455         7.15418 
        2.56049         95.4157         7.04656 
        2.57618         94.2867         6.94125 
        2.59189         93.3069         6.83793 
        2.60758         92.2826         6.73688 
        2.62325         91.1126         6.63799 
        2.63898         89.9019         6.54075 
        2.65468         88.9776         6.44566 
        2.67044         88.2696         6.35205 
        2.68618          87.139         6.26052 
        2.70184         86.7081         6.17116 
        2.71755         85.2511         6.08332 
        2.73329         84.5515         5.99706 
        2.74897         83.6374         5.91275 
        2.76462          82.421         5.83025 
        2.78034         81.8896         5.74898 
        2.79607         80.3987         5.66918 
        2.81179         79.6802         5.59098 
        2.82749         78.8563         5.51435 
        2.84321         78.2505         5.43907 
        2.85893         77.3602         5.36522 
        2.87462         76.3765         5.29286 
        2.89033         75.4203         5.22177 
        2.90605         74.6702         5.15193 
        2.92176         73.8219          5.0834 
        2.93747         73.3984         5.01615 
        2.95318         72.2997         4.95011 
        2.96891         71.8715         4.88522 
        2.98456         71.1195         4.82179 
        3.00023         70.1387         4.75938 
        3.01596         69.4456         4.69789 
        3.03164         68.6193         4.63766 
        3.04738         67.9522         4.57832 
         3.0631         67.2292         4.52002 
        3.07883         66.7434         4.46275 
        3.09456         66.0416         4.40647 
        3.11026         65.1849         4.35125 
        3.12596         64.4872         4.29698 
        3.14163         63.9798         4.24377 
        3.15734         63.1756         4.19133 
        3.17308         62.4413         4.13965 
        3.18879         62.0783         4.08898 
        3.20447         61.1852         4.03924 
         3.2202         60.8384         3.99017 
         3.2359          60.013           3.942 
        3.25157         59.4209         3.89474 
        3.26729         59.0081         3.84811 
        3.28304         58.5797         3.80216 
        3.29877          57.841         3.75701 
        3.31446         56.9023          3.7127 
        3.33014         56.7017         3.66914 
        3.34585         55.9237         3.62621 
        3.36158          55.513          3.5839 
        3.37727         55.0184          3.5424 
        3.39294          54.388          3.5016 
        3.40867         53.8746         3.46129 
        3.42439         53.4359         3.42164 
        3.44008         52.8606         3.38269 
        3.45578         52.2441         3.34432 
        3.47153         51.8057         3.30645 
        3.48724         51.2635         3.26924 
        3.50292          50.993         3.23269 
        3.51859         50.3277         3.19671 
        3.53431          50.012         3.16117 
        3.55007         49.3559         3.12608 
        3.56577         49.0835         3.09167 
        3.58146         48.4621         3.05778 
        3.59719         48.0348         3.02433 
        3.61292         47.5263         2.99139 
        3.62859         47.1073         2.95906 
        3.64429         46.6577         2.92714 
        3.66003         46.3273         2.89561 
        3.67578          45.741         2.86454 
        3.69146         45.4395         2.83405 
        3.70712         44.8764         2.80406 
        3.72284         44.4707         2.77439 
        3.73853         44.0969          2.7452 
        3.75422         43.5342         2.71642 
        3.76993         43.2393         2.68803 
        3.78564         42.8175         2.66006 
        3.80137         42.4627         2.63244 
        3.81707         42.0677         2.60527 
        3.83279         41.7261         2.57845 
        3.84853         41.3781         2.55198 
        3.86424         40.9282         2.52593 
        3.87992         40.6761         2.50027 
        3.89561         40.2898         2.47498 
        3.91134         39.8037         2.44998 
        3.92704          39.554         2.42536 
        3.94273         39.1531         2.40109 
        3.95845         38.9877         2.37712 
        3.97418         38.5597         2.35347 
        3.98988         38.2115         2.33017 
        4.00554          37.845         2.30725 
        4.02125         37.6027         2.28457 
        4.03698         37.1821         2.26217 
        4.05268         36.9169         2.24011 
        4.06839         36.5616         2.21833 
         4.0841         36.1694         2.19685 
        4.09983           35.89         2.17562 
        4.11555         35.6089         2.15468 
        4.13124         35.3343         2.13408 
        4.14693         34.9804         2.11372 
        4.16266         34.6995         2.09358 
        4.17839          34.309         2.07372 
        4.19408         34.0416         2.05416 
        4.20977         33.7134         2.03485 
        4.22551         33.4163         2.01573 
        4.24123         33.2354         1.99689 
        4.25691         32.9516         1.97833 
        4.27259         32.6439            1.96 
        4.28831         32.3211         1.94187 
        4.30404         32.1472         1.92395 
        4.31974         31.7719          1.9063 
        4.33543          31.479         1.88888 
        4.35116         31.3229         1.87163 
        4.36688         31.0462          1.8546 
        4.38255         30.7394         1.83785 
        4.39825         30.4841         1.82127 
        4.41398         30.3182         1.80487 
         4.4297         29.9218         1.78868 
        4.44541         29.7374         1.77269 
        4.46111         29.4586         1.75691 
        4.47683         29.2635         1.74131 
        4.49251         28.9562         1.72593 
        4.50819         28.8259         1.71074 
         4.5239         28.5577         1.69572 
        4.53962         28.3257         1.68085 
        4.55535         28.1443         1.66615 
        4.57106         27.8241         1.65166 
        4.58678         27.6471         1.63733 
         4.6025         27.3207         1.62316 
        4.61821         27.1806         1.60917 
        4.63391         26.9479         1.59536 
         4.6496         26.7402         1.58172 
        4.66532         26.5166         1.56822 
        4.68103         26.2959         1.55488 
        4.69673         26.0978          1.5417 
        4.71241          25.958          1.5287 
        4.72811         25.6493         1.51582 
        4.74384         25.5018         1.50307 
        4.75955         25.3232         1.49049 
        4.77525         25.0464         1.47806 
        4.79096         24.9208         1.46576 
        4.80669         24.6801         1.45359 
         4.8224         24.5428         1.44157 
        4.83809          24.321          1.4297 
        4.85379         24.0672         1.41796 
         4.8695          23.944         1.40634 
        4.88521         23.7243         1.39485 
        4.90093         23.5085         1.38349 
        4.91663         23.3511         1.37227 
        4.93234         23.2168         1.36116 
        4.94807         22.9564         1.35017 
        4.96377         22.8145         1.33932 
        4.97943         22.6557         1.32861 
        4.99514         22.4872         1.31799 
        5.01086         22.3418         1.30747 
        5.02654         22.1038          1.2971 
        5.04227         22.0086         1.28681 
          5.058         21.8127         1.27663 
        5.07371         21.6347         1.26658 
        5.08942         21.3996         1.25663 
        5.10513         21.3221         1.24679 
        5.12084         21.1533         1.23705 
        5.13656         20.9525         1.22742 
        5.15225         20.8019          1.2179 
        5.16796         20.6755         1.20847 
        5.18369         20.4765         1.19913 
         5.1994         20.3758         1.18991 
        5.21509         20.1567         1.18079 
        5.23079         20.0736         1.17176 
        5.24649         19.8888         1.16283 
        5.26217         19.8003           1.154 
        5.27788         19.6125         1.14524 
        5.29359         19.4483         1.13658 
        5.30933         19.2601         1.12799 
        5.32504         19.1653         1.11951 
        5.34073         19.0223         1.11112 
        5.35646         18.8725          1.1028 
        5.37218         18.7353         1.09457 
        5.38789         18.6094         1.08643 
        5.40357          18.468         1.07839 
        5.41929         18.3345         1.07041 
        5.43502          18.195          1.0625 
         5.4507         18.0815          1.0547 
        5.46639         17.9254         1.04697 
        5.48212         17.8244         1.03931 
        5.49786         17.6319         1.03171 
        5.51353         17.5349         1.02422 
        5.52921         17.4294          1.0168 
        5.54495         17.3027         1.00944 
        5.56066         17.1756         1.00215 
        5.57637         17.0304        0.994936 
        5.59207         16.9049        0.987799 
        5.60778         16.7846        0.980731 
        5.62346         16.7104        0.973741 
        5.63916         16.5828        0.966812 
        5.65487         16.4399        0.959947 
         5.6706         16.3357        0.953141 
        5.68633          16.214        0.946398 
        5.70203         16.1036        0.939735 
        5.71773         15.9907        0.933136 
        5.73344         15.8538        0.926598 
        5.74916           15.77        0.920116 
        5.76486         15.6768        0.913705 
        5.78054          15.558        0.907364 
        5.79626          15.443        0.901066 
          5.812          15.344        0.894822 
         5.8277         15.2343        0.888655 
        5.84339         15.0982        0.882546 
        5.85911          14.995        0.876482 
        5.87484         14.8787        0.870477 
        5.89053         14.8054         0.86454 
        5.90623         14.7049        0.858655 
        5.92195         14.5912        0.852815 
        5.93767         14.4878        0.847032 
        5.95336         14.3709        0.841313 
        5.96905         14.3064        0.835648 
        5.98476         14.1779        0.830028 
        6.00048         14.0862        0.824457 
        6.01617         13.9982        0.818945 
        6.03185         13.9046         0.81349 
        6.04756         13.7905        0.808071 
        6.06331         13.7126        0.802691 
        6.07903         13.6238         0.79737 
        6.09473         13.5031        0.792103 
        6.11044         13.4416        0.786878 
        6.12616         13.3375        0.781702 
        6.14186         13.2425        0.776577 
        6.15755         13.1401        0.771498 
        6.17326         13.0762        0.766461 
        6.18898         12.9935        0.761466 
        6.20467         12.9074        0.756525 
        6.22036         12.7939        0.751628 
         6.2361         12.7188        0.746761 
         6.2518         12.6385        0.741945 
        6.26748         12.5671        0.737182 
        6.28319         12.4917        0.732447 
        6.29893         12.3795        0.727751 
        6.31463         12.2952        0.723103 
        6.33033         12.2173        0.718497 
        6.34604         12.1698        0.713928 
        6.36177          12.058        0.709395 
        6.37747         11.9856        0.704909 
