# k  (h/Mpc)    Pcb(k)  (Mpc/h)^3    Pcb_linear(k) (Mpc/h)^3   ShotnoiseSubtracted = true
      0.0200456         7412.87         7542.23 
      0.0350414         5358.64         5482.94 
      0.0492313         3967.42          3983.8 
      0.0637834         3371.33          3311.7 
      0.0800726         2670.49         2628.41 
       0.096163         1877.32         1907.14 
       0.111083         1490.16         1521.19 
       0.126058         1367.18         1348.08 
       0.142273          1178.2         1142.12 
       0.158546         966.908         902.036 
        0.17375         781.114         759.965 
       0.188953         744.771         688.131 
       0.204907          696.84         608.856 
       0.220756         586.488         515.129 
        0.23588         513.779         448.117 
         0.2514          452.02          407.11 
       0.267535         431.918         368.365 
       0.283568         390.967         324.848 
       0.299022         361.132         289.423 
       0.314451         332.978         264.513 
       0.330372         308.226         242.661 
       0.346141         277.577         220.252 
       0.361624         264.912         200.179 
       0.377134          248.19         184.196 
       0.392932         229.092         170.433 
       0.408854         219.665         157.106 
       0.424564         210.415         144.807 
       0.440253         199.009         134.253 
       0.455999         187.278         125.076 
       0.471626         173.229         116.642 
        0.48727         168.267         108.753 
       0.502856         161.426         101.665 
       0.518488         157.603         95.3414 
       0.534347         150.053         89.4625 
       0.550082         139.249         84.0418 
       0.565732         134.763         79.0827 
       0.581496         129.041         74.5408 
       0.597222         125.009         70.3753 
       0.612804         119.286          66.545 
       0.628434         116.579         62.9749 
       0.644267          112.58         59.6372 
       0.660051         110.202         56.5609 
       0.675724         106.661         53.7203 
       0.691403         103.421         51.0725 
       0.707174         99.4438         48.5881 
       0.722871         97.7928          46.279 
        0.73838         95.7727         44.1445 
       0.754018         91.2677         42.1286 
       0.769845         89.5213         40.2167 
        0.78569         87.3427         38.4218 
       0.801365          84.645         36.7543 
       0.817031         81.8088         35.1874 
       0.832809         80.8889         33.7022 
       0.848511         77.8005         32.3099 
       0.864097         75.8097         31.0061 
       0.879701         74.8589         29.7734 
       0.895507         73.3918         28.5935 
       0.911279         72.0699         27.4803 
        0.92691         70.2572         26.4359 
       0.942635         68.1167         25.4402 
       0.958396          67.856         24.4939 
       0.974128         66.0944         23.5977 
       0.989692         64.6561         22.7553 
        1.00528         63.3763          21.953 
        1.02113         62.0295          21.177 
        1.03692         60.3975         20.4415 
        1.05264         60.1078         19.7445 
        1.06832         58.5042         19.0812 
        1.08405         57.8188         18.4467 
        1.09979         57.1702         17.8408 
        1.11537         54.9973         17.2682 
        1.13105         55.4213         16.7175 
        1.14679          54.207         16.1887 
        1.16256         53.2708         15.6818 
        1.17828         51.9332         15.1985 
        1.19395         51.4784         14.7371 
         1.2097         50.4497         14.2927 
        1.22537         50.3097         13.8688 
          1.241         48.9861         13.4634 
        1.25666         48.0415         13.0733 
        1.27241         47.6768         12.6969 
        1.28819         46.5267         12.3347 
        1.30392         45.8982         11.9877 
        1.31957         45.5709         11.6556 
        1.33529         44.9555          11.335 
        1.35108          44.499         11.0252 
        1.36674         43.7555         10.7292 
         1.3824         42.6834         10.4444 
        1.39811         42.5773          10.169 
        1.41389         41.9074         9.90254 
        1.42964          41.223         9.64608 
        1.44531         40.7599         9.39999 
        1.46101          39.884         9.16198 
        1.47667         39.8329         8.93294 
        1.49229         39.4069         8.71237 
        1.50793         38.6735         8.49901 
        1.52367         38.2277         8.29144 
        1.53953         37.9867         8.08944 
        1.55526          37.264         7.89579 
        1.57092         36.9119         7.70929 
        1.58662         36.4324         7.52839 
        1.60235         36.0685         7.35296 
        1.61809         35.4797         7.18304 
        1.63369          35.037         7.02002 
        1.64941         34.5284          6.8609 
        1.66519          34.197         6.70614 
        1.68085         33.8896         6.55728 
        1.69652         33.4708         6.41289 
        1.71228         33.2433         6.27205 
        1.72806         32.6993         6.13533 
        1.74368          32.255         6.00406 
        1.75933         31.9095         5.87639 
        1.77505           31.76         5.75183 
        1.79081         31.2093         5.63067 
         1.8065         30.8911         5.51353 
        1.82218         30.6505         5.39983 
        1.83797         30.2234         5.28856 
        1.85367         29.8285         5.18105 
        1.86928         29.6199         5.07717 
        1.88497         29.1709         4.97558 
        1.90073         29.0958         4.87641 
        1.91647         28.6483         4.78003 
        1.93218         28.4165         4.68646 
        1.94787         28.0757         4.59553 
        1.96363         27.8978         4.50667 
        1.97935         27.5511         4.42034 
        1.99499         27.2273         4.33676 
        2.01064         27.0636         4.25523 
         2.0264         26.5745         4.17528 
        2.04216         26.3268         4.09743 
        2.05781         26.0785         4.02205 
        2.07353         25.8412         3.94831 
        2.08928         25.8089         3.87626 
        2.10499         25.5022          3.8062 
        2.12065         25.0418         3.73809 
        2.13633         24.9635         3.67158 
        2.15211         24.4739         3.60627 
        2.16785         24.3558         3.54272 
        2.18349           24.16         3.48111 
        2.19916         23.9469         3.42084 
        2.21489         23.6219          3.3618 
        2.23063         23.4635         3.30411 
         2.2463          23.303         3.24803 
        2.26194         23.1094          3.1934 
        2.27765         22.7795         3.13975 
        2.29341         22.5183         3.08719 
        2.30914         22.4328         3.03594 
        2.32486         22.1807         2.98589 
        2.34061         21.9772         2.93688 
        2.35635         21.6788         2.88902 
        2.37203         21.5464         2.84239 
        2.38768         21.3287         2.79688 
        2.40339         21.1931         2.75221 
        2.41914         20.9522         2.70841 
        2.43483         20.7255         2.66572 
         2.4505          20.522         2.62402 
        2.46622         20.3241         2.58307 
        2.48195          20.146           2.543 
        2.49759         19.9117         2.50398 
        2.51328          19.752         2.46569 
        2.52906         19.6341         2.42795 
        2.54479         19.3921         2.39115 
        2.56049         19.1861         2.35518 
        2.57618         19.0381         2.31998 
        2.59189         18.9359         2.28545 
        2.60758         18.7566         2.25167 
        2.62325         18.5853         2.21862 
        2.63898         18.4615         2.18612 
        2.65468         18.2701         2.15434 
        2.67044         18.0791         2.12305 
        2.68618         17.9281         2.09246 
        2.70184         17.8043         2.06259 
        2.71755         17.6025         2.03323 
        2.73329         17.4601          2.0044 
        2.74897         17.2397         1.97622 
        2.76462         17.3068         1.94865 
        2.78034         17.0159         1.92149 
        2.79607         16.8704         1.89482 
        2.81179         16.7532         1.86868 
        2.82749         16.5947         1.84307 
        2.84321         16.4709          1.8179 
        2.85893         16.3117         1.79322 
        2.87462         16.1503         1.76904 
        2.89033         15.9973         1.74528 
        2.90605         15.9367         1.72193 
        2.92176         15.6917         1.69903 
        2.93747         15.6387         1.67655 
        2.95318         15.4507         1.65448 
        2.96891         15.3215         1.63279 
        2.98456           15.22         1.61159 
        3.00023         15.0761         1.59073 
        3.01596         14.9845         1.57018 
        3.03164         14.8485         1.55005 
        3.04738         14.6647         1.53021 
         3.0631         14.5632         1.51073 
        3.07883         14.4228         1.49159 
        3.09456         14.3362         1.47278 
        3.11026         14.1917         1.45432 
        3.12596         14.0639         1.43619 
        3.14163         13.9903          1.4184 
        3.15734         13.8305         1.40087 
        3.17308         13.7167          1.3836 
        3.18879          13.635         1.36666 
        3.20447         13.4988         1.35004 
         3.2202         13.3757         1.33364 
         3.2359         13.3063         1.31754 
        3.25157         13.1945         1.30174 
        3.26729         13.0485         1.28616 
        3.28304         12.9563          1.2708 
        3.29877          12.831         1.25571 
        3.31446         12.7303          1.2409 
        3.33014         12.6142         1.22634 
        3.34585         12.5261         1.21199 
        3.36158         12.4654         1.19785 
        3.37727         12.3008         1.18398 
        3.39294          12.227         1.17034 
        3.40867         12.1188         1.15687 
        3.42439         12.0177         1.14362 
        3.44008         11.9524          1.1306 
        3.45578         11.8475         1.11777 
        3.47153         11.7696         1.10512 
        3.48724         11.6597         1.09268 
        3.50292         11.5349         1.08046 
        3.51859         11.4862         1.06844 
        3.53431         11.3857         1.05656 
        3.55007         11.3039         1.04483 
        3.56577         11.2148         1.03333 
        3.58146         11.1489         1.02201 
        3.59719         11.0114         1.01082 
        3.61292         10.9281        0.999813 
        3.62859         10.8212        0.989008 
        3.64429          10.778        0.978342 
        3.66003         10.6505        0.967801 
        3.67578          10.581        0.957419 
        3.69146         10.5085        0.947228 
        3.70712         10.4222        0.937204 
        3.72284         10.3473        0.927288 
        3.73853         10.2498        0.917532 
        3.75422         10.2187        0.907913 
        3.76993         10.1201        0.898424 
        3.78564         10.0141        0.889074 
        3.80137         9.95661        0.879842 
        3.81707         9.85462         0.87076 
        3.83279         9.79325        0.861799 
        3.84853         9.70095         0.85295 
        3.86424         9.63034        0.844242 
        3.87992         9.53907        0.835669 
        3.89561         9.49283        0.827214 
        3.91134         9.43072        0.818859 
        3.92704         9.33273        0.810629 
        3.94273         9.28891         0.80252 
        3.95845         9.21696        0.794507 
        3.97418         9.11599        0.786602 
        3.98988         9.05213        0.778815 
        4.00554         8.99968        0.771154 
        4.02125         8.92628        0.763575 
        4.03698         8.86301        0.756086 
        4.05268         8.80328        0.748714 
        4.06839             8.7        0.741435 
         4.0841         8.66853        0.734255 
        4.09983         8.59218         0.72716 
        4.11555         8.52243        0.720161 
        4.13124         8.46368        0.713274 
        4.14693          8.3811        0.706471 
        4.16266         8.32706        0.699741 
        4.17839         8.26963        0.693102 
        4.19408         8.21082        0.686565 
        4.20977         8.14995        0.680109 
        4.22551         8.07971        0.673721 
        4.24123         8.02026        0.667421 
        4.25691         7.94111        0.661219 
        4.27259         7.89029        0.655094 
        4.28831         7.82583        0.649034 
        4.30404         7.79024        0.643045 
        4.31974         7.71617        0.637144 
        4.33543         7.65457        0.631321 
        4.35116         7.59748        0.625556 
        4.36688         7.54131        0.619866 
        4.38255         7.48451        0.614267 
        4.39825         7.40661        0.608726 
        4.41398         7.38944        0.603242 
         4.4297         7.32776        0.597831 
        4.44541         7.26562        0.592488 
        4.46111         7.21446        0.587214 
        4.47683         7.15993           0.582 
        4.49251         7.11995         0.57686 
        4.50819         7.05541        0.571783 
         4.5239         7.00913        0.566761 
        4.53962         6.96497        0.561792 
        4.55535         6.90294         0.55688 
        4.57106         6.85758        0.552035 
        4.58678         6.80495        0.547245 
         4.6025         6.75216        0.542512 
        4.61821         6.69281        0.537835 
        4.63391         6.66649        0.533219 
         4.6496         6.60343         0.52866 
        4.66532         6.58487        0.524146 
        4.68103         6.48922        0.519687 
        4.69673          6.4672        0.515285 
        4.71241         6.42553        0.510937 
        4.72811         6.35867        0.506633 
        4.74384         6.31961        0.502373 
        4.75955         6.26048        0.498168 
        4.77525         6.25014        0.494013 
        4.79096         6.18026        0.489901 
        4.80669         6.16169        0.485834 
         4.8224           6.111        0.481817 
        4.83809         6.06333         0.47785 
        4.85379         6.00259        0.473926 
         4.8695         5.97768        0.470042 
        4.88521           5.936        0.466203 
        4.90093         5.87779        0.462407 
        4.91663         5.85908        0.458656 
        4.93234         5.81564        0.454943 
        4.94807         5.77683        0.451268 
        4.96377         5.73039        0.447641 
        4.97943         5.68001        0.444061 
        4.99514         5.63998        0.440511 
        5.01086         5.61556        0.436998 
        5.02654         5.57322        0.433531 
        5.04227         5.52778        0.430092 
          5.058         5.49957        0.426689 
        5.07371         5.45869        0.423329 
        5.08942         5.41585        0.420005 
        5.10513          5.3867        0.416716 
        5.12084         5.35482         0.41346 
        5.13656         5.32098         0.41024 
        5.15225         5.29301         0.40706 
        5.16796         5.24904        0.403908 
        5.18369         5.20544        0.400787 
         5.1994         5.17552        0.397705 
        5.21509         5.13984        0.394657 
        5.23079         5.10798        0.391638 
        5.24649         5.07168        0.388653 
        5.26217         5.04095        0.385701 
        5.27788         4.99761        0.382776 
        5.29359         4.96669         0.37988 
        5.30933         4.94433         0.37701 
        5.32504         4.89806        0.374175 
        5.34073         4.87106        0.371371 
        5.35646         4.82883        0.368591 
        5.37218         4.80231        0.365839 
        5.38789          4.7713        0.363119 
        5.40357         4.73255         0.36043 
        5.41929         4.70835        0.357762 
        5.43502         4.68145        0.355121 
         5.4507         4.64846        0.352513 
        5.46639         4.60946        0.349931 
        5.48212          4.5823        0.347368 
        5.49786         4.55387        0.344829 
        5.51353          4.5255        0.342327 
        5.52921         4.49368        0.339847 
        5.54495         4.47441        0.337385 
        5.56066         4.44021        0.334949 
        5.57637         4.40888        0.332538 
        5.59207         4.37917        0.330153 
        5.60778         4.35877         0.32779 
        5.62346         4.32669        0.325454 
        5.63916           4.301        0.323138 
        5.65487         4.26232        0.320844 
         5.6706          4.2402        0.318569 
        5.68633         4.21476        0.316316 
        5.70203         4.18872        0.314088 
        5.71773         4.16672        0.311883 
        5.73344         4.14195        0.309698 
        5.74916         4.11311        0.307531 
        5.76486         4.08911        0.305388 
        5.78054           4.064        0.303269 
        5.79626         4.03278        0.301164 
          5.812         4.01598        0.299077 
         5.8277         3.98784        0.297016 
        5.84339         3.95805        0.294974 
        5.85911         3.94049        0.292947 
        5.87484         3.91722         0.29094 
        5.89053         3.89564        0.288956 
        5.90623           3.864        0.286989 
        5.92195         3.83836        0.285037 
        5.93767         3.82896        0.283104 
        5.95336         3.80102        0.281193 
        5.96905         3.76324        0.279299 
        5.98476         3.74898        0.277421 
        6.00048         3.71968        0.275559 
        6.01617         3.70688        0.273717 
        6.03185         3.68062        0.271893 
        6.04756         3.67047        0.270082 
        6.06331           3.632        0.268284 
        6.07903         3.61075        0.266506 
        6.09473         3.59589        0.264745 
        6.11044         3.56951        0.262999 
        6.12616         3.56027        0.261269 
        6.14186         3.53541        0.259556 
        6.15755          3.5125        0.257858 
        6.17326         3.48981        0.256175 
        6.18898         3.47049        0.254506 
        6.20467         3.44911        0.252854 
        6.22036          3.4294        0.251217 
         6.2361         3.40227        0.249591 
         6.2518         3.39366        0.247981 
        6.26748         3.36765        0.246389 
        6.28319         3.34638        0.244807 
        6.29893         3.33049        0.243237 
        6.31463         3.30324        0.241683 
        6.33033          3.3004        0.240144 
        6.34604         3.26843        0.238617 
        6.36177         3.25255        0.237102 
        6.37747         3.22956        0.235602 
