# k  (h/Mpc)    Pcb(k)  (Mpc/h)^3    Pcb_linear(k) (Mpc/h)^3   ShotnoiseSubtracted = true
      0.0200456         7995.79         8137.52 
      0.0350414         5774.56          5915.7 
      0.0492313         4277.47         4298.23 
      0.0637834         3638.61         3573.08 
      0.0800726         2881.78         2835.87 
       0.096163          2023.7         2057.67 
       0.111083         1606.79         1641.25 
       0.126058         1475.48         1454.48 
       0.142273         1272.13         1232.27 
       0.158546          1047.2         973.232 
        0.17375         844.886         819.947 
       0.188953          807.34         742.443 
       0.204907          755.98         656.911 
       0.220756         637.241         555.786 
        0.23588         558.631         483.486 
         0.2514         490.839         439.242 
       0.267535          470.58         397.439 
       0.283568         426.137         350.488 
       0.299022         394.263         312.266 
       0.314451          364.74          285.39 
       0.330372         337.383         261.814 
       0.346141         304.006         237.636 
       0.361624         290.684         215.978 
       0.377134         272.007         198.734 
       0.392932         252.263         183.885 
       0.408854         241.831         169.506 
       0.424564         231.497         156.236 
       0.440253         219.729         144.849 
       0.455999         206.765         134.948 
       0.471626         191.393         125.848 
        0.48727          185.94         117.336 
       0.502856          178.67         109.689 
       0.518488         174.899         102.866 
       0.534347         166.166         96.5235 
       0.550082         154.492         90.6751 
       0.565732         149.999         85.3245 
       0.581496         143.373         80.4241 
       0.597222         139.021         75.9299 
       0.612804         132.893         71.7973 
       0.628434         129.715         67.9454 
       0.644267         125.256         64.3442 
       0.660051         122.953         61.0251 
       0.675724          119.26         57.9604 
       0.691403         115.619         55.1035 
       0.707174         110.996         52.4231 
       0.722871         109.474         49.9316 
        0.73838         107.231         47.6288 
       0.754018         102.425         45.4537 
       0.769845         100.412         43.3909 
        0.78569         98.0458         41.4543 
       0.801365         95.1479         39.6553 
       0.817031         91.8429         37.9646 
       0.832809         90.7778         36.3623 
       0.848511         87.6431           34.86 
       0.864097          85.363         33.4534 
       0.879701         84.2751         32.1234 
       0.895507         82.4847         30.8504 
       0.911279         81.1454         29.6493 
        0.92691         79.2113         28.5224 
       0.942635         76.9305         27.4481 
       0.958396         76.6223         26.4271 
       0.974128         74.6139         25.4602 
       0.989692         72.8966         24.5513 
        1.00528         71.4511         23.6857 
        1.02113         70.1956         22.8484 
        1.03692          68.137         22.0549 
        1.05264         67.9292         21.3029 
        1.06832         66.0861         20.5872 
        1.08405          65.303         19.9026 
        1.09979         64.7062         19.2489 
        1.11537         62.2721         18.6312 
        1.13105         62.7049         18.0369 
        1.14679          61.345         17.4664 
        1.16256         60.3762         16.9196 
        1.17828         58.8047          16.398 
        1.19395         58.3616         15.9003 
         1.2097         57.0184         15.4208 
        1.22537         57.0102         14.9634 
          1.241         55.5076         14.5261 
        1.25666         54.4661         14.1051 
        1.27241         54.0143          13.699 
        1.28819         52.8374         13.3082 
        1.30392         52.1005         12.9338 
        1.31957         51.6741         12.5756 
        1.33529         50.8622         12.2297 
        1.35108         50.5157         11.8954 
        1.36674         49.7239          11.576 
         1.3824         48.5038         11.2688 
        1.39811         48.3298         10.9716 
        1.41389         47.5532         10.6841 
        1.42964         46.8567         10.4074 
        1.44531         46.2205         10.1419 
        1.46101         45.3352         9.88511 
        1.47667          45.281         9.63799 
        1.49229         44.7353         9.40001 
        1.50793         43.9632         9.16982 
        1.52367         43.3592         8.94587 
        1.53953         43.0808         8.72792 
        1.55526         42.3578         8.51898 
        1.57092         41.9831         8.31777 
        1.58662         41.4434         8.12259 
        1.60235         40.9982         7.93331 
        1.61809         40.3213         7.74998 
        1.63369         39.7709         7.57409 
        1.64941         39.2433         7.40241 
        1.66519         38.7808         7.23544 
        1.68085         38.4902         7.07483 
        1.69652         37.9652         6.91905 
        1.71228         37.7471         6.76708 
        1.72806         37.1921         6.61958 
        1.74368         36.6498         6.47795 
        1.75933         36.2667          6.3402 
        1.77505         36.0465         6.20581 
        1.79081         35.4491         6.07509 
         1.8065          35.075          5.9487 
        1.82218         34.7778         5.82602 
        1.83797         34.2882         5.70597 
        1.85367         33.8184         5.58997 
        1.86928         33.6241          5.4779 
        1.88497         33.1844          5.3683 
        1.90073         32.9581         5.26129 
        1.91647         32.5314          5.1573 
        1.93218          32.238         5.05635 
        1.94787         31.8255         4.95825 
        1.96363          31.602         4.86237 
        1.97935          31.202         4.76923 
        1.99499         30.8449         4.67905 
        2.01064         30.6429         4.59108 
         2.0264         30.1383         4.50482 
        2.04216         29.8015         4.42083 
        2.05781         29.5001         4.33951 
        2.07353         29.2519         4.25994 
        2.08928         29.2116          4.1822 
        2.10499          28.846         4.10662 
        2.12065         28.3683         4.03312 
        2.13633         28.2647         3.96137 
        2.15211         27.7193          3.8909 
        2.16785         27.4936         3.82234 
        2.18349         27.3323         3.75587 
        2.19916         27.0983         3.69084 
        2.21489          26.689         3.62714 
        2.23063         26.5129         3.56489 
         2.2463         26.3218         3.50439 
        2.26194         26.0787         3.44545 
        2.27765         25.7735         3.38756 
        2.29341         25.4916         3.33085 
        2.30914         25.3637         3.27556 
        2.32486         25.0072         3.22156 
        2.34061         24.8398         3.16868 
        2.35635         24.5381         3.11704 
        2.37203         24.3614         3.06673 
        2.38768         24.0728         3.01763 
        2.40339         23.9824         2.96944 
        2.41914          23.681         2.92218 
        2.43483         23.4108         2.87612 
         2.4505         23.2026         2.83113 
        2.46622         22.9721         2.78695 
        2.48195         22.7716         2.74371 
        2.49759         22.5249         2.70162 
        2.51328         22.3056          2.6603 
        2.52906         22.1737         2.61959 
        2.54479          21.882         2.57988 
        2.56049         21.6376         2.54107 
        2.57618         21.4457         2.50309 
        2.59189         21.3447         2.46583 
        2.60758          21.151         2.42939 
        2.62325         20.9069         2.39373 
        2.63898         20.8335         2.35867 
        2.65468           20.55         2.32438 
        2.67044         20.3764         2.29062 
        2.68618         20.1486         2.25761 
        2.70184         20.0361         2.22539 
        2.71755           19.85         2.19371 
        2.73329         19.6432         2.16261 
        2.74897         19.3902          2.1322 
        2.76462         19.4244         2.10245 
        2.78034         19.1501         2.07315 
        2.79607         18.9811         2.04437 
        2.81179         18.8434         2.01617 
        2.82749         18.6532         1.98854 
        2.84321         18.5455         1.96139 
        2.85893         18.3235         1.93476 
        2.87462         18.1351         1.90866 
        2.89033         18.0139         1.88303 
        2.90605         17.9256         1.85784 
        2.92176          17.629         1.83313 
        2.93747         17.5851         1.80888 
        2.95318         17.3598         1.78506 
        2.96891         17.2359         1.76166 
        2.98456         17.0905         1.73879 
        3.00023         16.9188         1.71629 
        3.01596         16.8421         1.69411 
        3.03164         16.6876         1.67239 
        3.04738         16.4671         1.65099 
         3.0631         16.3215         1.62997 
        3.07883         16.1963         1.60932 
        3.09456         16.0896         1.58902 
        3.11026         15.9562         1.56911 
        3.12596         15.7716         1.54954 
        3.14163         15.7065         1.53035 
        3.15734         15.5031         1.51144 
        3.17308         15.3886          1.4928 
        3.18879         15.2578         1.47453 
        3.20447         15.1301         1.45659 
         3.2202         14.9819          1.4389 
         3.2359          14.889         1.42153 
        3.25157         14.7724         1.40449 
        3.26729         14.6472         1.38767 
        3.28304         14.5077          1.3711 
        3.29877         14.3579         1.35482 
        3.31446         14.2291         1.33884 
        3.33014         14.1167         1.32313 
        3.34585         13.9836         1.30765 
        3.36158         13.9065         1.29239 
        3.37727         13.7308         1.27743 
        3.39294         13.6416         1.26272 
        3.40867         13.5396         1.24818 
        3.42439         13.4149         1.23388 
        3.44008           13.35         1.21984 
        3.45578         13.2181           1.206 
        3.47153         13.1296         1.19234 
        3.48724         13.0185         1.17892 
        3.50292         12.8683         1.16574 
        3.51859         12.8019         1.15277 
        3.53431         12.7036         1.13995 
        3.55007         12.5994          1.1273 
        3.56577         12.4914         1.11489 
        3.58146         12.4267         1.10267 
        3.59719         12.2648         1.09061 
        3.61292          12.182         1.07873 
        3.62859         12.0636         1.06707 
        3.64429         11.9777         1.05556 
        3.66003          11.876         1.04419 
        3.67578         11.8114         1.03299 
        3.69146         11.6926         1.02199 
        3.70712          11.593         1.01118 
        3.72284         11.5057         1.00048 
        3.73853         11.3783        0.989951 
        3.75422         11.3434        0.979573 
        3.76993         11.2548        0.969334 
        3.78564         11.1229        0.959246 
        3.80137          11.054        0.949286 
        3.81707         10.9514        0.939487 
        3.83279         10.8653        0.929819 
        3.84853         10.7794        0.920271 
        3.86424         10.6745        0.910876 
        3.87992         10.6032        0.901626 
        3.89561         10.5284        0.892504 
        3.91134         10.4614         0.88349 
        3.92704         10.3425         0.87461 
        3.94273         10.2825        0.865861 
        3.95845         10.2126        0.857216 
        3.97418         10.1231        0.848686 
        3.98988         10.0227        0.840285 
        4.00554          9.9838         0.83202 
        4.02125          9.8687        0.823842 
        4.03698         9.81557        0.815762 
        4.05268         9.73499        0.807808 
        4.06839         9.63643        0.799955 
         4.0841         9.59084        0.792208 
        4.09983         9.50227        0.784553 
        4.11555         9.42433        0.777002 
        4.13124         9.35705        0.769571 
        4.14693         9.27249        0.762231 
        4.16266         9.21694         0.75497 
        4.17839         9.12821        0.747807 
        4.19408         9.07925        0.740754 
        4.20977         9.00258        0.733789 
        4.22551         8.93774        0.726896 
        4.24123         8.87217        0.720099 
        4.25691         8.79247        0.713408 
        4.27259         8.71542        0.706799 
        4.28831         8.65245         0.70026 
        4.30404         8.60211        0.693799 
        4.31974         8.54021        0.687432 
        4.33543         8.45328        0.681149 
        4.35116         8.38798         0.67493 
        4.36688         8.33051         0.66879 
        4.38255         8.26464         0.66275 
        4.39825         8.18936        0.656771 
        4.41398         8.15257        0.650854 
         4.4297         8.08191        0.645017 
        4.44541         8.03044        0.639251 
        4.46111         7.95503        0.633561 
        4.47683         7.90179        0.627936 
        4.49251          7.8396         0.62239 
        4.50819         7.78112        0.616913 
         4.5239         7.74543        0.611494 
        4.53962         7.66943        0.606133 
        4.55535         7.60471        0.600834 
        4.57106         7.55654        0.595605 
        4.58678         7.49572        0.590438 
         4.6025         7.43333        0.585331 
        4.61821         7.39143        0.580285 
        4.63391         7.35513        0.575305 
         4.6496         7.27551        0.570385 
        4.66532         7.24115        0.565516 
        4.68103         7.14774        0.560705 
        4.69673         7.11396        0.555955 
        4.71241         7.07674        0.551265 
        4.72811         6.99802         0.54662 
        4.74384         6.95556        0.542024 
        4.75955         6.90439        0.537487 
        4.77525         6.86411        0.533005 
        4.79096          6.8038        0.528568 
        4.80669         6.77054         0.52418 
         4.8224         6.71591        0.519846 
        4.83809         6.65227        0.515566 
        4.85379         6.59281        0.511332 
         4.8695         6.55928        0.507141 
        4.88521          6.5195        0.502999 
        4.90093         6.45516        0.498903 
        4.91663         6.42363        0.494856 
        4.93234          6.3767         0.49085 
        4.94807         6.33047        0.486886 
        4.96377         6.29592        0.482972 
        4.97943         6.23613         0.47911 
        4.99514         6.18878         0.47528 
        5.01086          6.1581        0.471489 
        5.02654         6.10279        0.467749 
        5.04227         6.06416        0.464038 
          5.058          6.0352        0.460366 
        5.07371         5.98974        0.456741 
        5.08942         5.93943        0.453155 
        5.10513         5.89794        0.449606 
        5.12084         5.85962        0.446094 
        5.13656         5.82657         0.44262 
        5.15225         5.79378        0.439188 
        5.16796         5.73849        0.435788 
        5.18369         5.69619        0.432421 
         5.1994         5.66929        0.429095 
        5.21509         5.62632        0.425807 
        5.23079         5.58901         0.42255 
        5.24649         5.54836        0.419329 
        5.26217         5.52022        0.416144 
        5.27788         5.47008        0.412987 
        5.29359         5.43974        0.409863 
        5.30933         5.40885        0.406767 
        5.32504         5.36066        0.403707 
        5.34073         5.33004        0.400683 
        5.35646          5.2872        0.397683 
        5.37218         5.24955        0.394714 
        5.38789         5.23051        0.391779 
        5.40357         5.18031        0.388878 
        5.41929         5.15175           0.386 
        5.43502         5.11361         0.38315 
         5.4507          5.0805        0.380336 
        5.46639         5.03581         0.37755 
        5.48212         5.00171        0.374785 
        5.49786         4.98346        0.372045 
        5.51353         4.94398        0.369346 
        5.52921         4.91238         0.36667 
        5.54495         4.88392        0.364014 
        5.56066         4.85094        0.361386 
        5.57637         4.81334        0.358785 
        5.59207         4.77903        0.356211 
        5.60778         4.76455        0.353662 
        5.62346         4.72903        0.351142 
        5.63916         4.69875        0.348643 
        5.65487         4.65436        0.346168 
         5.6706         4.63082        0.343713 
        5.68633         4.59778        0.341282 
        5.70203         4.57311        0.338879 
        5.71773         4.54485        0.336499 
        5.73344         4.51994        0.334141 
        5.74916         4.49178        0.331804 
        5.76486         4.46137        0.329492 
        5.78054           4.425        0.327206 
        5.79626         4.39344        0.324934 
          5.812         4.37923        0.322683 
         5.8277         4.34402        0.320459 
        5.84339         4.32724        0.318256 
        5.85911         4.29733        0.316069 
        5.87484          4.2657        0.313904 
        5.89053         4.24204        0.311762 
        5.90623         4.21904         0.30964 
        5.92195         4.17725        0.307534 
        5.93767          4.1673        0.305449 
        5.95336         4.13814        0.303387 
        5.96905         4.09891        0.301344 
        5.98476         4.08062        0.299317 
        6.00048         4.05149        0.297308 
        6.01617         4.03274         0.29532 
        6.03185         4.01274        0.293353 
        6.04756         3.98454        0.291399 
        6.06331         3.96016        0.289459 
        6.07903         3.92784         0.28754 
        6.09473         3.91182        0.285641 
        6.11044         3.88186        0.283757 
        6.12616         3.87369         0.28189 
        6.14186         3.83802        0.280042 
        6.15755         3.82128        0.278211 
        6.17326         3.80035        0.276394 
        6.18898         3.77395        0.274593 
        6.20467         3.74985        0.272811 
        6.22036         3.73097        0.271045 
         6.2361         3.70177         0.26929 
         6.2518         3.69263        0.267553 
        6.26748          3.6629        0.265836 
        6.28319         3.63983        0.264129 
        6.29893         3.61974        0.262435 
        6.31463         3.59062        0.260759 
        6.33033         3.57577        0.259098 
        6.34604         3.54704         0.25745 
        6.36177          3.5313        0.255816 
        6.37747         3.51031        0.254198 
