# k  (h/Mpc)    Pcb(k)  (Mpc/h)^3    Pcb_linear(k) (Mpc/h)^3   ShotnoiseSubtracted = true
      0.0200456         177.214         179.603 
      0.0350414         130.601         130.566 
      0.0492313         95.2743         94.8665 
      0.0637834         79.1263         78.8617 
      0.0800726         62.7147         62.5905 
       0.096163         45.5105         45.4149 
       0.111083         36.2233         36.2241 
       0.126058         32.1218         32.1019 
       0.142273         27.2415         27.1974 
       0.158546         21.6074         21.4802 
        0.17375         18.0883         18.0971 
       0.188953         16.3924         16.3865 
       0.204907         14.6591         14.4987 
       0.220756         12.3424         12.2668 
        0.23588         10.7367          10.671 
         0.2514          9.7017         9.69453 
       0.267535         8.78155         8.77188 
       0.283568         7.76775         7.73562 
       0.299022         6.94136         6.89204 
       0.314451         6.27656         6.29886 
       0.330372         5.78237         5.77849 
       0.346141         5.25243         5.24486 
       0.361624         4.79005         4.76686 
       0.377134         4.42244         4.38627 
       0.392932         4.01923         4.05853 
       0.408854         3.76572         3.74118 
       0.424564         3.45227          3.4483 
       0.440253         3.20427         3.19697 
       0.455999         2.99983         2.97843 
       0.471626         2.80488          2.7776 
        0.48727         2.59936         2.58973 
       0.502856         2.42317         2.42096 
       0.518488         2.29703         2.27037 
       0.534347         2.16764         2.13037 
       0.550082         2.00661         2.00129 
       0.565732         1.86719          1.8832 
       0.581496         1.78743         1.77504 
       0.597222          1.6919         1.67585 
       0.612804         1.59138         1.58464 
       0.628434         1.51874         1.49962 
       0.644267         1.43063         1.42014 
       0.660051         1.35216         1.34689 
       0.675724         1.28871         1.27925 
       0.691403         1.23014         1.21619 
       0.707174          1.1653         1.15703 
       0.722871         1.10439         1.10204 
        0.73838         1.06188         1.05122 
       0.754018         1.01911         1.00321 
       0.769845        0.969227        0.957682 
        0.78569        0.924882         0.91494 
       0.801365        0.882265        0.875233 
       0.817031        0.846819        0.837918 
       0.832809        0.810866        0.802553 
       0.848511        0.774402        0.769397 
       0.864097        0.739751        0.738351 
       0.879701        0.709891        0.708997 
       0.895507        0.687322        0.680899 
       0.911279        0.661312         0.65439 
        0.92691        0.634073        0.629518 
       0.942635        0.610477        0.605808 
       0.958396        0.585673        0.583274 
       0.974128         0.56429        0.561932 
       0.989692        0.545992        0.541873 
        1.00528        0.527295        0.522768 
        1.02113        0.504157        0.504289 
        1.03692        0.489955        0.486774 
        1.05264        0.472836        0.470176 
        1.06832        0.457542         0.45438 
        1.08405        0.438968        0.439272 
        1.09979        0.424825        0.424843 
        1.11537         0.41446        0.411209 
        1.13105        0.400588        0.398094 
        1.14679        0.389789        0.385502 
        1.16256        0.373308        0.373433 
        1.17828        0.362105        0.361921 
        1.19395        0.350275        0.350936 
         1.2097         0.33874        0.340353 
        1.22537        0.331638        0.330258 
          1.241        0.320879        0.320605 
        1.25666        0.313471        0.311315 
        1.27241        0.302168        0.302351 
        1.28819        0.293324        0.293726 
        1.30392        0.285341        0.285463 
        1.31957        0.277765        0.277556 
        1.33529        0.269085        0.269921 
        1.35108        0.261618        0.262544 
        1.36674        0.252483        0.255495 
         1.3824        0.249029        0.248713 
        1.39811        0.240853        0.242155 
        1.41389        0.234796         0.23581 
        1.42964        0.229694        0.229703 
        1.44531        0.221623        0.223842 
        1.46101        0.217073        0.218175 
        1.47667        0.209878         0.21272 
        1.49229        0.205898        0.207468 
        1.50793        0.199751        0.202387 
        1.52367        0.195449        0.197445 
        1.53953        0.190869        0.192634 
        1.55526         0.18629        0.188023 
        1.57092        0.180361        0.183582 
        1.58662        0.177046        0.179274 
        1.60235        0.173427        0.175096 
        1.61809        0.167564         0.17105 
        1.63369        0.165407        0.167168 
        1.64941        0.161199        0.163379 
        1.66519        0.156897        0.159694 
        1.68085        0.152923        0.156149 
        1.69652         0.14943        0.152711 
        1.71228        0.146937        0.149357 
        1.72806        0.142393        0.146101 
        1.74368        0.140273        0.142975 
        1.75933        0.136927        0.139935 
        1.77505        0.133734        0.136969 
        1.79081        0.131408        0.134083 
         1.8065        0.127498        0.131294 
        1.82218        0.125368        0.128586 
        1.83797        0.122389        0.125937 
        1.85367        0.120008        0.123376 
        1.86928        0.117768        0.120903 
        1.88497         0.11543        0.118484 
        1.90073        0.112665        0.116122 
        1.91647        0.110282        0.113827 
        1.93218        0.107869        0.111599 
        1.94787        0.105621        0.109434 
        1.96363        0.103783        0.107318 
        1.97935        0.101176        0.105262 
        1.99499       0.0995786        0.103271 
        2.01064        0.097821         0.10133 
         2.0264       0.0956737       0.0994261 
        2.04216       0.0940073       0.0975722 
        2.05781       0.0921071       0.0957774 
        2.07353        0.089783       0.0940213 
        2.08928       0.0882533       0.0923056 
        2.10499        0.086381       0.0906372 
        2.12065       0.0852853       0.0890152 
        2.13633       0.0831872       0.0874315 
        2.15211        0.082259       0.0858762 
        2.16785       0.0804147       0.0843631 
        2.18349       0.0783854        0.082896 
        2.19916       0.0777864       0.0814607 
        2.21489       0.0762976       0.0800547 
        2.23063       0.0748224       0.0786809 
         2.2463        0.073188       0.0773456 
        2.26194       0.0718488       0.0760447 
        2.27765        0.070534        0.074767 
        2.29341       0.0696525       0.0735154 
        2.30914       0.0680436        0.072295 
        2.32486       0.0668487       0.0711031 
        2.34061       0.0658335        0.069936 
        2.35635         0.06454       0.0687963 
        2.37203       0.0634979       0.0676859 
        2.38768        0.062367       0.0666023 
        2.40339       0.0612651       0.0655385 
        2.41914       0.0604825       0.0644955 
        2.43483       0.0590951       0.0634789 
         2.4505       0.0580262        0.062486 
        2.46622       0.0571504       0.0615109 
        2.48195       0.0560274       0.0605565 
        2.49759       0.0554956       0.0596275 
        2.51328        0.054655       0.0587156 
        2.52906       0.0535982        0.057817 
        2.54479       0.0526464       0.0569406 
        2.56049       0.0518323        0.056084 
        2.57618       0.0510055       0.0552458 
        2.59189        0.050195       0.0544235 
        2.60758       0.0495725       0.0536192 
        2.62325       0.0486037       0.0528322 
        2.63898       0.0478823       0.0520582 
        2.65468       0.0469063       0.0513014 
        2.67044       0.0465077       0.0505564 
        2.68618       0.0456762       0.0498279 
        2.70184       0.0448989       0.0491166 
        2.71755       0.0440417       0.0484175 
        2.73329       0.0435403       0.0477309 
        2.74897       0.0429987       0.0470599 
        2.76462       0.0421576       0.0464033 
        2.78034       0.0416152       0.0457565 
        2.79607       0.0409737       0.0451213 
        2.81179       0.0404166        0.044499 
        2.82749       0.0397033        0.043889 
        2.84321       0.0391593       0.0432899 
        2.85893       0.0385789       0.0427021 
        2.87462       0.0382036       0.0421262 
        2.89033       0.0375402       0.0415604 
        2.90605       0.0368262       0.0410045 
        2.92176        0.036503       0.0404591 
        2.93747       0.0359218       0.0399238 
        2.95318       0.0352847       0.0393982 
        2.96891        0.034913       0.0388818 
        2.98456       0.0344995       0.0383769 
        3.00023       0.0338639       0.0378802 
        3.01596        0.033376       0.0373908 
        3.03164       0.0330806       0.0369114 
        3.04738       0.0325503       0.0364391 
         3.0631       0.0319713       0.0359751 
        3.07883       0.0315477       0.0355193 
        3.09456       0.0312912       0.0350714 
        3.11026        0.030751       0.0346319 
        3.12596       0.0304736       0.0341999 
        3.14163        0.029986       0.0337764 
        3.15734       0.0296264        0.033359 
        3.17308       0.0292248       0.0329477 
        3.18879       0.0287814       0.0325445 
        3.20447       0.0285245       0.0321485 
         3.2202        0.028125        0.031758 
         3.2359       0.0278245       0.0313746 
        3.25157       0.0273603       0.0309985 
        3.26729        0.027054       0.0306273 
        3.28304       0.0267302       0.0302616 
        3.29877       0.0264204       0.0299023 
        3.31446       0.0260378       0.0295496 
        3.33014        0.025747       0.0292029 
        3.34585        0.025443       0.0288612 
        3.36158       0.0250345       0.0285245 
        3.37727       0.0248457       0.0281942 
        3.39294       0.0245719       0.0278695 
        3.40867       0.0242503       0.0275486 
        3.42439       0.0239657       0.0272331 
        3.44008       0.0236928        0.026923 
        3.45578       0.0234882       0.0266176 
        3.47153        0.023142       0.0263162 
        3.48724       0.0230286       0.0260201 
        3.50292       0.0226042       0.0257291 
        3.51859       0.0223049       0.0254428 
        3.53431       0.0221979       0.0251599 
        3.55007       0.0219202       0.0248807 
        3.56577        0.021742       0.0246067 
        3.58146       0.0213927       0.0243371 
        3.59719       0.0212476       0.0240708 
        3.61292       0.0209323       0.0238086 
        3.62859        0.020733       0.0235513 
        3.64429       0.0205929       0.0232973 
        3.66003        0.020308       0.0230463 
        3.67578       0.0201383       0.0227991 
        3.69146       0.0199593       0.0225564 
        3.70712       0.0197953       0.0223177 
        3.72284       0.0195444       0.0220815 
        3.73853       0.0193221       0.0218492 
        3.75422       0.0192503       0.0216202 
        3.76993       0.0189574       0.0213942 
        3.78564       0.0188336       0.0211716 
        3.80137       0.0186299       0.0209517 
        3.81707       0.0183933       0.0207355 
        3.83279       0.0182758       0.0205221 
        3.84853       0.0181137       0.0203113 
        3.86424       0.0179237        0.020104 
        3.87992       0.0177783       0.0198998 
        3.89561       0.0176487       0.0196985 
        3.91134       0.0174875       0.0194995 
        3.92704       0.0172583       0.0193035 
        3.94273       0.0171127       0.0191104 
        3.95845       0.0169689       0.0189196 
        3.97418       0.0168526       0.0187314 
        3.98988       0.0166484        0.018546 
        4.00554        0.016474       0.0183635 
        4.02125       0.0162567       0.0181831 
        4.03698       0.0160946       0.0180047 
        4.05268       0.0158801       0.0178292 
        4.06839       0.0156225       0.0176558 
         4.0841       0.0154272       0.0174848 
        4.09983       0.0152018       0.0173159 
        4.11555       0.0150537       0.0171492 
        4.13124       0.0148441       0.0169852 
        4.14693       0.0146064       0.0168232 
        4.16266       0.0144385        0.016663 
        4.17839       0.0142772       0.0165049 
        4.19408       0.0141386       0.0163492 
        4.20977       0.0139588       0.0161955 
        4.22551       0.0137431       0.0160433 
        4.24123       0.0136058       0.0158933 
        4.25691       0.0134794       0.0157456 
        4.27259       0.0133351       0.0155998 
        4.28831       0.0132448       0.0154555 
        4.30404       0.0131065       0.0153129 
        4.31974         0.01295       0.0151723 
        4.33543       0.0128472       0.0150337 
        4.35116       0.0127451       0.0148964 
        4.36688       0.0126451       0.0147609 
        4.38255       0.0125297       0.0146276 
        4.39825       0.0124883       0.0144956 
        4.41398       0.0124375        0.014365 
         4.4297       0.0123312       0.0142362 
        4.44541       0.0122518       0.0141089 
        4.46111       0.0121654       0.0139833 
        4.47683       0.0121365       0.0138592 
        4.49251       0.0120487       0.0137368 
        4.50819       0.0120163       0.0136159 
         4.5239       0.0119704       0.0134963 
        4.53962       0.0119442        0.013378 
        4.55535        0.011924        0.013261 
        4.57106       0.0119412       0.0131456 
        4.58678       0.0118759       0.0130316 
         4.6025       0.0118943       0.0129189 
        4.61821       0.0119076       0.0128075 
        4.63391       0.0118614       0.0126976 
         4.6496       0.0118654        0.012589 
        4.66532       0.0118661       0.0124815 
        4.68103       0.0119031       0.0123753 
        4.69673       0.0119149       0.0122705 
        4.71241       0.0119804        0.012167 
        4.72811       0.0119787       0.0120645 
        4.74384       0.0120016        0.011963 
        4.75955       0.0120845       0.0118629 
        4.77525       0.0121354        0.011764 
        4.79096       0.0122164        0.011666 
        4.80669       0.0122059       0.0115692 
         4.8224       0.0123343       0.0114735 
        4.83809       0.0123634       0.0113791 
        4.85379       0.0125003       0.0112856 
         4.8695       0.0125259       0.0111931 
        4.88521       0.0126271       0.0111017 
        4.90093       0.0127501       0.0110113 
        4.91663       0.0128948        0.010922 
        4.93234       0.0129757       0.0108336 
        4.94807       0.0130559       0.0107461 
        4.96377       0.0131948       0.0106597 
        4.97943       0.0133428       0.0105745 
        4.99514       0.0134744       0.0104899 
        5.01086       0.0135409       0.0104062 
        5.02654       0.0137732       0.0103237 
        5.04227       0.0139087       0.0102418 
          5.058       0.0140603       0.0101608 
        5.07371       0.0142231       0.0100808 
        5.08942       0.0145171       0.0100016 
        5.10513       0.0146494      0.00992327 
        5.12084       0.0147537      0.00984575 
        5.13656       0.0150458      0.00976908 
        5.15225       0.0152222      0.00969334 
        5.16796       0.0155335      0.00961829 
        5.18369       0.0156475      0.00954397 
         5.1994       0.0159039      0.00947056 
        5.21509       0.0161417        0.009398 
        5.23079       0.0163378       0.0093261 
        5.24649       0.0166154      0.00925502 
        5.26217       0.0169054      0.00918472 
        5.27788       0.0171682      0.00911506 
        5.29359       0.0174673       0.0090461 
        5.30933       0.0177044      0.00897776 
        5.32504       0.0179856      0.00891024 
        5.34073       0.0184373      0.00884349 
        5.35646       0.0186768      0.00877728 
        5.37218       0.0190242      0.00871174 
        5.38789       0.0194516      0.00864698 
        5.40357       0.0197554      0.00858294 
        5.41929        0.020013      0.00851942 
        5.43502       0.0204947      0.00845652 
         5.4507       0.0208408      0.00839442 
        5.46639       0.0212944      0.00833292 
        5.48212       0.0215066       0.0082719 
        5.49786       0.0220224      0.00821142 
        5.51353       0.0225968      0.00815184 
        5.52921       0.0230395      0.00809279 
        5.54495       0.0235213      0.00803416 
        5.56066       0.0240248      0.00797616 
        5.57637       0.0244714      0.00791875 
        5.59207       0.0248812      0.00786195 
        5.60778       0.0255115      0.00780569 
        5.62346        0.026042      0.00775006 
        5.63916       0.0265001      0.00769491 
        5.65487       0.0271526      0.00764028 
         5.6706       0.0275898      0.00758611 
        5.68633       0.0283375      0.00753244 
        5.70203       0.0290178       0.0074794 
        5.71773       0.0296251      0.00742689 
        5.73344        0.030247      0.00737485 
        5.74916       0.0310324      0.00732325 
        5.76486        0.031683      0.00727223 
        5.78054       0.0322529      0.00722176 
        5.79626       0.0330904      0.00717164 
          5.812        0.033799      0.00712194 
         5.8277       0.0347844      0.00707285 
        5.84339       0.0352946      0.00702423 
        5.85911       0.0363224      0.00697597 
        5.87484       0.0371787      0.00692818 
        5.89053       0.0380893      0.00688092 
        5.90623       0.0389628      0.00683408 
        5.92195       0.0399823       0.0067876 
        5.93767       0.0409574      0.00674158 
        5.95336       0.0419069      0.00669606 
        5.96905       0.0428616      0.00665097 
        5.98476       0.0436167      0.00660624 
        6.00048       0.0448674       0.0065619 
        6.01617       0.0458714      0.00651803 
        6.03185       0.0470439      0.00647461 
        6.04756       0.0484257      0.00643149 
        6.06331       0.0496698      0.00638866 
        6.07903       0.0508316      0.00634631 
        6.09473       0.0521482      0.00630439 
        6.11044       0.0537223      0.00626281 
        6.12616        0.055111      0.00622161 
        6.14186       0.0563345      0.00618082 
        6.15755       0.0577291       0.0061404 
        6.17326       0.0588225      0.00610031 
        6.18898       0.0607203      0.00606055 
        6.20467        0.062538      0.00602122 
        6.22036       0.0641716      0.00598225 
         6.2361       0.0654169      0.00594351 
         6.2518       0.0678782      0.00590518 
        6.26748       0.0688194      0.00586727 
        6.28319       0.0713666      0.00582959 
        6.29893        0.073352      0.00579221 
        6.31463       0.0750471      0.00575522 
        6.33033       0.0769439      0.00571856 
        6.34604       0.0789516       0.0056822 
        6.36177       0.0813781      0.00564611 
        6.37747       0.0831473      0.00561041 
