# k  (h/Mpc)    Pcb(k)  (Mpc/h)^3    Pcb_linear(k) (Mpc/h)^3   ShotnoiseSubtracted = true
      0.0200456         1879.15         1903.35 
      0.0350414         1403.76         1383.67 
      0.0492313         1007.73         1005.35 
      0.0637834         824.731         835.737 
      0.0800726         652.621         663.304 
       0.096163         490.398         481.285 
       0.111083          394.25         383.885 
       0.126058         338.316           340.2 
       0.142273         286.315         288.224 
       0.158546         230.712         227.637 
        0.17375         197.337         191.784 
       0.188953         177.578         173.656 
       0.204907         152.275          153.65 
       0.220756         133.323         129.997 
        0.23588         116.451         113.086 
         0.2514         105.462         102.738 
       0.267535         97.2049         92.9601 
       0.283568         85.4026         81.9783 
       0.299022         77.6004         73.0384 
       0.314451         72.8871         66.7522 
       0.330372         65.3246         61.2376 
       0.346141         59.6395         55.5825 
       0.361624         54.6083         50.5169 
       0.377134         49.9556         46.4835 
       0.392932         48.1706         43.0103 
       0.408854         43.8175         39.6472 
       0.424564         41.7404         36.5433 
       0.440253         38.0708         33.8799 
       0.455999         34.8056          31.564 
       0.471626         32.8507         29.4356 
        0.48727         31.8019         27.4447 
       0.502856         29.7138         25.6561 
       0.518488         27.6264         24.0602 
       0.534347         25.9453         22.5767 
       0.550082         24.9071         21.2087 
       0.565732         23.8858         19.9572 
       0.581496         22.4623          18.811 
       0.597222         21.1787         17.7598 
       0.612804         20.0862         16.7932 
       0.628434         19.6188         15.8923 
       0.644267         18.5715           15.05 
       0.660051         17.5959         14.2736 
       0.675724         16.7135         13.5568 
       0.691403         16.2913         12.8886 
       0.707174         15.5598         12.2617 
       0.722871         15.0799         11.6789 
        0.73838           14.21         11.1403 
       0.754018         13.5149         10.6315 
       0.769845         13.0549          10.149 
        0.78569         12.6809         9.69609 
       0.801365         12.1451         9.27529 
       0.817031         11.7263         8.87984 
       0.832809         11.2596         8.50506 
       0.848511         10.9294         8.15369 
       0.864097         10.5354         7.82468 
       0.879701         10.3208          7.5136 
       0.895507         9.92554         7.21583 
       0.911279         9.51315          6.9349 
        0.92691         9.27551         6.67132 
       0.942635         8.99268         6.42005 
       0.958396          8.6787         6.18125 
       0.974128         8.47141         5.95508 
       0.989692         8.07104         5.74251 
        1.00528         7.98919         5.54004 
        1.02113         7.71595          5.3442 
        1.03692         7.52611          5.1586 
        1.05264         7.29687         4.98269 
        1.06832         7.12055          4.8153 
        1.08405         6.93687         4.65518 
        1.09979           6.755         4.50228 
        1.11537         6.57835         4.35779 
        1.13105         6.41366          4.2188 
        1.14679         6.26827         4.08536 
        1.16256          6.0902         3.95745 
        1.17828         5.98344         3.83546 
        1.19395          5.8063         3.71905 
         1.2097         5.63018         3.60689 
        1.22537           5.496         3.49991 
          1.241         5.36498         3.39761 
        1.25666         5.33157         3.29916 
        1.27241         5.20845         3.20417 
        1.28819         4.99869         3.11276 
        1.30392          4.9126          3.0252 
        1.31957         4.82685         2.94141 
        1.33529         4.71102         2.86049 
        1.35108          4.6088         2.78231 
        1.36674         4.49395         2.70761 
         1.3824         4.44542         2.63574 
        1.39811         4.33902         2.56624 
        1.41389         4.22825         2.49899 
        1.42964         4.16827         2.43427 
        1.44531         4.08671         2.37217 
        1.46101         4.02833         2.31211 
        1.47667         3.93533         2.25431 
        1.49229         3.81977         2.19864 
        1.50793         3.74955          2.1448 
        1.52367         3.68109         2.09242 
        1.53953         3.60783         2.04144 
        1.55526          3.6036         1.99257 
        1.57092         3.50329         1.94551 
        1.58662         3.45983         1.89986 
        1.60235         3.37988         1.85559 
        1.61809         3.32283         1.81271 
        1.63369         3.26439         1.77156 
        1.64941         3.20888         1.73141 
        1.66519         3.16773         1.69236 
        1.68085         3.10236         1.65479 
        1.69652         3.05634         1.61835 
        1.71228         3.00937         1.58281 
        1.72806         2.96524          1.5483 
        1.74368         2.91744         1.51518 
        1.75933         2.87293         1.48296 
        1.77505         2.81735         1.45153 
        1.79081         2.78249         1.42095 
         1.8065         2.74197         1.39139 
        1.82218         2.68914         1.36269 
        1.83797         2.64304         1.33461 
        1.85367         2.60607         1.30748 
        1.86928         2.57971         1.28127 
        1.88497         2.52226         1.25563 
        1.90073         2.50306          1.2306 
        1.91647         2.46119         1.20628 
        1.93218         2.42714         1.18267 
        1.94787         2.39598         1.15972 
        1.96363         2.36459          1.1373 
        1.97935         2.32561         1.11551 
        1.99499         2.29627         1.09442 
        2.01064         2.26989         1.07384 
         2.0264          2.2291         1.05367 
        2.04216         2.20422         1.03402 
        2.05781         2.16973           1.015 
        2.07353          2.1567        0.996392 
        2.08928         2.11931        0.978209 
        2.10499         2.08435        0.960529 
        2.12065         2.07531        0.943339 
        2.13633         2.04038        0.926556 
        2.15211         2.00749        0.910073 
        2.16785         1.98777        0.894038 
        2.18349          1.9597         0.87849 
        2.19916         1.94599         0.86328 
        2.21489         1.92348         0.84838 
        2.23063          1.8863        0.833821 
         2.2463         1.85849        0.819671 
        2.26194         1.84674        0.805884 
        2.27765         1.80735        0.792344 
        2.29341         1.79618         0.77908 
        2.30914         1.77135        0.766147 
        2.32486         1.76546        0.753515 
        2.34061         1.74126        0.741148 
        2.35635         1.72039        0.729069 
        2.37203         1.70254        0.717301 
        2.38768         1.68259        0.705818 
        2.40339         1.66227        0.694545 
        2.41914         1.64476        0.683492 
        2.43483         1.62667        0.672719 
         2.4505         1.60715        0.662196 
        2.46622         1.58553        0.651862 
        2.48195         1.57453        0.641748 
        2.49759         1.55306        0.631903 
        2.51328         1.54056        0.622239 
        2.52906          1.5277        0.612716 
        2.54479         1.50557        0.603428 
        2.56049         1.49294         0.59435 
        2.57618         1.47625        0.585468 
        2.59189         1.46692        0.576753 
        2.60758         1.44676         0.56823 
        2.62325         1.42849        0.559889 
        2.63898         1.41479        0.551687 
        2.65468         1.39553        0.543667 
        2.67044         1.39303        0.535771 
        2.68618         1.37792        0.528051 
        2.70184          1.3628        0.520514 
        2.71755         1.35423        0.513105 
        2.73329         1.33308        0.505829 
        2.74897         1.32368        0.498718 
        2.76462         1.31106        0.491759 
        2.78034         1.30754        0.484905 
        2.79607         1.28772        0.478174 
        2.81179         1.27551        0.471578 
        2.82749         1.26239        0.465114 
        2.84321         1.25418        0.458765 
        2.85893         1.24006        0.452535 
        2.87462         1.23197        0.446432 
        2.89033         1.21917        0.440436 
        2.90605         1.21127        0.434545 
        2.92176         1.20084        0.428765 
        2.93747         1.18986        0.423093 
        2.95318         1.17581        0.417523 
        2.96891         1.17362         0.41205 
        2.98456         1.15728        0.406699 
        3.00023         1.14668        0.401436 
        3.01596         1.13484        0.396249 
        3.03164         1.12848        0.391169 
        3.04738         1.12106        0.386163 
         3.0631         1.10825        0.381247 
        3.07883           1.101        0.376416 
        3.09456         1.08941        0.371669 
        3.11026         1.08527        0.367011 
        3.12596          1.0722        0.362434 
        3.14163         1.06796        0.357946 
        3.15734         1.05631        0.353523 
        3.17308         1.05087        0.349164 
        3.18879         1.04364         0.34489 
        3.20447         1.03332        0.340694 
         3.2202         1.02473        0.336555 
         3.2359         1.01726        0.332492 
        3.25157         1.00905        0.328506 
        3.26729         1.00297        0.324573 
        3.28304        0.994913        0.320697 
        3.29877        0.985937        0.316889 
        3.31446        0.982593        0.313152 
        3.33014        0.967254        0.309478 
        3.34585         0.96522        0.305857 
        3.36158        0.957932        0.302288 
        3.37727        0.954499        0.298788 
        3.39294        0.942999        0.295347 
        3.40867        0.940168        0.291947 
        3.42439        0.935564        0.288603 
        3.44008        0.926147        0.285317 
        3.45578        0.918471         0.28208 
        3.47153          0.9127        0.278887 
        3.48724        0.905768        0.275748 
        3.50292        0.897075        0.272665 
        3.51859         0.89779         0.26963 
        3.53431        0.887047        0.266633 
        3.55007        0.883911        0.263673 
        3.56577        0.877852         0.26077 
        3.58146        0.872784        0.257912 
        3.59719        0.866048         0.25509 
        3.61292        0.858966        0.252312 
        3.62859         0.85458        0.249585 
        3.64429        0.847195        0.246893 
        3.66003        0.841864        0.244233 
        3.67578        0.837306        0.241613 
        3.69146         0.83303        0.239041 
        3.70712        0.827538        0.236512 
        3.72284        0.822228        0.234009 
        3.73853        0.815328        0.231547 
        3.75422        0.812712         0.22912 
        3.76993        0.805419        0.226725 
        3.78564        0.800989        0.224366 
        3.80137        0.796679        0.222036 
        3.81707        0.790837        0.219744 
        3.83279        0.786249        0.217483 
        3.84853        0.781307         0.21525 
        3.86424        0.773787        0.213052 
        3.87992        0.774017        0.210888 
        3.89561        0.767834        0.208755 
        3.91134        0.761074        0.206646 
        3.92704        0.756952        0.204569 
        3.94273        0.752502        0.202523 
        3.95845        0.748069        0.200501 
        3.97418        0.743916        0.198506 
        3.98988        0.739584        0.196541 
        4.00554        0.732871        0.194608 
        4.02125        0.728644        0.192695 
        4.03698         0.72328        0.190805 
        4.05268        0.718543        0.188945 
        4.06839        0.712101        0.187108 
         4.0841        0.706511        0.185296 
        4.09983        0.702895        0.183505 
        4.11555        0.697766        0.181739 
        4.13124        0.690811        0.180001 
        4.14693        0.688639        0.178284 
        4.16266        0.680097        0.176586 
        4.17839        0.676261        0.174911 
        4.19408        0.674269        0.173261 
        4.20977        0.668631        0.171632 
        4.22551        0.666059        0.170019 
        4.24123        0.659477         0.16843 
        4.25691        0.655141        0.166865 
        4.27259         0.65219        0.165319 
        4.28831        0.648934        0.163789 
        4.30404        0.646065        0.162278 
        4.31974        0.639396        0.160789 
        4.33543         0.63623        0.159319 
        4.35116        0.632121        0.157865 
        4.36688        0.627621        0.156429 
        4.38255         0.62569        0.155016 
        4.39825        0.622836        0.153617 
        4.41398        0.617962        0.152233 
         4.4297        0.617494        0.150868 
        4.44541        0.611317         0.14952 
        4.46111        0.609216        0.148189 
        4.47683        0.606514        0.146873 
        4.49251        0.603627        0.145576 
        4.50819        0.600854        0.144295 
         4.5239        0.597908        0.143027 
        4.53962         0.59219        0.141773 
        4.55535        0.593383        0.140534 
        4.57106        0.589342        0.139311 
        4.58678        0.587539        0.138102 
         4.6025        0.584479        0.136908 
        4.61821        0.582543        0.135727 
        4.63391        0.582122        0.134563 
         4.6496        0.577851        0.133412 
        4.66532        0.575658        0.132273 
        4.68103        0.573843        0.131148 
        4.69673        0.569999        0.130037 
        4.71241        0.570341         0.12894 
        4.72811        0.567591        0.127853 
        4.74384        0.566623        0.126778 
        4.75955        0.565239        0.125717 
        4.77525        0.561879        0.124669 
        4.79096        0.561497        0.123631 
        4.80669        0.558797        0.122605 
         4.8224        0.556793        0.121591 
        4.83809        0.555203         0.12059 
        4.85379        0.554828        0.119599 
         4.8695        0.552934        0.118619 
        4.88521        0.551692        0.117651 
        4.90093        0.550004        0.116692 
        4.91663        0.548894        0.115746 
        4.93234        0.546701        0.114809 
        4.94807        0.546993        0.113882 
        4.96377        0.546898        0.112966 
        4.97943        0.544699        0.112063 
        4.99514        0.543005        0.111167 
        5.01086        0.542112         0.11028 
        5.02654        0.542454        0.109405 
        5.04227        0.540139        0.108538 
          5.058        0.540726        0.107679 
        5.07371        0.538398        0.106831 
        5.08942        0.539647        0.105992 
        5.10513        0.538484        0.105162 
        5.12084        0.536127         0.10434 
        5.13656        0.537219        0.103528 
        5.15225        0.536487        0.102725 
        5.16796        0.535977         0.10193 
        5.18369        0.534475        0.101142 
         5.1994        0.535007        0.100364 
        5.21509        0.534642       0.0995953 
        5.23079         0.53288       0.0988334 
        5.24649        0.534104       0.0980801 
        5.26217        0.534169       0.0973352 
        5.27788        0.534392       0.0965969 
        5.29359        0.533933       0.0958661 
        5.30933        0.533598       0.0951419 
        5.32504        0.532646       0.0944263 
        5.34073        0.533138       0.0937189 
        5.35646        0.532789       0.0930173 
        5.37218        0.534272       0.0923227 
        5.38789        0.531852       0.0916364 
        5.40357        0.532181       0.0909578 
        5.41929        0.533544       0.0902846 
        5.43502        0.533225       0.0896181 
         5.4507        0.533591       0.0889599 
        5.46639        0.533307       0.0883082 
        5.48212        0.534245       0.0876615 
        5.49786        0.534642       0.0870206 
        5.51353        0.534153       0.0863892 
        5.52921        0.534028       0.0857634 
        5.54495         0.53513        0.085142 
        5.56066        0.535559       0.0845274 
        5.57637        0.535388        0.083919 
        5.59207        0.536824       0.0833171 
        5.60778        0.536584       0.0827209 
        5.62346        0.536286       0.0821313 
        5.63916        0.536874       0.0815469 
        5.65487         0.53662       0.0809679 
         5.6706        0.537062       0.0803938 
        5.68633         0.53905       0.0798251 
        5.70203        0.539061        0.079263 
        5.71773        0.539315       0.0787065 
        5.73344        0.540574        0.078155 
        5.74916        0.540124       0.0776082 
        5.76486        0.541661       0.0770675 
        5.78054        0.541626       0.0765327 
        5.79626        0.540782       0.0760015 
          5.812        0.542026       0.0754748 
         5.8277        0.543052       0.0749546 
        5.84339         0.54352       0.0744393 
        5.85911        0.545018       0.0739279 
        5.87484        0.544528       0.0734214 
        5.89053        0.546468       0.0729206 
        5.90623        0.547042       0.0724242 
        5.92195        0.546567       0.0719316 
        5.93767        0.548262       0.0714439 
        5.95336        0.549146       0.0709615 
        5.96905        0.547933       0.0704837 
        5.98476        0.548257       0.0700096 
        6.00048        0.549721       0.0695398 
        6.01617        0.549465       0.0690748 
        6.03185        0.551089       0.0686147 
        6.04756        0.551594       0.0681577 
        6.06331        0.553547       0.0677039 
        6.07903        0.553794       0.0672551 
        6.09473        0.553737       0.0668108 
        6.11044        0.552879       0.0663702 
        6.12616        0.555846       0.0659335 
        6.14186         0.55491       0.0655013 
        6.15755        0.556264       0.0650729 
        6.17326        0.557659        0.064648 
        6.18898        0.557364       0.0642267 
        6.20467        0.559296         0.06381 
        6.22036        0.559341       0.0633969 
         6.2361        0.558957       0.0629864 
         6.2518        0.559651       0.0625802 
        6.26748        0.560507       0.0621785 
        6.28319         0.56105       0.0617791 
        6.29893        0.562977        0.061383 
        6.31463        0.563107       0.0609909 
        6.33033        0.562172       0.0606025 
        6.34604        0.563866       0.0602171 
        6.36177        0.563801       0.0598347 
        6.37747        0.565997       0.0594564 
