# k  (h/Mpc)    Pcb(k)  (Mpc/h)^3    Pcb_linear(k) (Mpc/h)^3   ShotnoiseSubtracted = true
      0.0200456         20198.1         20545.7 
      0.0350414         15396.1           14936 
      0.0492313           10638         10852.2 
      0.0637834         8578.95         9021.35 
      0.0800726         6736.32         7160.02 
       0.096163         5395.83         5195.22 
       0.111083         4394.38         4143.84 
       0.126058         3634.46         3672.29 
       0.142273          3177.5         3111.24 
       0.158546         2608.85         2457.22 
        0.17375         2323.94         2070.21 
       0.188953          2195.8         1874.53 
       0.204907         1887.52         1658.57 
       0.220756         1704.38         1403.25 
        0.23588         1521.18         1220.71 
         0.2514          1374.4            1109 
       0.267535            1329         1003.46 
       0.283568         1180.19         884.914 
       0.299022         1126.38         788.413 
       0.314451          1170.3         720.556 
       0.330372         1027.23         661.029 
       0.346141          944.49         599.984 
       0.361624         906.621         545.304 
       0.377134         867.196         501.766 
       0.392932         829.773         464.274 
       0.408854         794.006         427.971 
       0.424564         776.053         394.467 
       0.440253         716.624         365.716 
       0.455999         685.626         340.717 
       0.471626         698.686         317.742 
        0.48727         659.273         296.251 
       0.502856         627.361         276.945 
       0.518488         613.444         259.718 
       0.534347         584.995         243.703 
       0.550082         558.636         228.937 
       0.565732          552.26         215.428 
       0.581496         540.302         203.055 
       0.597222          527.15         191.708 
       0.612804         515.205         181.274 
       0.628434         494.002         171.549 
       0.644267         479.064         162.457 
       0.660051          473.36         154.077 
       0.675724         463.835         146.339 
       0.691403         452.457         139.126 
       0.707174         437.175         132.358 
       0.722871         431.037         126.068 
        0.73838         423.591         120.253 
       0.754018         411.059         114.762 
       0.769845         407.341         109.554 
        0.78569         398.878         104.664 
       0.801365         385.326         100.122 
       0.817031         382.673         95.8534 
       0.832809         376.561         91.8077 
       0.848511         369.318         88.0149 
       0.864097         360.195         84.4634 
       0.879701         358.325         81.1054 
       0.895507          345.64         77.8912 
       0.911279         339.783         74.8587 
        0.92691         336.851         72.0135 
       0.942635         333.439         69.3012 
       0.958396         322.283         66.7234 
       0.974128         319.214          64.282 
       0.989692         308.203         61.9874 
        1.00528         307.221         59.8019 
        1.02113         302.326         57.6879 
        1.03692         296.844         55.6844 
        1.05264         292.072         53.7856 
        1.06832         288.434         51.9787 
        1.08405         284.149         50.2503 
        1.09979         279.625         48.5998 
        1.11537         272.794         47.0401 
        1.13105         269.242         45.5398 
        1.14679         265.853         44.0994 
        1.16256          263.81         42.7187 
        1.17828         259.564         41.4019 
        1.19395         252.864         40.1452 
         1.2097         252.818         38.9345 
        1.22537         248.528         37.7798 
          1.241         242.433         36.6755 
        1.25666         240.719         35.6128 
        1.27241         236.835         34.5873 
        1.28819         232.729         33.6007 
        1.30392         231.501         32.6555 
        1.31957         224.902          31.751 
        1.33529         222.065         30.8775 
        1.35108         221.102         30.0336 
        1.36674         215.041         29.2273 
         1.3824         213.908         28.4515 
        1.39811         212.017         27.7013 
        1.41389         205.929         26.9754 
        1.42964         203.849         26.2768 
        1.44531         202.124         25.6064 
        1.46101         198.578          24.958 
        1.47667         196.326         24.3341 
        1.49229         193.499         23.7332 
        1.50793         190.587          23.152 
        1.52367         188.277         22.5866 
        1.53953         184.209         22.0363 
        1.55526         183.313         21.5088 
        1.57092         181.801         21.0008 
        1.58662         177.299          20.508 
        1.60235         175.675         20.0301 
        1.61809         173.166         19.5672 
        1.63369         170.067         19.1231 
        1.64941         168.307         18.6897 
        1.66519         166.222         18.2681 
        1.68085         163.436         17.8626 
        1.69652         161.692         17.4693 
        1.71228         159.114         17.0856 
        1.72806         157.707         16.7132 
        1.74368           155.7         16.3556 
        1.75933         154.452         16.0078 
        1.77505         152.092         15.6685 
        1.79081         148.784         15.3384 
         1.8065         147.356         15.0193 
        1.82218         144.748         14.7096 
        1.83797         143.923         14.4065 
        1.85367          141.94         14.1136 
        1.86928         140.071         13.8307 
        1.88497         138.772         13.5539 
        1.90073         137.265         13.2838 
        1.91647           134.7         13.0212 
        1.93218         133.215         12.7663 
        1.94787         131.182         12.5186 
        1.96363         130.599         12.2766 
        1.97935         128.873         12.0414 
        1.99499         127.261         11.8137 
        2.01064         124.617         11.5916 
         2.0264         123.769         11.3738 
        2.04216         122.009         11.1617 
        2.05781         120.382         10.9564 
        2.07353         118.935         10.7555 
        2.08928         117.487         10.5593 
        2.10499         116.364         10.3684 
        2.12065         115.087         10.1829 
        2.13633         114.044         10.0017 
        2.15211         112.069         9.82378 
        2.16785         110.705         9.65069 
        2.18349         109.221         9.48286 
        2.19916         108.268         9.31867 
        2.21489         107.199         9.15783 
        2.23063         105.274         9.00068 
         2.2463         104.287         8.84793 
        2.26194         103.289          8.6991 
        2.27765         101.894         8.55294 
        2.29341         100.952         8.40977 
        2.30914         99.6794         8.27016 
        2.32486         97.8972         8.13381 
        2.34061         97.3156         8.00031 
        2.35635         96.1669         7.86993 
        2.37203         94.5528          7.7429 
        2.38768         93.7853         7.61895 
        2.40339         92.9006         7.49726 
        2.41914         91.3639         7.37794 
        2.43483         90.7337         7.26165 
         2.4505         89.5783         7.14806 
        2.46622         88.5114         7.03652 
        2.48195         87.6939         6.92734 
        2.49759         86.4549         6.82107 
        2.51328         85.7393         6.71675 
        2.52906         84.1952         6.61395 
        2.54479         83.4115          6.5137 
        2.56049         82.2407         6.41571 
        2.57618         81.2687         6.31982 
        2.59189         80.8829         6.22576 
        2.60758         79.2396         6.13375 
        2.62325         78.9926         6.04372 
        2.63898         78.0092         5.95518 
        2.65468         77.0926          5.8686 
        2.67044         75.9657         5.78338 
        2.68618         75.4188         5.70004 
        2.70184          74.356         5.61868 
        2.71755         73.6533          5.5387 
        2.73329         72.5561         5.46016 
        2.74897          72.174          5.3834 
        2.76462         71.2725         5.30829 
        2.78034         70.1113          5.2343 
        2.79607         69.5086         5.16164 
        2.81179         69.0207         5.09044 
        2.82749         68.3967         5.02067 
        2.84321         67.5734         4.95213 
        2.85893         66.8024         4.88489 
        2.87462         66.0483         4.81901 
        2.89033         65.4855         4.75429 
        2.90605         64.9172          4.6907 
        2.92176         64.0343          4.6283 
        2.93747         63.5037         4.56707 
        2.95318         62.5606         4.50694 
        2.96891         62.0562         4.44787 
        2.98456         61.3643         4.39011 
        3.00023         60.7601         4.33329 
        3.01596         60.2507         4.27731 
        3.03164         59.5243         4.22247 
        3.04738         59.1468         4.16844 
         3.0631         58.1004         4.11536 
        3.07883         57.5787         4.06321 
        3.09456         56.9613         4.01198 
        3.11026         56.3929          3.9617 
        3.12596         55.9262         3.91229 
        3.14163         55.1918         3.86384 
        3.15734          54.619          3.8161 
        3.17308         54.1458         3.76904 
        3.18879         53.5522         3.72291 
        3.20447         53.1805         3.67762 
         3.2202         52.4491         3.63294 
         3.2359         51.8442         3.58909 
        3.25157         51.4937         3.54606 
        3.26729         50.8695          3.5036 
        3.28304         50.4533         3.46176 
        3.29877         49.8932         3.42066 
        3.31446         49.5125         3.38031 
        3.33014         48.9318         3.34065 
        3.34585         48.3176         3.30157 
        3.36158         47.9593         3.26305 
        3.37727         47.4614         3.22527 
        3.39294         47.1082         3.18812 
        3.40867         46.6189         3.15142 
        3.42439         46.1506         3.11532 
        3.44008         45.5648         3.07985 
        3.45578         45.2443         3.04491 
        3.47153         44.7284         3.01044 
        3.48724         44.2619         2.97656 
        3.50292         43.8717         2.94328 
        3.51859         43.4002         2.91052 
        3.53431         42.8831         2.87816 
        3.55007         42.5735         2.84622 
        3.56577         42.2732         2.81488 
        3.58146         41.7452         2.78403 
        3.59719         41.3433         2.75357 
        3.61292         40.9041         2.72358 
        3.62859         40.6527         2.69414 
        3.64429         40.2758         2.66509 
        3.66003         39.8831         2.63637 
        3.67578         39.5501         2.60809 
        3.69146         39.2136         2.58033 
        3.70712         38.7616         2.55302 
        3.72284         38.4422         2.52601 
        3.73853         38.1433         2.49944 
        3.75422         37.7889         2.47323 
        3.76993         37.4207         2.44738 
        3.78564         37.1777         2.42191 
        3.80137         36.7591         2.39676 
        3.81707         36.3843         2.37203 
        3.83279         36.0673         2.34762 
        3.84853         35.7303         2.32351 
        3.86424         35.3764         2.29979 
        3.87992         35.2114         2.27643 
        3.89561         34.8695          2.2534 
        3.91134         34.6261         2.23064 
        3.92704         34.2161         2.20822 
        3.94273         33.9253         2.18613 
        3.95845         33.6602         2.16431 
        3.97418         33.3106         2.14277 
        3.98988         32.9494         2.12156 
        4.00554          32.703         2.10069 
        4.02125         32.5045         2.08004 
        4.03698         32.0981         2.05964 
        4.05268          31.855         2.03956 
        4.06839         31.4883         2.01973 
         4.0841           31.34         2.00017 
        4.09983         31.0259         1.98085 
        4.11555         30.7259         1.96178 
        4.13124         30.5052         1.94302 
        4.14693         30.2503         1.92449 
        4.16266         29.8879         1.90615 
        4.17839         29.7123         1.88807 
        4.19408         29.4501         1.87026 
        4.20977         29.1859         1.85268 
        4.22551         28.9536         1.83527 
        4.24123         28.7192         1.81811 
        4.25691         28.4548         1.80122 
        4.27259          28.297         1.78453 
        4.28831         27.9514         1.76802 
        4.30404         27.7295         1.75171 
        4.31974          27.439         1.73563 
        4.33543         27.2938         1.71977 
        4.35116         27.0462         1.70407 
        4.36688          26.824         1.68857 
        4.38255         26.6689         1.67332 
        4.39825         26.3406         1.65822 
        4.41398         26.1443         1.64328 
         4.4297         25.9101         1.62854 
        4.44541         25.7753         1.61399 
        4.46111         25.5544         1.59962 
        4.47683         25.2887         1.58542 
        4.49251         25.1051         1.57142 
        4.50819         24.9242         1.55759 
         4.5239         24.6791          1.5439 
        4.53962         24.5271         1.53037 
        4.55535          24.263         1.51699 
        4.57106         24.0904         1.50379 
        4.58678         23.8869         1.49074 
         4.6025         23.6513         1.47785 
        4.61821         23.4911         1.46511 
        4.63391         23.2612         1.45254 
         4.6496         23.0965         1.44011 
        4.66532         22.9639         1.42782 
        4.68103         22.6759         1.41567 
        4.69673         22.6039         1.40368 
        4.71241         22.3872         1.39184 
        4.72811         22.1951         1.38011 
        4.74384         22.0153         1.36851 
        4.75955         21.8801         1.35705 
        4.77525         21.6921         1.34573 
        4.79096         21.5116         1.33453 
        4.80669         21.3658         1.32345 
         4.8224         21.2063         1.31251 
        4.83809         21.0147         1.30171 
        4.85379         20.8502         1.29101 
         4.8695         20.6968         1.28043 
        4.88521         20.5231         1.26998 
        4.90093          20.359         1.25964 
        4.91663         20.2158         1.24942 
        4.93234         20.0291          1.2393 
        4.94807         19.9117         1.22929 
        4.96377         19.7877         1.21941 
        4.97943         19.5379         1.20966 
        4.99514         19.4226         1.19999 
        5.01086         19.2648         1.19042 
        5.02654         19.1554         1.18098 
        5.04227         18.9682         1.17161 
          5.058         18.8292         1.16234 
        5.07371         18.7099         1.15318 
        5.08942         18.5392         1.14413 
        5.10513         18.3979         1.13517 
        5.12084         18.2937          1.1263 
        5.13656         18.1054         1.11753 
        5.15225         17.9737         1.10887 
        5.16796         17.8659         1.10028 
        5.18369         17.7391         1.09178 
         5.1994         17.6217         1.08338 
        5.21509         17.4904         1.07508 
        5.23079         17.3482         1.06686 
        5.24649         17.2491         1.05872 
        5.26217         17.1013         1.05068 
        5.27788         16.9396         1.04271 
        5.29359         16.8398         1.03483 
        5.30933         16.7136         1.02701 
        5.32504         16.5442         1.01928 
        5.34073         16.4787         1.01165 
        5.35646         16.3496         1.00407 
        5.37218         16.1862        0.996577 
        5.38789         16.0938        0.989168 
        5.40357         15.9841        0.981843 
        5.41929         15.8732        0.974576 
        5.43502         15.7279        0.967381 
         5.4507         15.6493        0.960276 
        5.46639          15.539        0.953242 
        5.48212          15.412        0.946262 
        5.49786         15.3026        0.939343 
        5.51353         15.1889        0.932527 
        5.52921         15.0728        0.925772 
        5.54495         14.9454        0.919064 
        5.56066         14.8715         0.91243 
        5.57637         14.7425        0.905863 
        5.59207         14.6376        0.899365 
        5.60778          14.532        0.892929 
        5.62346         14.4585        0.886565 
        5.63916           14.32        0.880257 
        5.65487         14.2274        0.874007 
         5.6706         14.1376         0.86781 
        5.68633         14.0528        0.861671 
        5.70203         13.9339        0.855604 
        5.71773         13.8394        0.849596 
        5.73344         13.7429        0.843643 
        5.74916         13.6527        0.837741 
        5.76486         13.5596        0.831904 
        5.78054          13.466        0.826131 
        5.79626         13.3488        0.820397 
          5.812         13.2745        0.814712 
         5.8277         13.1863        0.809097 
        5.84339         13.0794        0.803535 
        5.85911          12.992        0.798014 
        5.87484         12.9152        0.792546 
        5.89053         12.8096        0.787141 
        5.90623         12.7109        0.781783 
        5.92195         12.6074        0.776465 
        5.93767         12.5329        0.771201 
        5.95336         12.4874        0.765993 
        5.96905         12.3754        0.760836 
        5.98476         12.3281        0.755718 
        6.00048         12.2041        0.750646 
        6.01617         12.1246        0.745628 
        6.03185          12.059        0.740661 
        6.04756         11.9619        0.735728 
        6.06331         11.8742        0.730829 
        6.07903         11.7917        0.725985 
        6.09473         11.7318        0.721189 
        6.11044         11.6331        0.716432 
        6.12616         11.5441        0.711719 
        6.14186         11.4685        0.707053 
        6.15755         11.4161        0.702429 
        6.17326         11.3193        0.697842 
        6.18898         11.2358        0.693295 
        6.20467         11.1789        0.688796 
        6.22036         11.1119        0.684337 
         6.2361         11.0187        0.679906 
         6.2518         10.9784        0.675521 
        6.26748         10.8954        0.671185 
        6.28319         10.8259        0.666874 
        6.29893         10.7493        0.662598 
        6.31463         10.6772        0.658366 
        6.33033          10.597        0.654173 
        6.34604         10.5207        0.650013 
        6.36177          10.478        0.645885 
        6.37747         10.3958        0.641801 
