# k  (h/Mpc)    Pcb(k)  (Mpc/h)^3    Pcb_linear(k) (Mpc/h)^3   ShotnoiseSubtracted = true
      0.0200456         11004.1         11191.7 
      0.0350414         7379.34         7570.37 
      0.0492313         5360.14         5389.72 
      0.0637834         4531.82         4435.23 
      0.0800726         3446.37         3358.71 
       0.096163         2348.15         2371.03 
       0.111083         1898.66         1930.91 
       0.126058         1740.78         1706.57 
       0.142273         1454.21         1377.32 
       0.158546         1197.06         1073.92 
        0.17375          975.63         932.098 
       0.188953         935.861         840.354 
       0.204907         858.416         714.789 
       0.220756         722.684         598.967 
        0.23588         639.475          533.16 
         0.2514         558.406         484.398 
       0.267535         534.146         426.396 
       0.283568         481.739         372.595 
       0.299022         448.739         336.382 
       0.314451          418.28          308.01 
       0.330372         384.241         277.949 
       0.346141         345.198         250.162 
       0.361624         332.217         228.649 
       0.377134         308.059         210.757 
       0.392932         288.686          193.35 
       0.408854         276.194         177.009 
       0.424564          262.51         163.326 
       0.440253         251.975         151.526 
       0.455999         236.133         140.545 
       0.471626         219.863         130.457 
        0.48727         212.108         121.477 
       0.502856         204.526         113.534 
       0.518488         201.182         106.203 
       0.534347         189.684         99.3371 
       0.550082         177.111         93.1446 
       0.565732         172.845         87.5624 
       0.581496         164.177         82.3861 
       0.597222         159.609         77.6122 
       0.612804         153.466         73.2509 
       0.628434         148.371         69.2295 
       0.644267         143.323         65.4682 
       0.660051         141.354         61.9927 
       0.675724         137.429         58.7877 
       0.691403          133.07         55.8054 
       0.707174         127.508         53.0122 
       0.722871         126.103         50.4205 
        0.73838         123.213          48.029 
       0.754018         118.882          45.774 
       0.769845         115.709         43.6389 
        0.78569         113.417         41.6377 
       0.801365         109.951         39.7816 
       0.817031         106.126         38.0398 
       0.832809         104.742         36.3911 
       0.848511         101.578         34.8474 
       0.864097         99.4231         33.4038 
       0.879701         97.4457         32.0404 
       0.895507         95.1637          30.737 
       0.911279         93.2955         29.5087 
        0.92691         92.0612         28.3576 
       0.942635         89.2905         27.2614 
       0.958396         88.9996         26.2207 
       0.974128         86.5043         25.2361 
       0.989692         84.4175         24.3117 
        1.00528         82.5897         23.4321 
        1.02113         81.8184         22.5822 
        1.03692         78.8237         21.7776 
        1.05264         78.6704         21.0158 
        1.06832         76.4753         20.2915 
        1.08405         75.3848         19.5994 
        1.09979         75.0699         18.9391 
        1.11537         72.4141         18.3158 
        1.13105         72.4519         17.7167 
        1.14679         71.1525         17.1421 
        1.16256         70.1053         16.5918 
        1.17828         68.4329         16.0674 
        1.19395          67.374         15.5674 
         1.2097         65.8707         15.0861 
        1.22537         66.0572         14.6275 
          1.241         64.4652         14.1892 
        1.25666          63.071         13.7678 
        1.27241         62.2989         13.3615 
        1.28819         61.2501         12.9708 
        1.30392         60.5042         12.5969 
        1.31957         59.7878         12.2394 
        1.33529         58.5269         11.8944 
        1.35108         58.2573         11.5612 
        1.36674         57.6088         11.2432 
         1.3824         56.3346         10.9374 
        1.39811         55.7294          10.642 
        1.41389         54.9697         10.3563 
        1.42964         54.3157         10.0815 
        1.44531         53.2699         9.81803 
        1.46101         52.4754         9.56338 
        1.47667         52.4879         9.31849 
        1.49229         51.5345          9.0828 
        1.50793          51.128         8.85498 
        1.52367         50.0704         8.63348 
        1.53953         49.5227         8.41806 
        1.55526         49.0881         8.21167 
        1.57092         48.7021         8.01304 
        1.58662         47.8498         7.82049 
        1.60235         47.3959         7.63387 
        1.61809         46.8166         7.45323 
        1.63369         46.0047         7.28001 
        1.64941         45.6695         7.11105 
        1.66519         44.7524         6.94682 
        1.68085         44.5235         6.78893 
        1.69652         43.7519         6.63589 
        1.71228         43.4961         6.48668 
        1.72806         43.0712         6.34192 
        1.74368         42.3694         6.20302 
        1.75933         42.0149         6.06798 
        1.77505         41.5179         5.93632 
        1.79081         41.0597         5.80832 
         1.8065         40.6864         5.68463 
        1.82218         40.1286         5.56464 
        1.83797         39.5616         5.44728 
        1.85367          39.149         5.33394 
        1.86928         38.6249         5.22449 
        1.88497         38.4868          5.1175 
        1.90073         37.8956         5.01311 
        1.91647         37.5246         4.91171 
        1.93218         37.2103         4.81332 
        1.94787         36.7492         4.71776 
        1.96363         36.3842          4.6244 
        1.97935         35.8886         4.53375 
        1.99499         35.5844         4.44604 
        2.01064         35.2693         4.36051 
         2.0264         34.6207         4.27668 
        2.04216         34.4849         4.19509 
        2.05781         33.9746         4.11614 
        2.07353         33.6571         4.03893 
        2.08928         33.4901         3.96352 
        2.10499         32.9615         3.89023 
        2.12065         32.5797         3.81901 
        2.13633         32.4521          3.7495 
        2.15211         32.0632         3.68126 
        2.16785         31.5041         3.61491 
        2.18349         31.2887          3.5506 
        2.19916         31.0795         3.48771 
        2.21489          30.688         3.42614 
        2.23063         30.3335           3.366 
         2.2463          29.949         3.30757 
        2.26194         29.6706         3.25066 
        2.27765          29.394          3.1948 
        2.29341         29.1247          3.1401 
        2.30914         28.8636         3.08678 
        2.32486         28.4929         3.03473 
        2.34061          28.282         2.98379 
        2.35635         28.0133         2.93405 
        2.37203         27.7637         2.88562 
        2.38768         27.4272         2.83838 
        2.40339          27.272         2.79201 
        2.41914         27.0089         2.74658 
        2.43483         26.6166          2.7023 
         2.4505         26.4376         2.65908 
        2.46622         26.1663         2.61664 
        2.48195         25.9624         2.57513 
        2.49759         25.6944         2.53473 
        2.51328         25.3263         2.49509 
        2.52906         25.2197         2.45604 
        2.54479         24.8743         2.41798 
        2.56049         24.6697         2.38078 
        2.57618         24.3991          2.3444 
        2.59189         24.2854         2.30872 
        2.60758         24.0445         2.27384 
        2.62325         23.7077         2.23971 
        2.63898         23.6053         2.20617 
        2.65468         23.3069         2.17337 
        2.67044         23.1387          2.1411 
        2.68618         22.8688         2.10956 
        2.70184         22.6438         2.07878 
        2.71755         22.5016         2.04853 
        2.73329         22.2594         2.01883 
        2.74897         22.0033         1.98982 
        2.76462         21.8107         1.96143 
        2.78034         21.7283         1.93348 
        2.79607         21.5341         1.90605 
        2.81179         21.2325         1.87917 
        2.82749         21.1103         1.85284 
        2.84321         20.8475         1.82699 
        2.85893         20.5996         1.80163 
        2.87462         20.4815         1.77679 
        2.89033         20.3702          1.7524 
        2.90605         20.1406         1.72844 
        2.92176         20.0021         1.70494 
        2.93747         19.8321         1.68189 
        2.95318          19.573         1.65925 
        2.96891         19.4543         1.63702 
        2.98456         19.2702          1.6153 
        3.00023          19.026         1.59393 
        3.01596         18.8857         1.57288 
        3.03164         18.7364         1.55227 
        3.04738         18.5676         1.53197 
         3.0631           18.42         1.51204 
        3.07883         18.2773         1.49246 
        3.09456         18.0462         1.47322 
        3.11026         17.8936         1.45435 
        3.12596         17.7715         1.43582 
        3.14163         17.6318         1.41764 
        3.15734         17.4734         1.39974 
        3.17308         17.2865         1.38211 
        3.18879         17.1623         1.36482 
        3.20447         16.9885         1.34785 
         3.2202         16.8559         1.33112 
         3.2359         16.6454          1.3147 
        3.25157         16.5931         1.29859 
        3.26729         16.4499          1.2827 
        3.28304         16.3034         1.26705 
        3.29877         16.0773         1.25168 
        3.31446          15.963         1.23659 
        3.33014         15.8356         1.22177 
        3.34585           15.67         1.20716 
        3.36158          15.572         1.19277 
        3.37727         15.4053         1.17866 
        3.39294         15.2665         1.16479 
        3.40867         15.1276         1.15109 
        3.42439         15.0393         1.13762 
        3.44008         14.8968         1.12438 
        3.45578         14.7339         1.11135 
        3.47153          14.648         1.09849 
        3.48724         14.4807         1.08586 
        3.50292         14.4178         1.07346 
        3.51859         14.2364         1.06125 
        3.53431         14.1582          1.0492 
        3.55007         14.0307          1.0373 
        3.56577          13.896         1.02563 
        3.58146         13.8168         1.01415 
        3.59719          13.652         1.00282 
        3.61292         13.5536        0.991656 
        3.62859         13.4242        0.980707 
        3.64429         13.3357        0.969902 
        3.66003         13.2241        0.959226 
        3.67578         13.1374        0.948714 
        3.69146         13.0437        0.938398 
        3.70712         12.8828        0.928253 
        3.72284         12.8249         0.91822 
        3.73853          12.682        0.908352 
        3.75422         12.5245        0.898624 
        3.76993         12.4673         0.88903 
        3.78564         12.3451        0.879579 
        3.80137         12.2772        0.870249 
        3.81707         12.1591        0.861073 
        3.83279         12.0652        0.852022 
        3.84853         11.9513        0.843085 
        3.86424         11.8295        0.834293 
        3.87992         11.7302        0.825639 
        3.89561         11.6419        0.817107 
        3.91134         11.5581        0.808677 
        3.92704         11.4643        0.800375 
        3.94273         11.3745        0.792197 
        3.95845         11.2668        0.784118 
        3.97418         11.2066        0.776149 
        3.98988         11.0743        0.768301 
        4.00554         11.0309        0.760583 
        4.02125         10.9384        0.752947 
        4.03698          10.804        0.745405 
        4.05268         10.7434        0.737982 
        4.06839         10.6722        0.730654 
         4.0841         10.5465        0.723427 
        4.09983         10.4439        0.716287 
        4.11555         10.4036        0.709247 
        4.13124         10.3095        0.702319 
        4.14693         10.2537        0.695478 
        4.16266         10.1327        0.688711 
        4.17839         10.0643        0.682038 
        4.19408         9.98966        0.675468 
        4.20977         9.91413        0.668982 
        4.22551         9.81703        0.662564 
        4.24123         9.75926        0.656237 
        4.25691         9.67927        0.650009 
        4.27259         9.60365         0.64386 
        4.28831         9.52222        0.637777 
        4.30404         9.43411        0.631767 
        4.31974         9.37785        0.625847 
        4.33543         9.31354        0.620006 
        4.35116         9.22435        0.614224 
        4.36688         9.16715        0.608519 
        4.38255         9.08741        0.602906 
        4.39825         9.01293        0.597352 
        4.41398         8.94375        0.591856 
         4.4297         8.84799        0.586436 
        4.44541         8.79337        0.581083 
        4.46111         8.74287        0.575801 
        4.47683         8.67249         0.57058 
        4.49251         8.62041        0.565435 
        4.50819         8.53381        0.560354 
         4.5239         8.46756        0.555327 
        4.53962         8.41553        0.550356 
        4.55535         8.34553        0.545443 
        4.57106         8.27057        0.540596 
        4.58678         8.21266        0.535807 
         4.6025         8.14296        0.531075 
        4.61821         8.07146          0.5264 
        4.63391         8.02876        0.521787 
         4.6496         7.98094        0.517231 
        4.66532         7.90167        0.512723 
        4.68103         7.85076        0.508269 
        4.69673         7.78847        0.503873 
        4.71241          7.7234        0.499532 
        4.72811         7.64851        0.495235 
        4.74384         7.62135        0.490983 
        4.75955         7.55473        0.486787 
        4.77525         7.51419        0.482642 
        4.79096         7.44288         0.47854 
        4.80669         7.38339        0.474484 
         4.8224         7.32481        0.470479 
        4.83809         7.27799        0.466524 
        4.85379         7.21682        0.462612 
         4.8695          7.1665        0.458741 
        4.88521          7.1258        0.454916 
        4.90093         7.04813        0.451134 
        4.91663          7.0115        0.447398 
        4.93234         6.95353          0.4437 
        4.94807         6.90194        0.440041 
        4.96377         6.84993         0.43643 
        4.97943         6.82839        0.432867 
        4.99514         6.75203        0.429334 
        5.01086         6.70035        0.425838 
        5.02654         6.64872        0.422389 
        5.04227         6.62048        0.418968 
          5.058         6.56491        0.415583 
        5.07371         6.52788        0.412243 
        5.08942         6.47245        0.408938 
        5.10513         6.41695        0.405669 
        5.12084         6.38736        0.402433 
        5.13656         6.34391        0.399234 
        5.15225          6.2828        0.396074 
        5.16796         6.24659        0.392944 
        5.18369         6.19701        0.389844 
         5.1994         6.14691        0.386783 
        5.21509         6.12257        0.383757 
        5.23079          6.0604        0.380761 
        5.24649         6.03028        0.377798 
        5.26217         5.98431        0.374869 
        5.27788         5.94752        0.371966 
        5.29359         5.91371        0.369094 
        5.30933          5.8739        0.366247 
        5.32504         5.82602        0.363435 
        5.34073         5.78349        0.360656 
        5.35646         5.74611          0.3579 
        5.37218         5.71739        0.355172 
        5.38789          5.6725        0.352476 
        5.40357         5.62107        0.349812 
        5.41929         5.59147        0.347169 
        5.43502         5.55645        0.344553 
         5.4507         5.52313         0.34197 
        5.46639         5.47268        0.339412 
        5.48212         5.43619        0.336875 
        5.49786         5.40729        0.334361 
        5.51353         5.35112        0.331885 
        5.52921         5.34381        0.329431 
        5.54495         5.30229        0.326994 
        5.56066         5.26876        0.324585 
        5.57637          5.2209          0.3222 
        5.59207         5.19763        0.319841 
        5.60778         5.15185        0.317505 
        5.62346         5.11668        0.315195 
        5.63916         5.08369        0.312906 
        5.65487         5.05052        0.310638 
         5.6706         5.02778         0.30839 
        5.68633         4.98736        0.306164 
        5.70203          4.9593        0.303963 
        5.71773         4.92338        0.301785 
        5.73344         4.88929        0.299626 
        5.74916         4.85192        0.297487 
        5.76486         4.83059        0.295371 
        5.78054         4.79857        0.293279 
        5.79626         4.75799        0.291202 
          5.812          4.7389        0.289142 
         5.8277         4.70223        0.287108 
        5.84339         4.67164        0.285094 
        5.85911         4.63954        0.283094 
        5.87484         4.62174        0.281115 
        5.89053         4.58994        0.279158 
        5.90623         4.55617        0.277218 
        5.92195         4.52338        0.275294 
        5.93767         4.48849        0.273389 
        5.95336         4.46688        0.271505 
        5.96905         4.44215        0.269639 
        5.98476         4.40702        0.267788 
        6.00048         4.39063        0.265954 
        6.01617         4.35812        0.264139 
        6.03185         4.32129        0.262343 
        6.04756         4.30631         0.26056 
        6.06331         4.26901        0.258789 
        6.07903          4.2477        0.257039 
        6.09473         4.22856        0.255306 
        6.11044         4.18681        0.253587 
        6.12616         4.16667        0.251885 
        6.14186         4.13959        0.250199 
        6.15755         4.10973         0.24853 
        6.17326         4.09433        0.246874 
        6.18898         4.06943        0.245232 
        6.20467         4.03881        0.243608 
        6.22036         4.01858        0.241998 
         6.2361         3.99183        0.240399 
         6.2518         3.96244        0.238817 
        6.26748         3.94425        0.237252 
        6.28319         3.91898        0.235698 
        6.29893         3.89232        0.234155 
        6.31463         3.86812        0.232629 
        6.33033         3.85387        0.231117 
        6.34604         3.82879        0.229617 
        6.36177         3.80119        0.228129 
        6.37747         3.78635        0.226657 
