# k  (h/Mpc)    Pcb(k)  (Mpc/h)^3    Pcb_linear(k) (Mpc/h)^3   ShotnoiseSubtracted = true
      0.0200456         4913.42         4973.26 
      0.0350414         3443.88         3364.04 
      0.0492313         2395.33         2395.03 
      0.0637834         1928.58         1970.88 
      0.0800726         1460.29         1492.51 
       0.096163         1088.76         1053.61 
       0.111083         892.471         858.036 
       0.126058         754.104         758.346 
       0.142273         616.146         612.038 
       0.158546         495.115         477.218 
        0.17375          435.06         414.196 
       0.188953          393.54         373.428 
       0.204907         325.509         317.631 
       0.220756         286.258         266.163 
        0.23588         254.745          236.92 
         0.2514         228.909         215.252 
       0.267535         212.017         189.478 
       0.283568         183.872          165.57 
       0.299022         171.693         149.478 
       0.314451         164.291          136.87 
       0.330372         143.145         123.512 
       0.346141         130.993         111.164 
       0.361624          121.92         101.605 
       0.377134         111.372         93.6541 
       0.392932         107.496         85.9189 
       0.408854         99.7709         78.6575 
       0.424564         94.7949         72.5769 
       0.440253         86.1363         67.3336 
       0.455999         79.0937         62.4541 
       0.471626         75.7846         57.9713 
        0.48727         73.2095         53.9807 
       0.502856         67.4165          50.451 
       0.518488         64.6051         47.1934 
       0.534347         60.7237         44.1424 
       0.550082          58.637         41.3906 
       0.565732         56.6255         38.9101 
       0.581496         52.3229         36.6099 
       0.597222          50.277         34.4885 
       0.612804         48.2054         32.5505 
       0.628434         47.1632         30.7635 
       0.644267         44.4953         29.0921 
       0.660051         42.6609         27.5477 
       0.675724         41.0166         26.1235 
       0.691403         40.1878         24.7982 
       0.707174         38.6418          23.557 
       0.722871         37.4608         22.4053 
        0.73838         35.7435         21.3426 
       0.754018         33.7748         20.3406 
       0.769845         33.2472         19.3918 
        0.78569         32.0506         18.5025 
       0.801365         31.0405         17.6777 
       0.817031         29.7746         16.9037 
       0.832809          29.176         16.1711 
       0.848511         28.2217         15.4851 
       0.864097         27.5106         14.8436 
       0.879701         26.9424         14.2378 
       0.895507         25.8936         13.6586 
       0.911279         25.0795         13.1128 
        0.92691         24.6179         12.6012 
       0.942635          24.034         12.1141 
       0.958396         23.4757         11.6517 
       0.974128         22.8291         11.2142 
       0.989692         21.8664         10.8034 
        1.00528         21.6298         10.4125 
        1.02113         21.0071         10.0349 
        1.03692         20.6288          9.6773 
        1.05264         20.1731         9.33877 
        1.06832         19.7627         9.01693 
        1.08405         19.1783         8.70939 
        1.09979          18.909         8.41598 
        1.11537         18.2705         8.13897 
        1.13105         18.0009         7.87276 
        1.14679         17.5256         7.61742 
        1.16256         17.2601         7.37288 
        1.17828         16.9543         7.13986 
        1.19395         16.6171         6.91768 
         1.2097         16.2944         6.70381 
        1.22537         15.9594         6.49999 
          1.241         15.6094         6.30525 
        1.25666         15.3833         6.11799 
        1.27241         15.1414         5.93744 
        1.28819         14.5451         5.76385 
        1.30392         14.6686         5.59769 
        1.31957         14.2697          5.4388 
        1.33529         14.0252         5.28549 
        1.35108         13.8377         5.13746 
        1.36674         13.5602         4.99615 
         1.3824         13.2843         4.86027 
        1.39811         13.0334         4.72897 
        1.41389         12.8727         4.60201 
        1.42964           12.71         4.47992 
        1.44531         12.4949         4.36283 
        1.46101         12.3273         4.24967 
        1.47667         12.0943         4.14085 
        1.49229         11.8052         4.03612 
        1.50793         11.7238         3.93488 
        1.52367         11.5608         3.83646 
        1.53953         11.3896         3.74073 
        1.55526         11.1474         3.64902 
        1.57092         11.1114         3.56075 
        1.58662         10.9243         3.47519 
        1.60235         10.7699         3.39226 
        1.61809         10.5945         3.31199 
        1.63369         10.4359         3.23502 
        1.64941         10.2908         3.15993 
        1.66519         10.1866         3.08696 
        1.68085         9.95606          3.0168 
        1.69652         9.96429         2.94879 
        1.71228         9.77505         2.88248 
        1.72806         9.62812         2.81816 
        1.74368         9.52462         2.75643 
        1.75933         9.41651         2.69643 
        1.77505          9.2722         2.63792 
        1.79081         9.16429         2.58104 
         1.8065         9.08676         2.52608 
        1.82218           9.007         2.47276 
        1.83797         8.87351          2.4206 
        1.85367         8.77983         2.37024 
        1.86928         8.65003          2.3216 
        1.88497         8.56512         2.27406 
        1.90073          8.4357         2.22767 
        1.91647         8.25496         2.18261 
        1.93218          8.2466         2.13889 
        1.94787         8.10643         2.09643 
        1.96363         8.04664         2.05494 
        1.97935         7.95371         2.01466 
        1.99499         7.85407         1.97569 
        2.01064         7.76679         1.93768 
         2.0264         7.65893         1.90043 
        2.04216         7.66526         1.86417 
        2.05781         7.56319         1.82909 
        2.07353         7.45761         1.79478 
        2.08928           7.369         1.76127 
        2.10499         7.29094          1.7287 
        2.12065         7.23114         1.69705 
        2.13633          7.1318         1.66616 
        2.15211         7.07876         1.63584 
        2.16785         6.97785         1.60636 
        2.18349         6.92906         1.57778 
        2.19916         6.86824         1.54983 
        2.21489         6.80013         1.52247 
        2.23063         6.74949         1.49575 
         2.2463         6.63489         1.46978 
        2.26194         6.57127          1.4445 
        2.27765           6.509         1.41967 
        2.29341         6.42357         1.39536 
        2.30914         6.41251         1.37167 
        2.32486         6.33321         1.34854 
        2.34061          6.2895          1.3259 
        2.35635         6.22722          1.3038 
        2.37203         6.14376         1.28228 
        2.38768         6.08318         1.26129 
        2.40339         6.03574         1.24069 
        2.41914         5.97613         1.22049 
        2.43483         5.96598         1.20082 
         2.4505         5.87802         1.18161 
        2.46622         5.80898         1.16276 
        2.48195         5.80348         1.14431 
        2.49759         5.70436         1.12636 
        2.51328         5.67315         1.10874 
        2.52906         5.61041         1.09139 
        2.54479         5.56636         1.07447 
        2.56049         5.49776         1.05795 
        2.57618         5.47576         1.04178 
        2.59189         5.47489         1.02593 
        2.60758         5.37677         1.01042 
        2.62325         5.31491         0.99526 
        2.63898         5.32596        0.980353 
        2.65468         5.25208        0.965781 
        2.67044          5.2228        0.951442 
        2.68618         5.14221        0.937425 
        2.70184         5.13323        0.923746 
        2.71755         5.07817        0.910304 
        2.73329         5.01319        0.897107 
        2.74897         4.98379        0.884214 
        2.76462         4.96443        0.871601 
        2.78034          4.9139        0.859182 
        2.79607         4.88995         0.84699 
        2.81179         4.83312        0.835047 
        2.82749         4.78653        0.823347 
        2.84321         4.76456        0.811857 
        2.85893         4.72296        0.800589 
        2.87462          4.6966        0.789553 
        2.89033         4.64343        0.778713 
        2.90605         4.61541        0.768067 
        2.92176         4.56926        0.757624 
        2.93747         4.53585         0.74738 
        2.95318         4.50035        0.737322 
        2.96891         4.46374        0.727443 
        2.98456         4.43286        0.717789 
        3.00023         4.41285        0.708295 
        3.01596         4.35298        0.698942 
        3.03164         4.33189        0.689783 
        3.04738         4.30219        0.680762 
         3.0631         4.27592        0.671903 
        3.07883         4.23956        0.663202 
        3.09456         4.18839        0.654655 
        3.11026          4.1708        0.646271 
        3.12596         4.14708        0.638034 
        3.14163         4.11344        0.629958 
        3.15734         4.07993        0.622003 
        3.17308         4.07238        0.614166 
        3.18879         4.02315        0.606484 
        3.20447         4.00308        0.598944 
         3.2202         3.96782        0.591509 
         3.2359         3.93603        0.584212 
        3.25157         3.91256        0.577055 
        3.26729         3.89297        0.569995 
        3.28304         3.85788        0.563039 
        3.29877         3.83308        0.556208 
        3.31446         3.82081        0.549505 
        3.33014          3.7742        0.542917 
        3.34585         3.75434        0.536426 
        3.36158         3.72456        0.530032 
        3.37727         3.69578        0.523761 
        3.39294          3.6782        0.517597 
        3.40867         3.65819        0.511509 
        3.42439         3.62542        0.505522 
        3.44008         3.60646        0.499642 
        3.45578         3.57322        0.493851 
        3.47153         3.54808        0.488138 
        3.48724         3.52657        0.482525 
        3.50292         3.49924        0.477013 
        3.51859         3.47793        0.471589 
        3.53431         3.45503        0.466232 
        3.55007         3.44041        0.460946 
        3.56577         3.40453        0.455761 
        3.58146         3.39119        0.450658 
        3.59719         3.37415        0.445621 
        3.61292         3.34226        0.440662 
        3.62859         3.32615        0.435797 
        3.64429         3.30286        0.430995 
        3.66003         3.28399        0.426251 
        3.67578         3.27052         0.42158 
        3.69146         3.24077        0.416996 
        3.70712         3.22965        0.412488 
        3.72284         3.20643        0.408029 
        3.73853         3.17659        0.403644 
        3.75422         3.15219        0.399321 
        3.76993         3.14449        0.395058 
        3.78564         3.11928        0.390858 
        3.80137         3.09477        0.386712 
        3.81707         3.07825        0.382635 
        3.83279         3.05703        0.378613 
        3.84853          3.0308        0.374641 
        3.86424         3.01606        0.370735 
        3.87992         3.00382        0.366889 
        3.89561          2.9791        0.363097 
        3.91134         2.95793        0.359351 
        3.92704         2.93626        0.355662 
        3.94273         2.92521        0.352028 
        3.95845         2.90648        0.348438 
        3.97418         2.88533        0.344897 
        3.98988         2.87043         0.34141 
        4.00554         2.84727         0.33798 
        4.02125         2.82485        0.334587 
        4.03698         2.80937        0.331235 
        4.05268         2.78911        0.327937 
        4.06839         2.77024         0.32468 
         4.0841         2.75246        0.321469 
        4.09983         2.74079        0.318296 
        4.11555         2.72002        0.315168 
        4.13124         2.70002        0.312089 
        4.14693          2.6866        0.309049 
        4.16266         2.66895        0.306042 
        4.17839         2.64664        0.303077 
        4.19408         2.63505        0.300158 
        4.20977         2.62369        0.297275 
        4.22551          2.5966        0.294423 
        4.24123          2.5861        0.291612 
        4.25691         2.56844        0.288844 
        4.27259         2.54967        0.286112 
        4.28831         2.52971        0.283409 
        4.30404         2.52407        0.280738 
        4.31974         2.50283        0.278107 
        4.33543         2.49111        0.275512 
        4.35116         2.47612        0.272943 
        4.36688         2.45835        0.270407 
        4.38255         2.44762        0.267913 
        4.39825         2.43406        0.265445 
        4.41398         2.41548        0.263003 
         4.4297          2.4052        0.260594 
        4.44541         2.38409        0.258216 
        4.46111          2.3704        0.255868 
        4.47683          2.3571        0.253549 
        4.49251         2.34444        0.251262 
        4.50819         2.32741        0.249004 
         4.5239         2.31299        0.246771 
        4.53962         2.30252        0.244561 
        4.55535         2.28966        0.242378 
        4.57106         2.27301        0.240225 
        4.58678         2.26209        0.238097 
         4.6025         2.25159        0.235994 
        4.61821         2.23905        0.233916 
        4.63391         2.22393        0.231866 
         4.6496         2.20841        0.229842 
        4.66532         2.19897        0.227838 
        4.68103         2.18524        0.225859 
        4.69673         2.17382        0.223906 
        4.71241         2.16542        0.221977 
        4.72811         2.15401        0.220067 
        4.74384         2.14013        0.218178 
        4.75955         2.12663        0.216313 
        4.77525         2.11546        0.214472 
        4.79096         2.10397        0.212649 
        4.80669         2.09409        0.210846 
         4.8224         2.07761        0.209066 
        4.83809         2.07284        0.207309 
        4.85379         2.06408        0.205571 
         4.8695         2.05235        0.203851 
        4.88521         2.03313        0.202151 
        4.90093         2.03046         0.20047 
        4.91663         2.01659         0.19881 
        4.93234         2.00698        0.197167 
        4.94807         1.99541        0.195541 
        4.96377         1.99012        0.193936 
        4.97943         1.97607        0.192353 
        4.99514         1.96538        0.190783 
        5.01086         1.95935        0.189229 
        5.02654         1.94315        0.187697 
        5.04227         1.93682        0.186177 
          5.058         1.92854        0.184673 
        5.07371         1.91911        0.183188 
        5.08942         1.90615         0.18172 
        5.10513         1.89969        0.180267 
        5.12084         1.88686        0.178829 
        5.13656         1.87908        0.177407 
        5.15225         1.86589        0.176003 
        5.16796          1.8626        0.174612 
        5.18369         1.85141        0.173235 
         5.1994         1.84039        0.171875 
        5.21509         1.83055         0.17053 
        5.23079         1.82646        0.169198 
        5.24649         1.81629        0.167882 
        5.26217         1.80761         0.16658 
        5.27788         1.79716         0.16529 
        5.29359         1.79365        0.164014 
        5.30933         1.77876        0.162749 
        5.32504          1.7731          0.1615 
        5.34073         1.76685        0.160264 
        5.35646         1.75487         0.15904 
        5.37218         1.74782        0.157827 
        5.38789         1.74025         0.15663 
        5.40357         1.73387        0.155446 
        5.41929         1.72699        0.154271 
        5.43502         1.71705        0.153109 
         5.4507         1.70794        0.151961 
        5.46639          1.6976        0.150825 
        5.48212         1.69164        0.149697 
        5.49786         1.68468         0.14858 
        5.51353         1.68183        0.147479 
        5.52921         1.66937        0.146389 
        5.54495         1.66284        0.145306 
        5.56066         1.65702        0.144236 
        5.57637         1.64664        0.143176 
        5.59207         1.64019        0.142128 
        5.60778         1.63676         0.14109 
        5.62346         1.62526        0.140063 
        5.63916         1.61581        0.139046 
        5.65487         1.61201        0.138038 
         5.6706          1.6045        0.137039 
        5.68633         1.59792         0.13605 
        5.70203         1.59211        0.135072 
        5.71773         1.58489        0.134104 
        5.73344         1.57883        0.133145 
        5.74916         1.56826        0.132194 
        5.76486         1.56616        0.131254 
        5.78054          1.5599        0.130324 
        5.79626         1.55056        0.129401 
          5.812         1.53839        0.128486 
         5.8277          1.5355        0.127582 
        5.84339          1.5327        0.126687 
        5.85911         1.52439        0.125799 
        5.87484         1.51722        0.124919 
        5.89053         1.51384        0.124049 
        5.90623         1.50793        0.123187 
        5.92195         1.49815        0.122332 
        5.93767         1.49551        0.121486 
        5.95336         1.48544        0.120648 
        5.96905         1.48137        0.119819 
        5.98476         1.47676        0.118997 
        6.00048         1.47069        0.118182 
        6.01617          1.4659        0.117375 
        6.03185         1.45642        0.116577 
        6.04756         1.45541        0.115785 
        6.06331         1.44615        0.114998 
        6.07903         1.44052         0.11422 
        6.09473         1.43611         0.11345 
        6.11044         1.43238        0.112687 
        6.12616          1.4257         0.11193 
        6.14186         1.41935        0.111181 
        6.15755         1.41423        0.110439 
        6.17326         1.40706        0.109703 
        6.18898         1.40245        0.108974 
        6.20467         1.39903        0.108252 
        6.22036         1.39398        0.107537 
         6.2361         1.38914        0.106826 
         6.2518         1.38239        0.106123 
        6.26748         1.37729        0.105428 
        6.28319         1.37266        0.104737 
        6.29893         1.36531        0.104051 
        6.31463         1.35944        0.103373 
        6.33033         1.35559        0.102701 
        6.34604         1.35083        0.102035 
        6.36177         1.34738        0.101374 
        6.37747         1.34351         0.10072 
