# k  (h/Mpc)    Pcb(k)  (Mpc/h)^3    Pcb_linear(k) (Mpc/h)^3   ShotnoiseSubtracted = true
      0.0200456         10561.4         10701.8 
      0.0350414         7457.21         7238.98 
      0.0492313         5126.46         5153.79 
      0.0637834         4108.41         4241.08 
      0.0800726          3107.2         3211.68 
       0.096163         2370.97         2267.24 
       0.111083         1949.86         1846.38 
       0.126058         1626.18         1631.86 
       0.142273         1348.45         1317.03 
       0.158546         1093.73         1026.91 
        0.17375         967.076         891.296 
       0.188953         889.106         803.569 
       0.204907         740.899           683.5 
       0.220756         658.613         572.748 
        0.23588         588.371         509.822 
         0.2514         525.133         463.194 
       0.267535         501.478         407.731 
       0.283568         434.704         356.285 
       0.299022         413.178         321.657 
       0.314451         411.187         294.527 
       0.330372          351.51         265.782 
       0.346141         324.579         239.211 
       0.361624         307.821         218.641 
       0.377134         284.927         201.532 
       0.392932         275.717         184.886 
       0.408854         261.125         169.261 
       0.424564          250.58         156.176 
       0.440253         225.783         144.893 
       0.455999         213.728         134.393 
       0.471626         211.571         124.747 
        0.48727         201.065          116.16 
       0.502856         183.404         108.564 
       0.518488         183.097         101.554 
       0.534347         169.971         94.9887 
       0.550082         165.606         89.0673 
       0.565732         163.536         83.7295 
       0.581496         151.632         78.7798 
       0.597222         148.039         74.2149 
       0.612804         142.817         70.0444 
       0.628434         138.627         66.1991 
       0.644267         131.477         62.6024 
       0.660051         128.204         59.2791 
       0.675724         126.313         56.2143 
       0.691403         123.015         53.3626 
       0.707174         118.403         50.6917 
       0.722871         116.379         48.2134 
        0.73838         114.463         45.9266 
       0.754018         107.404         43.7703 
       0.769845         107.096         41.7286 
        0.78569         103.978         39.8151 
       0.801365         100.385         38.0402 
       0.817031         97.5844         36.3746 
       0.832809           95.69         34.7981 
       0.848511         93.3893          33.322 
       0.864097         91.6145         31.9416 
       0.879701         90.1121         30.6379 
       0.895507         87.0507         29.3916 
       0.911279         85.0959          28.217 
        0.92691         83.1783         27.1162 
       0.942635         81.1177          26.068 
       0.958396         80.8303         25.0729 
       0.974128         78.9288         24.1314 
       0.989692         76.8625         23.2475 
        1.00528         75.6277         22.4064 
        1.02113         73.7312         21.5937 
        1.03692         73.5392         20.8243 
        1.05264         72.4528         20.0958 
        1.06832         70.0172         19.4033 
        1.08405         69.1933         18.7415 
        1.09979         68.5962         18.1101 
        1.11537         66.6787          17.514 
        1.13105         65.5877         16.9412 
        1.14679         64.7259         16.3917 
        1.16256         63.3731         15.8655 
        1.17828         62.9051         15.3641 
        1.19395         61.2518          14.886 
         1.2097         61.1183         14.4257 
        1.22537         59.6194         13.9872 
          1.241         59.4947         13.5681 
        1.25666         57.3063         13.1651 
        1.27241         57.1582         12.7766 
        1.28819         56.6082         12.4031 
        1.30392         55.3822         12.0455 
        1.31957         55.0729         11.7036 
        1.33529         54.2044         11.3737 
        1.35108         53.6815         11.0552 
        1.36674         52.6446         10.7511 
         1.3824         52.0505         10.4587 
        1.39811         50.9715         10.1761 
        1.41389         50.2934         9.90294 
        1.42964         49.7904         9.64021 
        1.44531         49.1697         9.38826 
        1.46101         48.7264         9.14475 
        1.47667         47.9432         8.91058 
        1.49229         47.2323         8.68522 
        1.50793         46.7691         8.46737 
        1.52367         46.4108         8.25556 
        1.53953         45.7275         8.04957 
        1.55526         44.7987         7.85222 
        1.57092         44.7428         7.66228 
        1.58662         44.1317         7.47816 
        1.60235         43.5392         7.29971 
        1.61809         42.7951         7.12697 
        1.63369          42.274         6.96134 
        1.64941         41.9481         6.79977 
        1.66519          41.128         6.64274 
        1.68085         40.8204         6.49176 
        1.69652          40.151         6.34541 
        1.71228         39.8869         6.20273 
        1.72806         39.4818         6.06431 
        1.74368         38.8394         5.93149 
        1.75933         38.6462         5.80236 
        1.77505         38.1414         5.67647 
        1.79081         37.7789         5.55407 
         1.8065         37.3596          5.4358 
        1.82218         36.4726         5.32106 
        1.83797         36.2088         5.20883 
        1.85367         35.9308         5.10045 
        1.86928         35.7115         4.99579 
        1.88497         35.1031         4.89349 
        1.90073         34.7385         4.79367 
        1.91647         34.6023         4.69671 
        1.93218         34.3332         4.60262 
        1.94787          33.827         4.51124 
        1.96363         33.3434         4.42198 
        1.97935         33.0358          4.3353 
        1.99499         32.7151         4.25142 
        2.01064         32.1809         4.16964 
         2.0264         32.1538         4.08948 
        2.04216         31.7552         4.01146 
        2.05781         31.4157         3.93596 
        2.07353         30.8991         3.86213 
        2.08928         30.9152         3.79002 
        2.10499         30.5248         3.71994 
        2.12065         30.1115         3.65184 
        2.13633         30.0092         3.58537 
        2.15211         29.5007         3.52012 
        2.16785         29.1017         3.45667 
        2.18349         28.9053         3.39518 
        2.19916         28.6121         3.33504 
        2.21489         28.4266         3.27616 
        2.23063         28.0824         3.21866 
         2.2463          27.894         3.16278 
        2.26194         27.5326         3.10837 
        2.27765         27.2397         3.05495 
        2.29341         26.9359         3.00264 
        2.30914         26.6641         2.95166 
        2.32486          26.417         2.90189 
        2.34061         26.1776         2.85318 
        2.35635         25.9268         2.80562 
        2.37203         25.7167         2.75931 
        2.38768         25.5016         2.71413 
        2.40339         25.2534          2.6698 
        2.41914         25.0452         2.62635 
        2.43483         24.8622         2.58401 
         2.4505         24.5372         2.54268 
        2.46622         24.2213          2.5021 
        2.48195         24.0829          2.4624 
        2.49759          23.752         2.42378 
        2.51328         23.5292         2.38587 
        2.52906         23.3385         2.34853 
        2.54479         23.1867         2.31213 
        2.56049          23.014         2.27657 
        2.57618         22.7431         2.24178 
        2.59189         22.5156         2.20766 
        2.60758         22.2896          2.1743 
        2.62325         22.0412         2.14167 
        2.63898         21.9985         2.10959 
        2.65468         21.6904         2.07824 
        2.67044         21.4802         2.04738 
        2.68618         21.2683         2.01722 
        2.70184         21.0499         1.98778 
        2.71755         20.8372         1.95886 
        2.73329         20.6627         1.93046 
        2.74897         20.5057         1.90271 
        2.76462         20.3433         1.87557 
        2.78034         20.0478         1.84885 
        2.79607         19.9237         1.82261 
        2.81179         19.7294         1.79691 
        2.82749         19.5129         1.77174 
        2.84321         19.3652         1.74701 
        2.85893         19.2235         1.72276 
        2.87462         19.0516         1.69902 
        2.89033         18.8483         1.67569 
        2.90605         18.6504         1.65278 
        2.92176         18.4426         1.63031 
        2.93747         18.3397         1.60827 
        2.95318         18.2419         1.58662 
        2.96891          17.951         1.56536 
        2.98456         17.8669         1.54459 
        3.00023          17.646         1.52416 
        3.01596         17.4014         1.50403 
        3.03164         17.3485         1.48433 
        3.04738         17.2363         1.46491 
         3.0631         17.0484         1.44585 
        3.07883         16.9055         1.42712 
        3.09456         16.7242         1.40873 
        3.11026         16.5907         1.39069 
        3.12596         16.3741         1.37297 
        3.14163         16.3115         1.35559 
        3.15734         16.2047         1.33847 
        3.17308         15.9697         1.32161 
        3.18879         15.8158         1.30508 
        3.20447         15.7877         1.28885 
         3.2202         15.5483         1.27285 
         3.2359         15.4042         1.25715 
        3.25157         15.2873         1.24175 
        3.26729          15.201         1.22656 
        3.28304         15.0793         1.21159 
        3.29877         14.9725         1.19689 
        3.31446         14.8289         1.18246 
        3.33014         14.6274         1.16829 
        3.34585         14.6063         1.15432 
        3.36158         14.4234         1.14056 
        3.37727         14.3184         1.12707 
        3.39294         14.2042          1.1138 
        3.40867         14.0643          1.1007 
        3.42439         13.9181         1.08782 
        3.44008         13.8148         1.07517 
        3.45578         13.6965          1.0627 
        3.47153         13.5943         1.05041 
        3.48724         13.4893         1.03833 
        3.50292         13.3698         1.02647 
        3.51859         13.2648          1.0148 
        3.53431         13.1627         1.00327 
        3.55007         13.0545        0.991896 
        3.56577         12.9371        0.980739 
        3.58146         12.8142        0.969757 
        3.59719         12.7249        0.958918 
        3.61292         12.6301        0.948247 
        3.62859         12.4628        0.937778 
        3.64429         12.4077        0.927446 
        3.66003         12.2866        0.917238 
        3.67578         12.2433        0.907185 
        3.69146          12.108        0.897321 
        3.70712         11.9712         0.88762 
        3.72284         11.8984        0.878026 
        3.73853         11.8151         0.86859 
        3.75422         11.6636        0.859288 
        3.76993         11.5963        0.850114 
        3.78564         11.5309        0.841077 
        3.80137         11.4028        0.832155 
        3.81707         11.2865        0.823381 
        3.83279         11.2649        0.814726 
        3.84853         11.1468         0.80618 
        3.86424         11.0423        0.797773 
        3.87992         10.9534        0.789498 
        3.89561         10.8554        0.781339 
        3.91134         10.7731        0.773278 
        3.92704          10.702        0.765339 
        3.94273         10.6312         0.75752 
        3.95845         10.5123        0.749794 
        3.97418          10.437        0.742174 
        3.98988         10.3617         0.73467 
        4.00554         10.2665        0.727289 
        4.02125         10.1927        0.719988 
        4.03698         10.1195        0.712775 
        4.05268         10.0494        0.705677 
        4.06839         9.94183         0.69867 
         4.0841          9.8736         0.69176 
        4.09983         9.77657        0.684933 
        4.11555         9.72781          0.6782 
        4.13124         9.63142        0.671576 
        4.14693         9.56472        0.665034 
        4.16266         9.48448        0.658564 
        4.17839         9.40942        0.652183 
        4.19408         9.35039        0.645901 
        4.20977         9.23892        0.639698 
        4.22551         9.20427        0.633561 
        4.24123         9.11088        0.627511 
        4.25691         9.04255        0.621556 
        4.27259         8.96433        0.615676 
        4.28831         8.90191         0.60986 
        4.30404         8.82739        0.604112 
        4.31974         8.77132        0.598451 
        4.33543         8.68679        0.592866 
        4.35116         8.63296        0.587338 
        4.36688         8.55758        0.581882 
        4.38255         8.49681        0.576515 
        4.39825         8.42207        0.571204 
        4.41398          8.3632        0.565949 
         4.4297         8.29151        0.560765 
        4.44541         8.23863        0.555647 
        4.46111         8.15503        0.550596 
        4.47683         8.08975        0.545604 
        4.49251         8.04825        0.540684 
        4.50819          7.9688        0.535825 
         4.5239         7.92931        0.531019 
        4.53962         7.85573        0.526265 
        4.55535         7.80422        0.521567 
        4.57106         7.75424        0.516932 
        4.58678         7.68762        0.512353 
         4.6025         7.62642        0.507828 
        4.61821         7.55866        0.503358 
        4.63391         7.49547        0.498947 
         4.6496         7.45142         0.49459 
        4.66532         7.41817        0.490279 
        4.68103         7.33507         0.48602 
        4.69673         7.28226        0.481816 
        4.71241         7.21694        0.477666 
        4.72811         7.16581        0.473557 
        4.74384         7.13131        0.469491 
        4.75955         7.08579        0.465479 
        4.77525         7.03371        0.461515 
        4.79096         6.97697        0.457593 
        4.80669          6.9147        0.453714 
         4.8224         6.87667        0.449884 
        4.83809         6.82688        0.446102 
        4.85379         6.78457        0.442361 
         4.8695         6.74205         0.43866 
        4.88521         6.68097        0.435003 
        4.90093         6.65435        0.431386 
        4.91663         6.58943        0.427813 
        4.93234         6.53988        0.424277 
        4.94807          6.4955        0.420779 
        4.96377         6.43843        0.417326 
        4.97943         6.39766        0.413918 
        4.99514         6.35158         0.41054 
        5.01086         6.30423        0.407197 
        5.02654         6.25921        0.403899 
        5.04227         6.20762        0.400628 
          5.058         6.18291        0.397392 
        5.07371         6.15023        0.394197 
        5.08942         6.08638        0.391037 
        5.10513         6.04381        0.387911 
        5.12084           5.999        0.384817 
        5.13656         5.95408        0.381758 
        5.15225         5.92707        0.378737 
        5.16796         5.87623        0.375743 
        5.18369         5.83816        0.372779 
         5.1994         5.80501        0.369852 
        5.21509         5.76378        0.366959 
        5.23079         5.71287        0.364093 
        5.24649         5.67405         0.36126 
        5.26217         5.64411        0.358459 
        5.27788         5.60115        0.355684 
        5.29359         5.56668        0.352937 
        5.30933          5.5112        0.350215 
        5.32504         5.49781        0.347526 
        5.34073         5.44341        0.344868 
        5.35646         5.40754        0.342233 
        5.37218         5.38361        0.339624 
        5.38789         5.34806        0.337047 
        5.40357         5.30237        0.334499 
        5.41929         5.26727        0.331972 
        5.43502         5.23781         0.32947 
         5.4507         5.19166           0.327 
        5.46639          5.1567        0.324555 
        5.48212         5.12282        0.322129 
        5.49786         5.08397        0.319725 
        5.51353         5.05898        0.317357 
        5.52921         5.01624         0.31501 
        5.54495         4.99252        0.312681 
        5.56066         4.96116        0.310377 
        5.57637         4.93146        0.308096 
        5.59207         4.89089        0.305841 
        5.60778         4.86078        0.303607 
        5.62346         4.82362        0.301398 
        5.63916         4.79697        0.299209 
        5.65487         4.76277        0.297041 
         5.6706         4.73552        0.294891 
        5.68633         4.69226        0.292762 
        5.70203         4.67431        0.290658 
        5.71773         4.63744        0.288575 
        5.73344         4.61172        0.286511 
        5.74916         4.58104        0.284465 
        5.76486         4.54878        0.282442 
        5.78054         4.51307        0.280441 
        5.79626         4.49042        0.278455 
          5.812         4.46744        0.276485 
         5.8277         4.42832         0.27454 
        5.84339         4.40661        0.272614 
        5.85911         4.37321        0.270702 
        5.87484          4.3481        0.268809 
        5.89053         4.30909        0.266938 
        5.90623         4.29282        0.265084 
        5.92195         4.26867        0.263243 
        5.93767         4.23215        0.261422 
        5.95336         4.21631         0.25962 
        5.96905         4.18715        0.257836 
        5.98476         4.15902        0.256066 
        6.00048         4.13862        0.254312 
        6.01617          4.1131        0.252577 
        6.03185         4.08171         0.25086 
        6.04756         4.05812        0.249154 
        6.06331         4.02982        0.247461 
        6.07903         4.00749        0.245787 
        6.09473         3.99641         0.24413 
        6.11044         3.95841        0.242487 
        6.12616         3.93737        0.240859 
        6.14186         3.90196        0.239247 
        6.15755         3.88356         0.23765 
        6.17326         3.86402        0.236067 
        6.18898         3.83845        0.234497 
        6.20467         3.81469        0.232944 
        6.22036         3.79588        0.231405 
         6.2361         3.76321        0.229876 
         6.2518         3.74862        0.228363 
        6.26748          3.7218        0.226867 
        6.28319         3.69567         0.22538 
        6.29893         3.68044        0.223905 
        6.31463          3.6612        0.222446 
        6.33033         3.63813           0.221 
        6.34604         3.61857        0.219566 
        6.36177         3.59063        0.218143 
        6.37747         3.57658        0.216735 
