# k  (h/Mpc)    Pcb(k)  (Mpc/h)^3    Pcb_linear(k) (Mpc/h)^3   ShotnoiseSubtracted = true
      0.0200456            2277         2303.88 
      0.0350414         1587.62          1558.4 
      0.0492313         1112.31          1109.5 
      0.0637834         899.258         913.016 
      0.0800726         681.348         691.408 
       0.096163         500.033          488.09 
       0.111083         408.581         397.487 
       0.126058         349.015         351.306 
       0.142273         283.224         283.528 
       0.158546         225.531         221.073 
        0.17375         197.485         191.877 
       0.188953         177.224         172.991 
       0.204907         146.897         147.143 
       0.220756         127.631         123.301 
        0.23588         113.374         109.754 
         0.2514          102.51         99.7159 
       0.267535         92.6506         87.7759 
       0.283568         80.6734         76.7007 
       0.299022         74.0348          69.246 
       0.314451         69.6025         63.4054 
       0.330372         61.5741         57.2173 
       0.346141          55.859         51.4971 
       0.361624         51.2682         47.0687 
       0.377134         46.9019         43.3855 
       0.392932         44.9241         39.8021 
       0.408854         40.7434         36.4383 
       0.424564         38.7529         33.6214 
       0.440253         35.3182         31.1925 
       0.455999         32.1239          28.932 
       0.471626         30.2787         26.8554 
        0.48727         29.2326         25.0067 
       0.502856         27.2747         23.3716 
       0.518488         25.3209         21.8625 
       0.534347         23.7149         20.4491 
       0.550082         22.7306         19.1743 
       0.565732         21.7521         18.0252 
       0.581496         20.3871         16.9596 
       0.597222         19.2113         15.9769 
       0.612804         18.1676         15.0791 
       0.628434         17.7377         14.2513 
       0.644267         16.7408          13.477 
       0.660051         15.8345         12.7615 
       0.675724         15.0293         12.1018 
       0.691403         14.6256         11.4878 
       0.707174         13.9387         10.9129 
       0.722871         13.4742         10.3793 
        0.73838         12.7041         9.88702 
       0.754018         12.0244         9.42282 
       0.769845         11.6305          8.9833 
        0.78569         11.2759         8.57135 
       0.801365         10.7833         8.18925 
       0.817031         10.3695         7.83069 
       0.832809         9.96239          7.4913 
       0.848511         9.64786         7.17353 
       0.864097         9.29081         6.87635 
       0.879701          9.0885          6.5957 
       0.895507         8.72841         6.32738 
       0.911279         8.35445         6.07453 
        0.92691         8.13282         5.83756 
       0.942635         7.87232          5.6119 
       0.958396         7.60041         5.39767 
       0.974128         7.40165         5.19499 
       0.989692         7.02784         5.00469 
        1.00528         6.95487         4.82363 
        1.02113         6.70143         4.64868 
        1.03692         6.53813         4.48303 
        1.05264         6.33736         4.32621 
        1.06832         6.17395         4.17712 
        1.08405         5.99936         4.03465 
        1.09979         5.83267         3.89872 
        1.11537         5.66884          3.7704 
        1.13105         5.52719         3.64708 
        1.14679         5.39582         3.52879 
        1.16256         5.24254          3.4155 
        1.17828         5.13675         3.30756 
        1.19395         4.98301         3.20463 
         1.2097         4.82184         3.10556 
        1.22537         4.70797         3.01114 
          1.241         4.58312         2.92092 
        1.25666         4.55118         2.83417 
        1.27241          4.4401         2.75053 
        1.28819         4.25282         2.67012 
        1.30392         4.18532         2.59314 
        1.31957         4.09135         2.51954 
        1.33529         3.99569         2.44852 
        1.35108         3.91034         2.37994 
        1.36674         3.80047         2.31448 
         1.3824         3.75665         2.25153 
        1.39811         3.66706         2.19071 
        1.41389         3.56552         2.13189 
        1.42964         3.50895         2.07533 
        1.44531         3.43572         2.02109 
        1.46101         3.39212         1.96867 
        1.47667         3.30722         1.91826 
        1.49229         3.19948         1.86974 
        1.50793         3.14053         1.82285 
        1.52367         3.07736         1.77725 
        1.53953         3.02012          1.7329 
        1.55526         3.00415         1.69042 
        1.57092         2.92152         1.64953 
        1.58662         2.87674         1.60989 
        1.60235         2.81729         1.57147 
        1.61809         2.76293         1.53429 
        1.63369         2.70883         1.49863 
        1.64941         2.65763         1.46385 
        1.66519          2.6265         1.43004 
        1.68085           2.568         1.39754 
        1.69652         2.52803         1.36603 
        1.71228         2.48957         1.33532 
        1.72806         2.44494         1.30552 
        1.74368         2.40328         1.27692 
        1.75933         2.36384         1.24913 
        1.77505         2.31593         1.22202 
        1.79081         2.28325         1.19567 
         1.8065         2.25258         1.17021 
        1.82218         2.20542         1.14551 
        1.83797         2.16358         1.12135 
        1.85367         2.13188         1.09802 
        1.86928          2.1077         1.07549 
        1.88497         2.05993         1.05347 
        1.90073          2.0424         1.03198 
        1.91647         2.00385          1.0111 
        1.93218         1.97413        0.990847 
        1.94787         1.94897        0.971175 
        1.96363         1.92094        0.951958 
        1.97935         1.88895        0.933298 
        1.99499         1.86112        0.915241 
        2.01064         1.83818        0.897634 
         2.0264         1.80578        0.880378 
        2.04216         1.78107        0.863583 
        2.05781         1.75479        0.847329 
        2.07353         1.73798        0.831435 
        2.08928         1.70837        0.815912 
        2.10499         1.67673        0.800825 
        2.12065          1.6708        0.786163 
        2.13633         1.64062        0.771854 
        2.15211         1.61086        0.757808 
        2.16785          1.5945        0.744148 
        2.18349         1.57081         0.73091 
        2.19916         1.55793        0.717965 
        2.21489         1.54089        0.705289 
        2.23063         1.50847        0.692909 
         2.2463         1.48482         0.68088 
        2.26194          1.4728        0.669166 
        2.27765         1.43928        0.657666 
        2.29341         1.42962        0.646406 
        2.30914         1.41109        0.635431 
        2.32486         1.40472        0.624716 
        2.34061         1.38128        0.614229 
        2.35635         1.36417        0.603991 
        2.37203         1.35178        0.594021 
        2.38768         1.33371        0.584295 
        2.40339         1.31249        0.574751 
        2.41914         1.30012        0.565397 
        2.43483         1.28461        0.556283 
         2.4505         1.26809        0.547385 
        2.46622         1.25156         0.53865 
        2.48195         1.24109        0.530104 
        2.49759         1.22208        0.521788 
        2.51328         1.21185        0.513628 
        2.52906         1.19936         0.50559 
        2.54479         1.18268        0.497753 
        2.56049         1.17246        0.490097 
        2.57618         1.15752        0.482608 
        2.59189         1.14784        0.475263 
        2.60758         1.13433        0.468082 
        2.62325         1.11693        0.461057 
        2.63898         1.10512        0.454151 
        2.65468         1.09002        0.447401 
        2.67044         1.08639        0.440758 
        2.68618         1.07439        0.434265 
        2.70184         1.06412        0.427927 
        2.71755         1.05293          0.4217 
        2.73329         1.03624        0.415587 
        2.74897         1.02882        0.409614 
        2.76462         1.01877        0.403772 
        2.78034         1.01223        0.398018 
        2.79607        0.997249         0.39237 
        2.81179        0.987912        0.386838 
        2.82749        0.976795        0.381418 
        2.84321        0.968356        0.376095 
        2.85893        0.958184        0.370875 
        2.87462        0.951544        0.365762 
        2.89033        0.941353        0.360741 
        2.90605         0.93288        0.355809 
        2.92176        0.924859        0.350971 
        2.93747        0.915886        0.346226 
        2.95318        0.905264        0.341566 
        2.96891        0.901687         0.33699 
        2.98456        0.890164        0.332517 
        3.00023        0.880071        0.328119 
        3.01596        0.869762        0.323786 
        3.03164        0.864885        0.319544 
        3.04738        0.858834        0.315365 
         3.0631        0.849113        0.311261 
        3.07883        0.841855         0.30723 
        3.09456        0.833682         0.30327 
        3.11026        0.829917        0.299386 
        3.12596        0.819849        0.295571 
        3.14163        0.814716         0.29183 
        3.15734        0.805213        0.288145 
        3.17308        0.801602        0.284514 
        3.18879        0.794459        0.280955 
        3.20447        0.785746        0.277462 
         3.2202        0.781375        0.274018 
         3.2359        0.773629        0.270638 
        3.25157        0.765521        0.267322 
        3.26729        0.761705        0.264052 
        3.28304        0.755208        0.260829 
        3.29877        0.748498        0.257665 
        3.31446        0.745003        0.254559 
        3.33014        0.734017        0.251508 
        3.34585        0.731276        0.248501 
        3.36158        0.726056        0.245539 
        3.37727        0.723005        0.242633 
        3.39294        0.712661        0.239778 
        3.40867        0.711221        0.236958 
        3.42439        0.705651        0.234184 
        3.44008        0.700126         0.23146 
        3.45578        0.693805        0.228777 
        3.47153        0.689597        0.226131 
        3.48724        0.683973        0.223531 
        3.50292        0.676618        0.220977 
        3.51859        0.676507        0.218465 
        3.53431        0.668291        0.215983 
        3.55007        0.665794        0.213534 
        3.56577        0.660316        0.211132 
        3.58146        0.656761        0.208768 
        3.59719         0.65164        0.206435 
        3.61292        0.646834        0.204138 
        3.62859        0.642248        0.201884 
        3.64429        0.636533         0.19966 
        3.66003        0.632416        0.197462 
        3.67578        0.629354        0.195298 
        3.69146          0.6256        0.193174 
        3.70712        0.620305        0.191086 
        3.72284        0.616395        0.189021 
        3.73853        0.611232        0.186989 
        3.75422        0.609012        0.184987 
        3.76993        0.603571        0.183012 
        3.78564        0.599497        0.181066 
        3.80137        0.595757        0.179145 
        3.81707        0.591132        0.177257 
        3.83279        0.587995        0.175393 
        3.84853        0.583531        0.173554 
        3.86424        0.578987        0.171744 
        3.87992        0.577948        0.169962 
        3.89561        0.573746        0.168206 
        3.91134        0.568613         0.16647 
        3.92704        0.565016        0.164761 
        3.94273        0.562161        0.163078 
        3.95845        0.557071        0.161415 
        3.97418        0.554084        0.159774 
        3.98988        0.550963        0.158159 
        4.00554         0.54634         0.15657 
        4.02125        0.542466        0.154998 
        4.03698        0.538319        0.153446 
        4.05268        0.534416        0.151917 
        4.06839        0.529215        0.150409 
         4.0841        0.525514        0.148921 
        4.09983        0.522068        0.147452 
        4.11555        0.518054        0.146002 
        4.13124        0.512856        0.144576 
        4.14693        0.510802        0.143168 
        4.16266        0.505458        0.141775 
        4.17839        0.501059        0.140401 
        4.19408        0.498453        0.139049 
        4.20977        0.495046        0.137713 
        4.22551        0.491755        0.136392 
        4.24123        0.487603         0.13509 
        4.25691        0.484294        0.133808 
        4.27259        0.480897        0.132542 
        4.28831         0.47952         0.13129 
        4.30404        0.476273        0.130053 
        4.31974        0.471869        0.128834 
        4.33543        0.469139        0.127631 
        4.35116        0.466397        0.126441 
        4.36688        0.462818        0.125267 
        4.38255        0.461414        0.124111 
        4.39825         0.45899        0.122968 
        4.41398        0.455488        0.121837 
         4.4297        0.454949        0.120721 
        4.44541        0.450709        0.119619 
        4.46111        0.448578        0.118532 
        4.47683        0.446053        0.117457 
        4.49251        0.444092        0.116398 
        4.50819        0.441849        0.115352 
         4.5239        0.439846        0.114317 
        4.53962        0.436286        0.113294 
        4.55535        0.436176        0.112282 
        4.57106        0.433134        0.111285 
        4.58678        0.432268        0.110299 
         4.6025        0.430355        0.109325 
        4.61821        0.428716        0.108362 
        4.63391        0.428519        0.107413 
         4.6496        0.424574        0.106475 
        4.66532        0.423915        0.105547 
        4.68103        0.421958         0.10463 
        4.69673        0.420281        0.103725 
        4.71241        0.420046        0.102831 
        4.72811        0.417843        0.101947 
        4.74384        0.418172        0.101071 
        4.75955        0.416152        0.100208 
        4.77525        0.413865       0.0993545 
        4.79096        0.414604       0.0985101 
        4.80669        0.412371        0.097675 
         4.8224        0.410613       0.0968506 
        4.83809        0.410911       0.0960364 
        4.85379        0.409155       0.0952311 
         4.8695        0.408937       0.0944343 
        4.88521        0.407795       0.0936469 
        4.90093        0.406867       0.0928683 
        4.91663        0.406196       0.0920992 
        4.93234        0.404339       0.0913379 
        4.94807        0.405027       0.0905847 
        4.96377        0.405864       0.0898414 
        4.97943        0.404581       0.0891079 
        4.99514        0.402742       0.0883807 
        5.01086        0.403009       0.0876609 
        5.02654        0.403995        0.086951 
        5.04227        0.402072       0.0862468 
          5.058        0.402754       0.0855501 
        5.07371        0.401956       0.0848623 
        5.08942        0.402514        0.084182 
        5.10513        0.402218        0.083509 
        5.12084        0.401399        0.082843 
        5.13656        0.401974       0.0821844 
        5.15225        0.402297        0.081534 
        5.16796        0.402235       0.0808896 
        5.18369         0.40213       0.0802514 
         5.1994        0.402185       0.0796213 
        5.21509        0.403185       0.0789985 
        5.23079        0.402087       0.0783816 
        5.24649         0.40345       0.0777717 
        5.26217        0.403733       0.0771687 
        5.27788         0.40439       0.0765712 
        5.29359        0.405046       0.0759799 
        5.30933        0.405224       0.0753939 
        5.32504        0.404434        0.074815 
        5.34073        0.405748       0.0742429 
        5.35646        0.405819       0.0736755 
        5.37218        0.407062       0.0731139 
        5.38789        0.406918       0.0725591 
        5.40357        0.407133       0.0720106 
        5.41929        0.409029       0.0714665 
        5.43502        0.409709        0.070928 
         5.4507        0.409507       0.0703963 
        5.46639          0.4109       0.0698699 
        5.48212        0.411516       0.0693476 
        5.49786         0.41362         0.06883 
        5.51353        0.413798       0.0683202 
        5.52921        0.413799       0.0678151 
        5.54495        0.415047       0.0673135 
        5.56066        0.417126       0.0668176 
        5.57637        0.417409       0.0663267 
        5.59207        0.419387       0.0658411 
        5.60778         0.41976       0.0653601 
        5.62346        0.420199       0.0648846 
        5.63916        0.421926       0.0644134 
        5.65487        0.421186       0.0639466 
         5.6706        0.422234       0.0634838 
        5.68633        0.425564       0.0630254 
        5.70203        0.426001       0.0625724 
        5.71773        0.427601        0.062124 
        5.73344        0.428248       0.0616797 
        5.74916        0.429687       0.0612393 
        5.76486        0.430634       0.0608038 
        5.78054        0.432408       0.0603731 
        5.79626        0.432599       0.0599454 
          5.812         0.43383       0.0595214 
         5.8277        0.435619       0.0591027 
        5.84339        0.437431        0.058688 
        5.85911        0.438777       0.0582765 
        5.87484         0.44004        0.057869 
        5.89053        0.441696       0.0574661 
        5.90623        0.443064       0.0570669 
        5.92195        0.443491       0.0566707 
        5.93767        0.446148       0.0562786 
        5.95336        0.447761       0.0558907 
        5.96905         0.44715       0.0555066 
        5.98476        0.447586       0.0551256 
        6.00048        0.450202        0.054748 
        6.01617        0.450301       0.0543745 
        6.03185        0.452511       0.0540048 
        6.04756        0.454201       0.0536377 
        6.06331        0.456002       0.0532732 
        6.07903        0.457534       0.0529128 
        6.09473        0.457984       0.0525561 
        6.11044         0.45922       0.0522023 
        6.12616         0.46128       0.0518518 
        6.14186         0.46242       0.0515049 
        6.15755        0.464287       0.0511611 
        6.17326        0.464681       0.0508202 
        6.18898        0.466259       0.0504822 
        6.20467        0.468796       0.0501479 
        6.22036        0.469367       0.0498167 
         6.2361        0.470102       0.0494875 
         6.2518        0.471671       0.0491618 
        6.26748         0.47261       0.0488397 
        6.28319          0.4757       0.0485196 
        6.29893        0.476121       0.0482021 
        6.31463        0.477928       0.0478879 
        6.33033        0.477793       0.0475767 
        6.34604        0.480097       0.0472679 
        6.36177         0.47997       0.0469616 
        6.37747        0.483387       0.0466586 
