# k  (h/Mpc)    Pcb(k)  (Mpc/h)^3    Pcb_linear(k) (Mpc/h)^3   ShotnoiseSubtracted = true
      0.0200456         4082.07         4131.23 
      0.0350414         2857.06         2794.47 
      0.0492313         1991.31         1989.52 
      0.0637834         1604.99         1637.19 
      0.0800726         1215.51         1239.81 
       0.096163         902.275         875.225 
       0.111083         738.996         712.759 
       0.126058          626.23         629.948 
       0.142273         510.531         508.413 
       0.158546         409.274         396.419 
        0.17375         359.294         344.067 
       0.188953         324.173         310.202 
       0.204907         268.102         263.852 
       0.220756         235.086         221.098 
        0.23588         209.076         196.807 
         0.2514         188.215         178.807 
       0.267535         173.118         157.397 
       0.283568         150.294         137.537 
       0.299022         139.682         124.169 
       0.314451         132.893         113.696 
       0.330372         116.323           102.6 
       0.346141         106.185         92.3428 
       0.361624         98.4212         84.4019 
       0.377134         89.8935         77.7973 
       0.392932         86.6363         71.3717 
       0.408854          79.892         65.3398 
       0.424564         75.9329         60.2887 
       0.440253         69.0913         55.9332 
       0.455999         63.1642         51.8798 
       0.471626         60.2169         48.1561 
        0.48727         58.2477         44.8411 
       0.502856         53.8657          41.909 
       0.518488         51.1192          39.203 
       0.534347         48.0586         36.6685 
       0.550082         46.2724         34.3827 
       0.565732         44.5561         32.3221 
       0.581496         41.3622         30.4114 
       0.597222         39.4852         28.6492 
       0.612804         37.7409         27.0393 
       0.628434          36.969         25.5548 
       0.644267         34.8673         24.1664 
       0.660051         33.2794         22.8835 
       0.675724         31.8596         21.7004 
       0.691403         31.2073         20.5996 
       0.707174         29.9565         19.5685 
       0.722871          28.962         18.6118 
        0.73838         27.5514          17.729 
       0.754018         26.0331         16.8967 
       0.769845          25.544         16.1085 
        0.78569          24.639         15.3698 
       0.801365         23.7964         14.6847 
       0.817031         22.8147         14.0417 
       0.832809         22.2937         13.4331 
       0.848511         21.5247         12.8633 
       0.864097          20.908         12.3304 
       0.879701         20.5157         11.8272 
       0.895507         19.7011          11.346 
       0.911279         18.9753         10.8926 
        0.92691         18.6325         10.4677 
       0.942635         18.1718         10.0631 
       0.958396         17.6351          9.6789 
       0.974128         17.1566         9.31546 
       0.989692         16.3788         8.97423 
        1.00528         16.2365         8.64956 
        1.02113         15.7195         8.33584 
        1.03692         15.3913         8.03881 
        1.05264         15.0596          7.7576 
        1.06832         14.7383         7.49025 
        1.08405         14.2923         7.23478 
        1.09979         14.0078         6.99105 
        1.11537         13.5655         6.76094 
        1.13105         13.3756         6.53981 
        1.14679         13.0216         6.32769 
        1.16256         12.7857         6.12456 
        1.17828         12.5203         5.93099 
        1.19395         12.3027         5.74643 
         1.2097         11.9769         5.56877 
        1.22537         11.7514         5.39946 
          1.241         11.4598         5.23769 
        1.25666         11.3268         5.08214 
        1.27241          11.121         4.93215 
        1.28819         10.6631         4.78796 
        1.30392         10.7299         4.64993 
        1.31957         10.3992         4.51795 
        1.33529         10.2626         4.39059 
        1.35108         10.0849         4.26763 
        1.36674         9.84616         4.15024 
         1.3824         9.66966         4.03736 
        1.39811         9.50882          3.9283 
        1.41389         9.34759         3.82283 
        1.42964          9.2034         3.72141 
        1.44531         9.05006         3.62415 
        1.46101         8.93007         3.53015 
        1.47667         8.74931         3.43975 
        1.49229         8.52085         3.35276 
        1.50793         8.45474         3.26866 
        1.52367         8.32898          3.1869 
        1.53953         8.18072         3.10738 
        1.55526         8.02732         3.03119 
        1.57092         7.96715         2.95787 
        1.58662         7.81731         2.88679 
        1.60235         7.72609         2.81791 
        1.61809          7.5967         2.75123 
        1.63369         7.45847         2.68729 
        1.64941         7.34597         2.62492 
        1.66519         7.26508          2.5643 
        1.68085         7.11801         2.50601 
        1.69652         7.08237         2.44952 
        1.71228         6.97943         2.39444 
        1.72806         6.86059         2.34101 
        1.74368         6.77285         2.28973 
        1.75933         6.68476         2.23989 
        1.77505          6.5677         2.19129 
        1.79081         6.49651         2.14404 
         1.8065         6.44912         2.09838 
        1.82218         6.36653         2.05409 
        1.83797         6.24696         2.01077 
        1.85367         6.17908         1.96893 
        1.86928         6.09085         1.92853 
        1.88497         6.03585         1.88904 
        1.90073         5.93922          1.8505 
        1.91647         5.80766         1.81307 
        1.93218         5.78914         1.77675 
        1.94787         5.69934         1.74148 
        1.96363           5.647         1.70702 
        1.97935         5.60286         1.67356 
        1.99499         5.52254         1.64118 
        2.01064         5.44875         1.60961 
         2.0264         5.39166         1.57866 
        2.04216         5.35636         1.54854 
        2.05781         5.28694          1.5194 
        2.07353         5.21303          1.4909 
        2.08928         5.13861         1.46306 
        2.10499         5.09148         1.43601 
        2.12065         5.06716         1.40972 
        2.13633         4.99523         1.38406 
        2.15211         4.94245         1.35887 
        2.16785         4.86227         1.33438 
        2.18349         4.85597         1.31064 
        2.19916         4.78961         1.28743 
        2.21489         4.74685          1.2647 
        2.23063         4.68885          1.2425 
         2.2463         4.62032         1.22093 
        2.26194         4.56868         1.19992 
        2.27765         4.52393          1.1793 
        2.29341         4.46345         1.15911 
        2.30914         4.45425         1.13943 
        2.32486         4.38601         1.12022 
        2.34061         4.36516         1.10141 
        2.35635         4.31129         1.08305 
        2.37203         4.27579         1.06518 
        2.38768         4.23433         1.04774 
        2.40339         4.17901         1.03062 
        2.41914         4.15742         1.01385 
        2.43483         4.12161        0.997507 
         2.4505         4.05926        0.981551 
        2.46622         4.02451        0.965887 
        2.48195         4.01608        0.950563 
        2.49759         3.94302        0.935651 
        2.51328         3.92328        0.921018 
        2.52906         3.87345        0.906605 
        2.54479         3.84762        0.892553 
        2.56049         3.80849        0.878824 
        2.57618         3.78286        0.865394 
        2.59189         3.77555        0.852224 
        2.60758         3.71923        0.839347 
        2.62325          3.6576         0.82675 
        2.63898         3.66961        0.814367 
        2.65468         3.61911        0.802262 
        2.67044           3.598        0.790351 
        2.68618         3.55427        0.778707 
        2.70184         3.54103        0.767344 
        2.71755          3.4934        0.756178 
        2.73329         3.46265        0.745216 
        2.74897         3.44014        0.734505 
        2.76462         3.41553        0.724028 
        2.78034         3.38899        0.713711 
        2.79607         3.35451        0.703584 
        2.81179         3.33068        0.693663 
        2.82749         3.29447        0.683944 
        2.84321         3.27853          0.6744 
        2.85893         3.24113        0.665039 
        2.87462         3.22816        0.655871 
        2.89033         3.20459        0.646867 
        2.90605         3.17348        0.638024 
        2.92176         3.13408        0.629349 
        2.93747          3.1239        0.620839 
        2.95318         3.09304        0.612484 
        2.96891           3.073        0.604278 
        2.98456         3.05011        0.596258 
        3.00023         3.03354        0.588371 
        3.01596         2.99541        0.580602 
        3.03164         2.97958        0.572994 
        3.04738         2.96212          0.5655 
         3.0631         2.94535        0.558142 
        3.07883         2.91639        0.550913 
        3.09456         2.88223        0.543813 
        3.11026         2.87401        0.536849 
        3.12596          2.8576        0.530006 
        3.14163         2.82751        0.523299 
        3.15734         2.80756         0.51669 
        3.17308         2.79101         0.51018 
        3.18879         2.77233        0.503799 
        3.20447         2.75849        0.497535 
         3.2202         2.72833        0.491359 
         3.2359         2.71101        0.485297 
        3.25157         2.69717        0.479352 
        3.26729         2.67582        0.473488 
        3.28304         2.64958         0.46771 
        3.29877         2.63698        0.462035 
        3.31446         2.62387        0.456467 
        3.33014         2.59787        0.450994 
        3.34585         2.58905        0.445603 
        3.36158         2.56552        0.440291 
        3.37727         2.54984        0.435081 
        3.39294         2.53672        0.429961 
        3.40867         2.52025        0.424904 
        3.42439         2.49218        0.419931 
        3.44008         2.48153        0.415046 
        3.45578         2.46215        0.410235 
        3.47153         2.44842         0.40549 
        3.48724         2.43456        0.400827 
        3.50292         2.41819        0.396249 
        3.51859         2.39637        0.391743 
        3.53431           2.386        0.387293 
        3.55007          2.3718        0.382902 
        3.56577         2.35165        0.378595 
        3.58146         2.34402        0.374356 
        3.59719         2.33253        0.370171 
        3.61292         2.31125        0.366052 
        3.62859         2.29947        0.362011 
        3.64429         2.28026        0.358022 
        3.66003         2.27157        0.354081 
        3.67578         2.25888        0.350201 
        3.69146         2.23904        0.346393 
        3.70712         2.23136        0.342648 
        3.72284         2.21426        0.338945 
        3.73853          2.1992        0.335302 
        3.75422         2.18066        0.331711 
        3.76993         2.16777         0.32817 
        3.78564         2.15461        0.324681 
        3.80137         2.14112        0.321237 
        3.81707           2.134         0.31785 
        3.83279         2.11387        0.314509 
        3.84853         2.10111         0.31121 
        3.86424         2.08618        0.307965 
        3.87992         2.07962         0.30477 
        3.89561         2.06591         0.30162 
        3.91134         2.05058        0.298509 
        3.92704         2.03694        0.295444 
        3.94273         2.02382        0.292425 
        3.95845         2.01475        0.289443 
        3.97418         2.00273        0.286502 
        3.98988         1.98714        0.283605 
        4.00554         1.97538        0.280756 
        4.02125         1.95901        0.277937 
        4.03698         1.94987        0.275153 
        4.05268          1.9404        0.272413 
        4.06839         1.92574        0.269708 
         4.0841         1.91239         0.26704 
        4.09983         1.89972        0.264405 
        4.11555         1.88711        0.261806 
        4.13124         1.87951        0.259249 
        4.14693         1.86428        0.256723 
        4.16266         1.85616        0.254226 
        4.17839          1.8408        0.251762 
        4.19408         1.82728        0.249337 
        4.20977         1.81863        0.246943 
        4.22551         1.80519        0.244574 
        4.24123         1.79807        0.242238 
        4.25691         1.78641        0.239939 
        4.27259         1.77355         0.23767 
        4.28831         1.75889        0.235424 
        4.30404         1.75561        0.233206 
        4.31974         1.74565         0.23102 
        4.33543         1.72845        0.228864 
        4.35116         1.71942         0.22673 
        4.36688         1.71081        0.224624 
        4.38255         1.70243        0.222552 
        4.39825         1.69217        0.220502 
        4.41398         1.68516        0.218473 
         4.4297         1.67363        0.216472 
        4.44541         1.65975        0.214496 
        4.46111          1.6548        0.212547 
        4.47683         1.64452         0.21062 
        4.49251         1.63343         0.20872 
        4.50819         1.62706        0.206845 
         4.5239          1.6208        0.204989 
        4.53962          1.6102        0.203154 
        4.55535         1.59877        0.201341 
        4.57106         1.59083        0.199552 
        4.58678         1.58001        0.197784 
         4.6025         1.57266        0.196037 
        4.61821         1.56603        0.194311 
        4.63391         1.55935        0.192609 
         4.6496         1.54854        0.190927 
        4.66532         1.54201        0.189262 
        4.68103           1.534        0.187619 
        4.69673         1.52574        0.185996 
        4.71241          1.5177        0.184393 
        4.72811         1.51391        0.182807 
        4.74384         1.50663        0.181238 
        4.75955          1.4965        0.179689 
        4.77525         1.48863        0.178159 
        4.79096          1.4814        0.176645 
        4.80669         1.47561        0.175147 
         4.8224         1.46276        0.173669 
        4.83809         1.46075        0.172209 
        4.85379         1.45703        0.170765 
         4.8695         1.44909        0.169336 
        4.88521         1.43871        0.167924 
        4.90093         1.43503        0.166528 
        4.91663         1.42841        0.165149 
        4.93234         1.42373        0.163784 
        4.94807         1.41818        0.162433 
        4.96377         1.40591          0.1611 
        4.97943         1.40343        0.159785 
        4.99514         1.39663        0.158481 
        5.01086         1.38881         0.15719 
        5.02654         1.38277        0.155917 
        5.04227         1.37731        0.154655 
          5.058         1.37308        0.153405 
        5.07371         1.36848        0.152172 
        5.08942          1.3643        0.150952 
        5.10513         1.35792        0.149745 
        5.12084         1.34819        0.148551 
        5.13656          1.3428         0.14737 
        5.15225         1.33809        0.146204 
        5.16796          1.3341        0.145048 
        5.18369         1.32769        0.143904 
         5.1994         1.32395        0.142774 
        5.21509         1.31872        0.141657 
        5.23079         1.31374        0.140551 
        5.24649         1.31149        0.139457 
        5.26217         1.30266        0.138376 
        5.27788         1.29504        0.137305 
        5.29359         1.29349        0.136244 
        5.30933         1.28866        0.135194 
        5.32504         1.28447        0.134156 
        5.34073         1.27623         0.13313 
        5.35646         1.27091        0.132112 
        5.37218         1.27012        0.131105 
        5.38789         1.26245         0.13011 
        5.40357         1.25747        0.129127 
        5.41929         1.25338        0.128151 
        5.43502         1.25126        0.127185 
         5.4507         1.24317        0.126232 
        5.46639         1.23934        0.125288 
        5.48212         1.23654        0.124352 
        5.49786         1.23018        0.123423 
        5.51353         1.22678        0.122509 
        5.52921         1.22339        0.121604 
        5.54495         1.22263        0.120704 
        5.56066         1.21564        0.119815 
        5.57637         1.20813        0.118935 
        5.59207          1.2044        0.118064 
        5.60778         1.20346        0.117201 
        5.62346         1.19714        0.116349 
        5.63916         1.19435        0.115504 
        5.65487         1.18957        0.114667 
         5.6706         1.18658        0.113837 
        5.68633         1.18157        0.113015 
        5.70203         1.17694        0.112203 
        5.71773         1.17483        0.111399 
        5.73344         1.17065        0.110602 
        5.74916         1.16798        0.109812 
        5.76486         1.16298        0.109031 
        5.78054         1.15862        0.108259 
        5.79626         1.15699        0.107492 
          5.812         1.15109        0.106732 
         5.8277         1.14886        0.105981 
        5.84339         1.14622        0.105237 
        5.85911         1.14268        0.104499 
        5.87484         1.13712        0.103769 
        5.89053         1.13547        0.103046 
        5.90623         1.13326         0.10233 
        5.92195         1.12775         0.10162 
        5.93767         1.12335        0.100917 
        5.95336         1.12311        0.100221 
        5.96905         1.11557       0.0995325 
        5.98476          1.1132       0.0988492 
        6.00048         1.11114       0.0981722 
        6.01617         1.10652       0.0975023 
        6.03185         1.10545       0.0968394 
        6.04756         1.10077       0.0961811 
        6.06331          1.0985       0.0955275 
        6.07903         1.09525       0.0948813 
        6.09473         1.09365       0.0942416 
        6.11044         1.08835       0.0936073 
        6.12616         1.08249       0.0929788 
        6.14186         1.08293       0.0923567 
        6.15755         1.07872       0.0917403 
        6.17326         1.07539        0.091129 
        6.18898         1.07472       0.0905229 
        6.20467         1.07074       0.0899234 
        6.22036          1.0677       0.0893294 
         6.2361         1.06401       0.0887391 
         6.2518          1.0629       0.0881551 
        6.26748         1.05671       0.0875775 
        6.28319         1.05476       0.0870036 
        6.29893         1.05412       0.0864342 
        6.31463         1.04906       0.0858709 
        6.33033         1.04559       0.0853127 
        6.34604         1.04302       0.0847591 
        6.36177         1.03986       0.0842098 
        6.37747         1.03792       0.0836665 
