# k  (h/Mpc)    Pcb(k)  (Mpc/h)^3    Pcb_linear(k) (Mpc/h)^3   ShotnoiseSubtracted = true
      0.0200456         17587.8         17849.3 
      0.0350414           12498         12073.7 
      0.0492313         8491.91         8595.89 
      0.0637834         6786.59         7073.61 
      0.0800726         5127.21         5356.69 
       0.096163         3993.31         3781.48 
       0.111083         3287.47         3079.54 
       0.126058         2719.93         2721.75 
       0.142273         2292.03         2196.64 
       0.158546          1864.2         1712.76 
        0.17375         1664.19         1486.57 
       0.188953         1555.75         1340.25 
       0.204907         1310.88         1139.99 
       0.220756         1174.29         955.273 
        0.23588         1050.82          850.32 
         0.2514         940.496          772.55 
       0.267535         906.479         680.046 
       0.283568         794.852          594.24 
       0.299022         758.136         536.485 
       0.314451         779.426         491.235 
       0.330372         670.028         443.292 
       0.346141         617.351         398.975 
       0.361624         590.404         364.666 
       0.377134         559.357          336.13 
       0.392932         536.203         308.368 
       0.408854         511.688         282.306 
       0.424564         496.924         260.483 
       0.440253         452.836         241.664 
       0.455999         432.886         224.151 
       0.471626         439.071         208.062 
        0.48727         413.224          193.74 
       0.502856         386.422         181.072 
       0.518488         382.723          169.38 
       0.534347         360.185          158.43 
       0.550082         345.219         148.553 
       0.565732         342.519          139.65 
       0.581496         330.938         131.395 
       0.597222         321.551         123.781 
       0.612804         312.841         116.825 
       0.628434         301.245         110.412 
       0.644267         289.404         104.413 
       0.660051          285.68         98.8702 
       0.675724         280.008         93.7586 
       0.691403         274.134         89.0022 
       0.707174         263.441         84.5475 
       0.722871          259.26         80.4141 
        0.73838         256.051         76.5999 
       0.754018         246.022         73.0035 
       0.769845           245.8         69.5983 
        0.78569         238.832         66.4067 
       0.801365         231.729         63.4464 
       0.817031         229.634         60.6684 
       0.832809         224.753          58.039 
       0.848511         219.335         55.5771 
       0.864097         213.507         53.2746 
       0.879701         213.078         51.1003 
       0.895507         207.821         49.0215 
       0.911279         202.687         47.0625 
        0.92691         199.791         45.2266 
       0.942635         198.342         43.4783 
       0.958396         193.336         41.8185 
       0.974128         190.917         40.2483 
       0.989692         184.105         38.7739 
        1.00528         184.095         37.3712 
        1.02113         181.074         36.0157 
        1.03692          177.16         34.7324 
        1.05264         174.008         33.5174 
        1.06832         173.722         32.3623 
        1.08405         169.045         31.2585 
        1.09979         167.648         30.2054 
        1.11537         165.158         29.2112 
        1.13105         162.159         28.2558 
        1.14679         160.783         27.3393 
        1.16256         157.687         26.4617 
        1.17828         156.386         25.6254 
        1.19395         152.478         24.8279 
         1.2097         151.721         24.0604 
        1.22537         150.605         23.3289 
          1.241         146.509         22.6299 
        1.25666         145.413         21.9578 
        1.27241         142.185         21.3098 
        1.28819         141.006         20.6868 
        1.30392         139.422         20.0904 
        1.31957         136.295         19.5202 
        1.33529         134.439         18.9699 
        1.35108         133.335         18.4386 
        1.36674         130.889         17.9315 
         1.3824         130.249         17.4438 
        1.39811         127.962         16.9726 
        1.41389         125.772         16.5169 
        1.42964         124.114         16.0787 
        1.44531         123.257         15.6585 
        1.46101         120.575         15.2523 
        1.47667         120.546         14.8618 
        1.49229         118.788         14.4859 
        1.50793         116.531         14.1225 
        1.52367         115.112         13.7693 
        1.53953          113.41         13.4257 
        1.55526         112.787         13.0965 
        1.57092           111.6         12.7797 
        1.58662         109.575         12.4726 
        1.60235         108.347          12.175 
        1.61809         107.365         11.8869 
        1.63369         105.424         11.6107 
        1.64941         105.219         11.3412 
        1.66519         103.679         11.0793 
        1.68085         101.741         10.8275 
        1.69652         100.978         10.5834 
        1.71228         99.7781         10.3454 
        1.72806          99.165         10.1145 
        1.74368         97.3816         9.89299 
        1.75933         96.6641         9.67763 
        1.77505         95.3438         9.46765 
        1.79081         94.0136         9.26351 
         1.8065         92.5108         9.06624 
        1.82218         91.7751         8.87487 
        1.83797         91.4522         8.68769 
        1.85367         89.6288         8.50692 
        1.86928         89.3334         8.33237 
        1.88497         87.7848         8.16174 
        1.90073         87.1546         7.99525 
        1.91647         85.7595         7.83353 
        1.93218          84.913         7.67661 
        1.94787         83.6388          7.5242 
        1.96363         82.9554         7.37531 
        1.97935         82.3483         7.23074 
        1.99499         81.5914         7.09085 
        2.01064         79.7487         6.95444 
         2.0264         79.3062         6.82075 
        2.04216         77.9574         6.69062 
        2.05781         77.4884          6.5647 
        2.07353            76.7         6.44156 
        2.08928         75.6524         6.32129 
        2.10499         74.8162          6.2044 
        2.12065         74.3732         6.09081 
        2.13633         73.4478         5.97995 
        2.15211          72.308         5.87113 
        2.16785         71.2618          5.7653 
        2.18349          70.709         5.66274 
        2.19916         69.9523         5.56244 
        2.21489         69.0964         5.46424 
        2.23063         68.1025         5.36832 
         2.2463         67.7539         5.27513 
        2.26194         67.0253         5.18438 
        2.27765         66.2093         5.09528 
        2.29341         65.5195         5.00804 
        2.30914         64.7989         4.92301 
        2.32486         63.8869            4.84 
        2.34061         63.1278         4.75875 
        2.35635         62.6365         4.67943 
        2.37203         61.7374         4.60219 
        2.38768         61.3075         4.52684 
        2.40339         60.7032         4.45289 
        2.41914         59.5594         4.38042 
        2.43483         59.4564         4.30982 
         2.4505         58.7256         4.24088 
        2.46622         58.2409          4.1732 
        2.48195         57.5207         4.10699 
        2.49759         56.9937         4.04256 
        2.51328          56.413         3.97934 
        2.52906         55.8165         3.91707 
        2.54479         55.1889         3.85635 
        2.56049         54.3144         3.79703 
        2.57618         53.9083         3.73901 
        2.59189         53.4402         3.68211 
        2.60758         52.8114         3.62647 
        2.62325         52.3475         3.57205 
        2.63898         51.9824         3.51854 
        2.65468         51.2908         3.46624 
        2.67044         50.8308         3.41478 
        2.68618         50.3492         3.36447 
        2.70184         49.7477         3.31538 
        2.71755         48.9708         3.26713 
        2.73329         48.7093         3.21977 
        2.74897          48.327         3.17349 
        2.76462           47.88         3.12823 
        2.78034         47.3332         3.08365 
        2.79607         46.6687         3.03989 
        2.81179         46.2374         2.99703 
        2.82749         45.9054         2.95504 
        2.84321         45.5658          2.9138 
        2.85893         44.9805         2.87336 
        2.87462         44.3243         2.83375 
        2.89033         43.9331         2.79485 
        2.90605         43.4583         2.75664 
        2.92176         43.2722         2.71916 
        2.93747         42.7362         2.68239 
        2.95318          42.313         2.64629 
        2.96891          41.864         2.61084 
        2.98456          41.617         2.57619 
        3.00023          41.039         2.54211 
        3.01596         40.6358         2.50854 
        3.03164         40.3085         2.47567 
        3.04738           39.92         2.44329 
         3.0631         39.6977          2.4115 
        3.07883         39.1732         2.38027 
        3.09456         38.8031         2.34959 
        3.11026         38.3083          2.3195 
        3.12596         38.0344         2.28994 
        3.14163         37.5946         2.26096 
        3.15734         37.2908         2.23241 
        3.17308         36.9746         2.20428 
        3.18879         36.6539         2.17671 
        3.20447         36.1228         2.14965 
         3.2202         35.8318         2.12296 
         3.2359         35.6554         2.09677 
        3.25157         35.1477         2.07108 
        3.26729          34.911         2.04574 
        3.28304         34.6334         2.02078 
        3.29877         34.1486         1.99626 
        3.31446         33.8733          1.9722 
        3.33014         33.5204         1.94856 
        3.34585          33.186         1.92526 
        3.36158         32.9702         1.90231 
        3.37727         32.5724         1.87981 
        3.39294         32.3485         1.85768 
        3.40867         32.0293         1.83583 
        3.42439         31.7495         1.81435 
        3.44008         31.4692         1.79324 
        3.45578         31.1253         1.77246 
        3.47153         30.9331         1.75195 
        3.48724         30.5382         1.73181 
        3.50292         30.3463         1.71203 
        3.51859          30.064         1.69256 
        3.53431         29.7701         1.67333 
        3.55007         29.3824         1.65436 
        3.56577         29.1446         1.63575 
        3.58146          28.851         1.61744 
        3.59719         28.7127         1.59936 
        3.61292         28.4194         1.58156 
        3.62859         28.1596          1.5641 
        3.64429         27.8825         1.54687 
        3.66003         27.5831         1.52984 
        3.67578         27.4097         1.51307 
        3.69146          27.125         1.49662 
        3.70712         26.9446         1.48044 
        3.72284         26.7671         1.46444 
        3.73853          26.502          1.4487 
        3.75422         26.2127         1.43319 
        3.76993         26.0496         1.41789 
        3.78564         25.7363         1.40281 
        3.80137         25.5575         1.38793 
        3.81707          25.295          1.3733 
        3.83279         25.0608         1.35886 
        3.84853          24.906         1.34461 
        3.86424          24.603         1.33059 
        3.87992         24.3999         1.31679 
        3.89561         24.2417         1.30318 
        3.91134         23.9689         1.28973 
        3.92704         23.7723         1.27649 
        3.94273         23.5284         1.26345 
        3.95845         23.3893         1.25056 
        3.97418         23.1836         1.23786 
        3.98988         22.9586         1.22534 
        4.00554         22.7093         1.21303 
        4.02125         22.5734         1.20085 
        4.03698         22.3408         1.18882 
        4.05268         22.2171         1.17698 
        4.06839         21.9837          1.1653 
         4.0841         21.7801         1.15377 
        4.09983         21.6362         1.14238 
        4.11555         21.4639         1.13115 
        4.13124         21.3174         1.12011 
        4.14693         21.0997         1.10919 
        4.16266         20.9402          1.0984 
        4.17839         20.7399         1.08776 
        4.19408         20.6058         1.07728 
        4.20977         20.4128         1.06694 
        4.22551         20.2664          1.0567 
        4.24123         20.0574         1.04661 
        4.25691          19.928         1.03668 
        4.27259         19.7544         1.02687 
        4.28831         19.5965         1.01717 
        4.30404         19.3925         1.00759 
        4.31974         19.2876        0.998143 
        4.33543         19.1024        0.988827 
        4.35116         18.9553        0.979607 
        4.36688         18.7626        0.970507 
        4.38255          18.647        0.961556 
        4.39825         18.4838        0.952698 
        4.41398         18.3356        0.943933 
         4.4297         18.2171        0.935287 
        4.44541         18.0437        0.926751 
        4.46111          17.833        0.918326 
        4.47683         17.7543            0.91 
        4.49251         17.6028        0.901794 
        4.50819         17.4506         0.89369 
         4.5239         17.3776        0.885674 
        4.53962         17.1916        0.877745 
        4.55535         17.0508        0.869909 
        4.57106         16.9193         0.86218 
        4.58678         16.7835        0.854542 
         4.6025         16.6341        0.846994 
        4.61821         16.4888        0.839539 
        4.63391         16.3665        0.832182 
         4.6496         16.2372        0.824916 
        4.66532         16.1059        0.817725 
        4.68103         16.0061        0.810622 
        4.69673         15.8712         0.80361 
        4.71241         15.7499        0.796688 
        4.72811         15.6224        0.789835 
        4.74384         15.5101        0.783053 
        4.75955         15.3689        0.776361 
        4.77525         15.2349        0.769751 
        4.79096         15.1129        0.763209 
        4.80669         15.0321        0.756739 
         4.8224         14.9114        0.750352 
        4.83809         14.7537        0.744044 
        4.85379         14.6556        0.737804 
         4.8695         14.5847        0.731631 
        4.88521          14.451        0.725531 
        4.90093         14.3105        0.719499 
        4.91663          14.237         0.71354 
        4.93234         14.1381        0.707642 
        4.94807         14.0085        0.701807 
        4.96377         13.9434        0.696048 
        4.97943           13.81        0.690365 
        4.99514         13.6867        0.684731 
        5.01086         13.5847        0.679155 
        5.02654         13.5184        0.673655 
        5.04227         13.3761        0.668199 
          5.058          13.275        0.662801 
        5.07371         13.2104        0.657473 
        5.08942         13.1187        0.652202 
        5.10513         12.9931        0.646988 
        5.12084         12.8992        0.641828 
        5.13656         12.7838        0.636725 
        5.15225         12.7197        0.631686 
        5.16796          12.627        0.626693 
        5.18369         12.5138         0.62175 
         5.1994         12.4409        0.616868 
        5.21509          12.346        0.612042 
        5.23079         12.2557        0.607263 
        5.24649         12.1252        0.602538 
        5.26217         12.0775        0.597866 
        5.27788         11.9938        0.593237 
        5.29359         11.8903        0.588655 
        5.30933         11.8067        0.584116 
        5.32504         11.7172        0.579631 
        5.34073         11.6509        0.575198 
        5.35646         11.5563        0.570802 
        5.37218         11.4706        0.566452 
        5.38789         11.3681        0.562153 
        5.40357         11.2927        0.557903 
        5.41929         11.2285        0.553688 
        5.43502         11.1493        0.549516 
         5.4507         11.0774        0.545396 
        5.46639         10.9699        0.541318 
        5.48212         10.9237        0.537272 
        5.49786         10.8347        0.533262 
        5.51353           10.76        0.529312 
        5.52921         10.6975        0.525399 
        5.54495         10.6235        0.521513 
        5.56066          10.521         0.51767 
        5.57637          10.467        0.513867 
        5.59207         10.3562        0.510105 
        5.60778         10.3373        0.506379 
        5.62346         10.2459        0.502695 
        5.63916         10.1575        0.499044 
        5.65487         10.1185        0.495427 
         5.6706          10.028        0.491842 
        5.68633         9.95084         0.48829 
        5.70203         9.90001        0.484781 
        5.71773         9.82824        0.481307 
        5.73344         9.75381        0.477865 
        5.74916         9.69702        0.474453 
        5.76486         9.61016        0.471078 
        5.78054         9.55854        0.467742 
        5.79626          9.4803        0.464428 
          5.812         9.41419        0.461143 
         5.8277         9.35211        0.457899 
        5.84339         9.25553        0.454687 
        5.85911         9.23999        0.451498 
        5.87484         9.17053        0.448341 
        5.89053         9.10743         0.44522 
        5.90623         9.04899        0.442127 
        5.92195          8.9646        0.439058 
        5.93767         8.92934        0.436019 
        5.95336         8.84831        0.433014 
        5.96905          8.7927        0.430039 
        5.98476         8.75115        0.427087 
        6.00048         8.69488        0.424161 
        6.01617         8.62671        0.421267 
        6.03185          8.5642        0.418403 
        6.04756         8.51006        0.415559 
        6.06331         8.46374        0.412735 
        6.07903         8.40458        0.409943 
        6.09473         8.34141        0.407179 
        6.11044         8.29427        0.404438 
        6.12616         8.24679        0.401723 
        6.14186         8.19055        0.399035 
        6.15755         8.13952        0.396372 
        6.17326         8.09626        0.393731 
        6.18898         8.01179        0.391112 
        6.20467         7.98502        0.388522 
        6.22036          7.9095        0.385955 
         6.2361         7.86788        0.383405 
         6.2518         7.81171        0.380882 
        6.26748         7.78191        0.378386 
        6.28319         7.72302        0.375906 
        6.29893         7.66715        0.373446 
        6.31463         7.61118        0.371013 
        6.33033         7.56246        0.368601 
        6.34604         7.52591        0.366209 
        6.36177         7.46669        0.363836 
        6.37747         7.42078        0.361488 
