# k  (h/Mpc)    Pcb(k)  (Mpc/h)^3    Pcb_linear(k) (Mpc/h)^3   ShotnoiseSubtracted = true
      0.0200456         427.366         432.689 
      0.0350414         293.005         292.682 
      0.0492313         209.256         208.375 
      0.0637834         172.137         171.473 
      0.0800726         130.659         129.853 
       0.096163         91.8837         91.6678 
       0.111083         74.3685         74.6518 
       0.126058         65.9694         65.9784 
       0.142273         53.6485         53.2492 
       0.158546         41.9792         41.5195 
        0.17375         35.9184         36.0363 
       0.188953         32.5266         32.4894 
       0.204907         28.2401         27.6349 
       0.220756         23.4645          23.157 
        0.23588         20.8048         20.6128 
         0.2514         18.7639         18.7276 
       0.267535         16.6091         16.4851 
       0.283568         14.5706         14.4051 
       0.299022         13.1901          13.005 
       0.314451         11.8909         11.9081 
       0.330372         10.8245         10.7459 
       0.346141         9.75373         9.67164 
       0.361624         8.94563         8.83994 
       0.377134         8.29105          8.1482 
       0.392932         7.42515         7.47521 
       0.408854         6.96042         6.84344 
       0.424564          6.3847         6.31442 
       0.440253         5.92085         5.85823 
       0.455999         5.52882          5.4337 
       0.471626         5.15508         5.04369 
        0.48727         4.77328         4.69649 
       0.502856         4.44173          4.3894 
       0.518488         4.21191         4.10597 
       0.534347         3.97743         3.84052 
       0.550082         3.65126         3.60111 
       0.565732         3.37833          3.3853 
       0.581496         3.25359         3.18517 
       0.597222         3.08096         3.00061 
       0.612804         2.88276         2.83199 
       0.628434         2.75768         2.67652 
       0.644267         2.59621          2.5311 
       0.660051         2.44454         2.39673 
       0.675724         2.32545         2.27282 
       0.691403         2.22379         2.15752 
       0.707174         2.09932         2.04953 
       0.722871         1.99112         1.94933 
        0.73838         1.91014         1.85687 
       0.754018         1.83718         1.76969 
       0.769845         1.73895         1.68715 
        0.78569         1.66212         1.60978 
       0.801365          1.5826         1.53802 
       0.817031         1.51993         1.47068 
       0.832809         1.45356         1.40694 
       0.848511         1.38245         1.34726 
       0.864097         1.31993         1.29144 
       0.879701         1.26711         1.23873 
       0.895507          1.2217         1.18834 
       0.911279         1.18271         1.14085 
        0.92691         1.13218         1.09635 
       0.942635         1.08589         1.05397 
       0.958396         1.03985         1.01373 
       0.974128         1.00282        0.975667 
       0.989692        0.972195        0.939927 
        1.00528        0.933463        0.905922 
        1.02113         0.89266        0.873064 
        1.03692        0.870277        0.841955 
        1.05264        0.837182        0.812502 
        1.06832        0.811191        0.784501 
        1.08405        0.773547        0.757744 
        1.09979        0.750898        0.732217 
        1.11537        0.730648        0.708116 
        1.13105        0.707324        0.684955 
        1.14679         0.68805        0.662739 
        1.16256        0.657364        0.641463 
        1.17828         0.63835         0.62119 
        1.19395        0.617798         0.60186 
         1.2097        0.593439        0.583252 
        1.22537        0.581401         0.56552 
          1.241        0.563627        0.548577 
        1.25666        0.553141        0.532284 
        1.27241        0.528674        0.516575 
        1.28819        0.513626        0.501473 
        1.30392        0.501001        0.487016 
        1.31957        0.487353        0.473193 
        1.33529        0.471452        0.459854 
        1.35108        0.457669        0.446975 
        1.36674        0.440835         0.43468 
         1.3824        0.434666        0.422858 
        1.39811        0.420448        0.411435 
        1.41389        0.410301        0.400389 
        1.42964        0.400516        0.389767 
        1.44531        0.386382         0.37958 
        1.46101        0.378518        0.369735 
        1.47667        0.364298        0.360267 
        1.49229        0.359376        0.351155 
        1.50793         0.34739        0.342347 
        1.52367        0.340133        0.333784 
        1.53953         0.33037        0.325455 
        1.55526        0.322879        0.317476 
        1.57092        0.313092        0.309796 
        1.58662        0.307203        0.302352 
        1.60235        0.300191        0.295137 
        1.61809        0.289582        0.288153 
        1.63369        0.287875        0.281456 
        1.64941        0.278123        0.274924 
        1.66519        0.271166        0.268575 
        1.68085         0.26373        0.262471 
        1.69652        0.258196        0.256554 
        1.71228         0.25363        0.250785 
        1.72806        0.245509        0.245188 
        1.74368        0.242432        0.239818 
        1.75933        0.235656        0.234597 
        1.77505        0.230333        0.229507 
        1.79081         0.22592        0.224559 
         1.8065        0.218763        0.219777 
        1.82218         0.21554        0.215138 
        1.83797        0.210034          0.2106 
        1.85367        0.206915        0.206218 
        1.86928        0.201984        0.201987 
        1.88497        0.197601        0.197851 
        1.90073        0.192797        0.193814 
        1.91647        0.189259        0.189894 
        1.93218        0.184744         0.18609 
        1.94787         0.18119        0.182396 
        1.96363        0.177274        0.178786 
        1.97935        0.172986        0.175282 
        1.99499        0.170141        0.171891 
        2.01064        0.166615        0.168584 
         2.0264        0.162558        0.165343 
        2.04216        0.160789        0.162189 
        2.05781        0.156827        0.159136 
        2.07353        0.152718        0.156151 
        2.08928         0.14981        0.153236 
        2.10499        0.147387        0.150402 
        2.12065        0.145079        0.147649 
        2.13633        0.141774        0.144961 
        2.15211        0.139586        0.142323 
        2.16785        0.136296        0.139758 
        2.18349        0.133058        0.137272 
        2.19916        0.131659         0.13484 
        2.21489        0.128685         0.13246 
        2.23063        0.126819        0.130135 
         2.2463        0.124068        0.127876 
        2.26194        0.121236        0.125676 
        2.27765        0.119221        0.123516 
        2.29341        0.117406        0.121401 
        2.30914        0.115075         0.11934 
        2.32486        0.113059        0.117327 
        2.34061        0.111011        0.115358 
        2.35635        0.108757        0.113435 
        2.37203        0.106727        0.111563 
        2.38768        0.104922        0.109736 
        2.40339        0.103344        0.107944 
        2.41914        0.101671        0.106187 
        2.43483       0.0998295        0.104475 
         2.4505       0.0974604        0.102804 
        2.46622       0.0959832        0.101163 
        2.48195       0.0943591       0.0995584 
        2.49759       0.0932966       0.0979965 
        2.51328       0.0916243        0.096464 
        2.52906       0.0899217       0.0949544 
        2.54479       0.0881728       0.0934826 
        2.56049       0.0866939       0.0920447 
        2.57618        0.085233       0.0906381 
        2.59189       0.0841024       0.0892587 
        2.60758       0.0830018         0.08791 
        2.62325        0.081122       0.0865907 
        2.63898       0.0799711       0.0852938 
        2.65468       0.0783076        0.084026 
        2.67044       0.0775622       0.0827784 
        2.68618       0.0762178       0.0815589 
        2.70184       0.0748322       0.0803687 
        2.71755       0.0733694       0.0791992 
        2.73329       0.0725784       0.0780511 
        2.74897       0.0715711       0.0769293 
        2.76462       0.0701575        0.075832 
        2.78034       0.0692684       0.0747515 
        2.79607       0.0679082       0.0736907 
        2.81179       0.0674539       0.0726517 
        2.82749       0.0659818       0.0716338 
        2.84321       0.0649715       0.0706341 
        2.85893       0.0642454       0.0696537 
        2.87462       0.0632848       0.0686935 
        2.89033        0.062318       0.0677505 
        2.90605        0.061112       0.0668242 
        2.92176       0.0605082       0.0659156 
        2.93747       0.0594213       0.0650244 
        2.95318       0.0585799       0.0641493 
        2.96891       0.0577768       0.0632898 
        2.98456       0.0569874       0.0624499 
        3.00023       0.0561613       0.0616238 
        3.01596       0.0553557       0.0608101 
        3.03164       0.0548617       0.0600133 
        3.04738        0.053735       0.0592284 
         3.0631       0.0530343       0.0584577 
        3.07883       0.0523475       0.0577006 
        3.09456       0.0516708        0.056957 
        3.11026       0.0508753       0.0562275 
        3.12596       0.0502236       0.0555109 
        3.14163       0.0495609       0.0548083 
        3.15734       0.0490049       0.0541162 
        3.17308       0.0483309       0.0534343 
        3.18879       0.0476683        0.052766 
        3.20447       0.0470398         0.05211 
         3.2202       0.0465963       0.0514631 
         3.2359       0.0459259       0.0508282 
        3.25157       0.0452579       0.0502055 
        3.26729        0.044577       0.0495913 
        3.28304       0.0442637       0.0489862 
        3.29877       0.0436573       0.0483918 
        3.31446       0.0431127       0.0478086 
        3.33014       0.0427649       0.0472354 
        3.34585       0.0421489       0.0466707 
        3.36158       0.0416702       0.0461144 
        3.37727       0.0411684       0.0455688 
        3.39294       0.0406925       0.0450325 
        3.40867       0.0401284       0.0445029 
        3.42439        0.039788        0.043982 
        3.44008       0.0391911       0.0434704 
        3.45578        0.038976       0.0429665 
        3.47153       0.0383577       0.0424695 
        3.48724       0.0380995       0.0419812 
        3.50292       0.0376083       0.0415016 
        3.51859       0.0371808       0.0410297 
        3.53431       0.0367789       0.0405637 
        3.55007       0.0364791       0.0401037 
        3.56577       0.0361105       0.0396526 
        3.58146         0.03574       0.0392086 
        3.59719       0.0354412       0.0387704 
        3.61292        0.035032       0.0383389 
        3.62859       0.0345898       0.0379157 
        3.64429       0.0343094       0.0374979 
        3.66003       0.0340193       0.0370852 
        3.67578       0.0336093       0.0366787 
        3.69146       0.0332911       0.0362799 
        3.70712        0.033128       0.0358877 
        3.72284       0.0328371       0.0354998 
        3.73853       0.0324325       0.0351183 
        3.75422       0.0322283       0.0347422 
        3.76993        0.031797       0.0343713 
        3.78564       0.0316788       0.0340059 
        3.80137       0.0312944       0.0336452 
        3.81707       0.0310648       0.0332904 
        3.83279       0.0308753       0.0329405 
        3.84853       0.0305825        0.032595 
        3.86424       0.0303409       0.0322551 
        3.87992       0.0300212       0.0319205 
        3.89561       0.0297839       0.0315906 
        3.91134       0.0295199       0.0312647 
        3.92704       0.0292446       0.0309437 
        3.94273       0.0289839       0.0306275 
        3.95845       0.0287124       0.0303152 
        3.97418       0.0285251       0.0300071 
        3.98988       0.0281849       0.0297037 
        4.00554       0.0279849       0.0294053 
        4.02125       0.0275876       0.0291101 
        4.03698       0.0271318       0.0288185 
        4.05268       0.0267939       0.0285315 
        4.06839        0.026417       0.0282482 
         4.0841       0.0260189       0.0279688 
        4.09983        0.025629       0.0276928 
        4.11555       0.0252183       0.0274206 
        4.13124       0.0248743       0.0271527 
        4.14693       0.0245457       0.0268882 
        4.16266       0.0242217       0.0266266 
        4.17839       0.0239257       0.0263686 
        4.19408       0.0236091       0.0261146 
        4.20977       0.0232933       0.0258639 
        4.22551       0.0230001       0.0256158 
        4.24123       0.0227331       0.0253711 
        4.25691       0.0224284       0.0251304 
        4.27259       0.0222039       0.0248926 
        4.28831       0.0220153       0.0246575 
        4.30404       0.0217968       0.0244251 
        4.31974       0.0215871       0.0241962 
        4.33543       0.0213948       0.0239704 
        4.35116       0.0211945       0.0237469 
        4.36688       0.0210241       0.0235263 
        4.38255       0.0208275       0.0233093 
        4.39825       0.0206888       0.0230946 
        4.41398       0.0205985       0.0228821 
         4.4297       0.0204888       0.0226725 
        4.44541       0.0203299       0.0224656 
        4.46111        0.020188       0.0222613 
        4.47683       0.0201301       0.0220595 
        4.49251       0.0199885       0.0218606 
        4.50819       0.0199351       0.0216641 
         4.5239       0.0197946       0.0214698 
        4.53962       0.0197687       0.0212776 
        4.55535       0.0197297       0.0210877 
        4.57106       0.0197314       0.0209003 
        4.58678       0.0196002       0.0207151 
         4.6025       0.0196379       0.0205322 
        4.61821        0.019671       0.0203514 
        4.63391       0.0196541       0.0201731 
         4.6496       0.0196141        0.019997 
        4.66532       0.0196528       0.0198226 
        4.68103       0.0196628       0.0196505 
        4.69673       0.0196913       0.0194805 
        4.71241       0.0197312       0.0193127 
        4.72811       0.0197366       0.0191466 
        4.74384       0.0198218       0.0189822 
        4.75955       0.0199224       0.0188199 
        4.77525       0.0200136       0.0186597 
        4.79096       0.0200314       0.0185011 
        4.80669        0.020168       0.0183443 
         4.8224         0.02034       0.0181894 
        4.83809       0.0204497       0.0180365 
        4.85379       0.0205603       0.0178853 
         4.8695       0.0207402       0.0177356 
        4.88521       0.0208228       0.0175877 
        4.90093       0.0210888       0.0174415 
        4.91663       0.0212061       0.0172971 
        4.93234       0.0212945       0.0171541 
        4.94807       0.0215136       0.0170126 
        4.96377       0.0217718        0.016873 
        4.97943        0.022051       0.0167353 
        4.99514       0.0220684       0.0165987 
        5.01086       0.0224243       0.0164635 
        5.02654       0.0226477       0.0163302 
        5.04227       0.0228963        0.016198 
          5.058       0.0231991       0.0160671 
        5.07371       0.0233855       0.0159379 
        5.08942       0.0237272       0.0158102 
        5.10513       0.0240906       0.0156838 
        5.12084       0.0243724       0.0155587 
        5.13656       0.0246838        0.015435 
        5.15225       0.0250673       0.0153128 
        5.16796       0.0253687       0.0151918 
        5.18369        0.025752        0.015072 
         5.1994       0.0261667       0.0149536 
        5.21509       0.0264561       0.0148367 
        5.23079       0.0268574       0.0147208 
        5.24649        0.027376       0.0146062 
        5.26217       0.0278286        0.014493 
        5.27788       0.0282096       0.0143808 
        5.29359       0.0287771       0.0142697 
        5.30933       0.0291411       0.0141597 
        5.32504       0.0296674        0.014051 
        5.34073       0.0302691       0.0139435 
        5.35646       0.0307513       0.0138369 
        5.37218       0.0312009       0.0137315 
        5.38789        0.032029       0.0136273 
        5.40357       0.0323645       0.0135243 
        5.41929       0.0331673       0.0134221 
        5.43502       0.0335816       0.0133209 
         5.4507       0.0342734       0.0132211 
        5.46639       0.0350362       0.0131222 
        5.48212       0.0356457       0.0130241 
        5.49786       0.0363652       0.0129269 
        5.51353        0.037377       0.0128312 
        5.52921       0.0378932       0.0127363 
        5.54495       0.0388211       0.0126421 
        5.56066       0.0395879        0.012549 
        5.57637       0.0402719       0.0124568 
        5.59207       0.0413484       0.0123656 
        5.60778       0.0421775       0.0122752 
        5.62346       0.0430701       0.0121859 
        5.63916       0.0439802       0.0120974 
        5.65487       0.0449943       0.0120098 
         5.6706       0.0457344       0.0119228 
        5.68633       0.0470278       0.0118368 
        5.70203       0.0477762       0.0117517 
        5.71773       0.0492084       0.0116675 
        5.73344       0.0501714        0.011584 
        5.74916       0.0514692       0.0115013 
        5.76486       0.0526754       0.0114195 
        5.78054       0.0535706       0.0113386 
        5.79626       0.0548104       0.0112583 
          5.812       0.0564297       0.0111787 
         5.8277       0.0574577          0.0111 
        5.84339        0.058893       0.0110222 
        5.85911       0.0603008       0.0109449 
        5.87484       0.0617484       0.0108683 
        5.89053       0.0633287       0.0107927 
        5.90623       0.0650914       0.0107177 
        5.92195       0.0667043       0.0106433 
        5.93767        0.068369       0.0105696 
        5.95336       0.0696858       0.0104968 
        5.96905       0.0718532       0.0104247 
        5.98476       0.0734458       0.0103531 
        6.00048       0.0747211       0.0102822 
        6.01617       0.0770663        0.010212 
        6.03185       0.0790803       0.0101426 
        6.04756       0.0811232       0.0100737 
        6.06331       0.0828752       0.0100052 
        6.07903       0.0851411      0.00993751 
        6.09473       0.0875369      0.00987052 
        6.11044       0.0900473      0.00980407 
        6.12616       0.0921765      0.00973825 
        6.14186       0.0946455      0.00967309 
        6.15755       0.0971479      0.00960853 
        6.17326       0.0999973      0.00954451 
        6.18898        0.101772      0.00948103 
        6.20467        0.105379      0.00941825 
        6.22036        0.107303      0.00935603 
         6.2361        0.110593       0.0092942 
         6.2518        0.112915      0.00923303 
        6.26748        0.115912      0.00917254 
        6.28319        0.119552      0.00911243 
        6.29893        0.122699      0.00905279 
        6.31463        0.125495      0.00899379 
        6.33033        0.128737      0.00893534 
        6.34604         0.13339      0.00887735 
        6.36177        0.135561      0.00881982 
        6.37747        0.140325      0.00876291 
