# k  (h/Mpc)    Pcb(k)  (Mpc/h)^3    Pcb_linear(k) (Mpc/h)^3   ShotnoiseSubtracted = true
      0.0200456         10042.4         10209.8 
      0.0350414         6743.08         6906.17 
      0.0492313         4894.47         4916.85 
      0.0637834         4131.67          4046.1 
      0.0800726         3142.02         3064.03 
       0.096163         2143.13         2163.01 
       0.111083         1732.11          1761.5 
       0.126058         1586.77         1556.84 
       0.142273         1323.83         1256.48 
       0.158546         1084.65         979.701 
        0.17375         885.905         850.319 
       0.188953         847.526         766.625 
       0.204907         776.129         652.077 
       0.220756         651.774         546.416 
        0.23588         576.337         486.383 
         0.2514          504.15         441.899 
       0.267535         479.877         388.986 
       0.283568         432.572         339.905 
       0.299022         402.206         306.869 
       0.314451         373.385         280.986 
       0.330372         343.152         253.563 
       0.346141         307.581         228.214 
       0.361624         295.535         208.589 
       0.377134         274.499         192.266 
       0.392932         255.699         176.386 
       0.408854         244.493         161.479 
       0.424564         232.866         148.996 
       0.440253         222.432         138.232 
       0.455999         208.402         128.215 
       0.471626         193.563         119.012 
        0.48727         186.789         110.819 
       0.502856         179.835         103.573 
       0.518488         176.381         96.8852 
       0.534347         166.737         90.6217 
       0.550082         155.138         84.9725 
       0.565732         150.835         79.8801 
       0.581496          143.61         75.1579 
       0.597222         139.307         70.8029 
       0.612804          133.59         66.8241 
       0.628434         129.537         63.1556 
       0.644267         125.043         59.7243 
       0.660051         123.063         56.5538 
       0.675724         119.376         53.6299 
       0.691403         115.502         50.9092 
       0.707174         110.705         48.3612 
       0.722871         109.353         45.9968 
        0.73838         106.907         43.8151 
       0.754018         102.574          41.758 
       0.769845         100.126         39.8102 
        0.78569         97.8715         37.9846 
       0.801365         94.8874         36.2913 
       0.817031         91.4594         34.7023 
       0.832809         90.3173         33.1983 
       0.848511         87.3729         31.7901 
       0.864097         85.2916         30.4731 
       0.879701         83.7364         29.2294 
       0.895507         81.9212         28.0403 
       0.911279          80.338         26.9197 
        0.92691         78.9387         25.8696 
       0.942635         76.4649         24.8696 
       0.958396         76.1709         23.9202 
       0.974128         74.0438          23.022 
       0.989692         72.3058         22.1787 
        1.00528         70.7213         21.3763 
        1.02113         69.8419          20.601 
        1.03692         67.3754         19.8669 
        1.05264         67.3228         19.1719 
        1.06832         65.2872         18.5112 
        1.08405         64.4336         17.8799 
        1.09979         64.0819         17.2775 
        1.11537         61.6873         16.7088 
        1.13105         61.9428         16.1623 
        1.14679         60.5922         15.6381 
        1.16256         59.6727         15.1361 
        1.17828         58.2258         14.6577 
        1.19395         57.4429         14.2016 
         1.2097         56.1481         13.7625 
        1.22537         56.3021         13.3441 
          1.241         54.8189         12.9443 
        1.25666         53.6725         12.5599 
        1.27241         53.0679         12.1892 
        1.28819         52.1006         11.8328 
        1.30392         51.4181         11.4917 
        1.31957          50.848         11.1655 
        1.33529         49.8119         10.8508 
        1.35108         49.6031         10.5469 
        1.36674         48.9807         10.2568 
         1.3824         47.7877         9.97784 
        1.39811         47.3964          9.7083 
        1.41389         46.7243         9.44766 
        1.42964         46.0915           9.197 
        1.44531         45.2639         8.95664 
        1.46101         44.5398         8.72433 
        1.47667         44.4929         8.50092 
        1.49229         43.7861         8.28592 
        1.50793         43.2701         8.07808 
        1.52367         42.4361         7.87602 
        1.53953         42.1125         7.67949 
        1.55526         41.5927         7.49122 
        1.57092         41.1836         7.31001 
        1.58662         40.6091         7.13435 
        1.60235         40.1366         6.96411 
        1.61809         39.5846         6.79931 
        1.63369         38.9184          6.6413 
        1.64941         38.5692         6.48716 
        1.66519          37.873         6.33734 
        1.68085         37.6634          6.1933 
        1.69652         37.0425         6.05368 
        1.71228         36.8305         5.91756 
        1.72806         36.3996         5.78551 
        1.74368         35.7931         5.65879 
        1.75933         35.4621          5.5356 
        1.77505         35.1423          5.4155 
        1.79081         34.6429         5.29873 
         1.8065         34.3451         5.18589 
        1.82218         33.9166         5.07642 
        1.83797         33.3906         4.96936 
        1.85367         32.9929         4.86596 
        1.86928         32.6833         4.76611 
        1.88497         32.5137         4.66852 
        1.90073         32.0322         4.57328 
        1.91647         31.6847         4.48078 
        1.93218         31.4512         4.39102 
        1.94787         31.0233         4.30384 
        1.96363         30.7623         4.21868 
        1.97935         30.3028         4.13598 
        1.99499         30.0592         4.05596 
        2.01064         29.8124         3.97794 
         2.0264         29.3108         3.90147 
        2.04216         29.0841         3.82704 
        2.05781         28.6858         3.75501 
        2.07353         28.4257         3.68457 
        2.08928         28.3689         3.61578 
        2.10499         27.9261         3.54892 
        2.12065         27.5513         3.48394 
        2.13633         27.4353         3.42053 
        2.15211         27.0347         3.35829 
        2.16785         26.6479         3.29775 
        2.18349          26.476         3.23909 
        2.19916         26.2841         3.18172 
        2.21489         25.9146         3.12554 
        2.23063         25.6718         3.07068 
         2.2463         25.3722         3.01738 
        2.26194         25.1999         2.96546 
        2.27765         24.9379          2.9145 
        2.29341         24.7105          2.8646 
        2.30914         24.5084         2.81596 
        2.32486         24.1697         2.76848 
        2.34061         23.9974           2.722 
        2.35635         23.7541         2.67663 
        2.37203         23.6052         2.63245 
        2.38768         23.2533         2.58935 
        2.40339         23.1474         2.54706 
        2.41914         22.8934          2.5056 
        2.43483         22.6384         2.46521 
         2.4505         22.4564         2.42578 
        2.46622         22.2218         2.38707 
        2.48195         22.0039          2.3492 
        2.49759          21.813         2.31234 
        2.51328         21.5031         2.27618 
        2.52906         21.4549         2.24056 
        2.54479         21.1442         2.20583 
        2.56049         20.9348          2.1719 
        2.57618         20.7099         2.13871 
        2.59189         20.6413         2.10616 
        2.60758         20.4107         2.07434 
        2.62325         20.1636         2.04321 
        2.63898         20.0818         2.01261 
        2.65468          19.817         1.98269 
        2.67044         19.6638         1.95325 
        2.68618         19.4198         1.92448 
        2.70184         19.3131         1.89639 
        2.71755         19.1727          1.8688 
        2.73329         18.9353         1.84171 
        2.74897         18.7165         1.81524 
        2.76462         18.6181         1.78935 
        2.78034         18.4832         1.76385 
        2.79607         18.3156         1.73882 
        2.81179         18.0884          1.7143 
        2.82749         17.9783         1.69028 
        2.84321         17.8382         1.66669 
        2.85893          17.572         1.64356 
        2.87462         17.4691          1.6209 
        2.89033          17.393         1.59865 
        2.90605          17.212          1.5768 
        2.92176         17.0059         1.55536 
        2.93747         16.9056         1.53433 
        2.95318         16.7132         1.51368 
        2.96891         16.6043          1.4934 
        2.98456         16.4663         1.47358 
        3.00023         16.2223         1.45409 
        3.01596         16.2056         1.43489 
        3.03164          16.045         1.41608 
        3.04738         15.8699         1.39756 
         3.0631          15.737         1.37938 
        3.07883         15.5823         1.36151 
        3.09456         15.4351         1.34397 
        3.11026         15.3196         1.32676 
        3.12596         15.2001         1.30984 
        3.14163         15.0696         1.29327 
        3.15734         14.9206         1.27694 
        3.17308         14.7838         1.26085 
        3.18879         14.6839         1.24508 
        3.20447         14.5748          1.2296 
         3.2202         14.4135         1.21433 
         3.2359         14.2757         1.19935 
        3.25157         14.1841         1.18466 
        3.26729         14.0981         1.17017 
        3.28304         13.9445         1.15589 
        3.29877         13.7807         1.14186 
        3.31446         13.6895          1.1281 
        3.33014         13.5769         1.11458 
        3.34585         13.4357         1.10125 
        3.36158         13.3397         1.08812 
        3.37727         13.2146         1.07525 
        3.39294         13.0903          1.0626 
        3.40867          12.976          1.0501 
        3.42439         12.8906         1.03781 
        3.44008         12.7749         1.02574 
        3.45578         12.6784         1.01385 
        3.47153         12.6034         1.00212 
        3.48724         12.4573        0.990595 
        3.50292         12.3756        0.979279 
        3.51859         12.2747        0.968144 
        3.53431         12.1884        0.957147 
        3.55007         12.0794        0.946294 
        3.56577         11.9735         0.93565 
        3.58146         11.8973        0.925173 
        3.59719         11.7637        0.914832 
        3.61292         11.6748        0.904652 
        3.62859         11.5863        0.894664 
        3.64429         11.4956        0.884807 
        3.66003         11.4116        0.875068 
        3.67578         11.3495        0.865478 
        3.69146         11.2313        0.856067 
        3.70712         11.1236        0.846813 
        3.72284         11.0578         0.83766 
        3.73853         10.9234        0.828657 
        3.75422         10.8395        0.819783 
        3.76993         10.7884        0.811031 
        3.78564          10.658        0.802409 
        3.80137         10.6004        0.793897 
        3.81707         10.5456        0.785527 
        3.83279         10.3998        0.777269 
        3.84853         10.3593        0.769116 
        3.86424         10.2036        0.761096 
        3.87992         10.1702        0.753201 
        3.89561          10.077        0.745417 
        3.91134         10.0027        0.737727 
        3.92704         9.92798        0.730153 
        3.94273          9.8407        0.722693 
        3.95845         9.76643        0.715323 
        3.97418         9.71947        0.708053 
        3.98988         9.61141        0.700894 
        4.00554         9.56506        0.693852 
        4.02125         9.45823        0.686887 
        4.03698         9.38405        0.680006 
        4.05268         9.31476        0.673234 
        4.06839         9.25579        0.666549 
         4.0841          9.1323        0.659957 
        4.09983         9.10067        0.653444 
        4.11555         9.02149         0.64702 
        4.13124         8.94967        0.640701 
        4.14693         8.88564        0.634459 
        4.16266         8.81766        0.628287 
        4.17839         8.74849        0.622199 
        4.19408          8.6839        0.616206 
        4.20977         8.60006        0.610288 
        4.22551         8.56428        0.604434 
        4.24123         8.48099        0.598662 
        4.25691         8.43838        0.592981 
        4.27259         8.33261        0.587371 
        4.28831         8.27797        0.581822 
        4.30404         8.20824        0.576339 
        4.31974         8.17708        0.570938 
        4.33543         8.10819        0.565609 
        4.35116         8.03159        0.560335 
        4.36688         7.97401         0.55513 
        4.38255         7.90443         0.55001 
        4.39825         7.85544        0.544943 
        4.41398         7.78225         0.53993 
         4.4297         7.73583        0.534984 
        4.44541         7.66674        0.530101 
        4.46111          7.6293        0.525283 
        4.47683         7.56973         0.52052 
        4.49251         7.51819        0.515826 
        4.50819         7.43343        0.511191 
         4.5239         7.38836        0.506605 
        4.53962         7.34682         0.50207 
        4.55535         7.27359        0.497588 
        4.57106         7.22204        0.493167 
        4.58678         7.17325        0.488798 
         4.6025         7.11403        0.484481 
        4.61821         7.05292        0.480216 
        4.63391         7.02756        0.476008 
         4.6496         6.96998        0.471852 
        4.66532         6.91011        0.467739 
        4.68103         6.86684        0.463676 
        4.69673           6.815        0.459665 
        4.71241          6.7642        0.455705 
        4.72811         6.68806        0.451785 
        4.74384         6.67386        0.447906 
        4.75955         6.61484        0.444079 
        4.77525         6.57118        0.440297 
        4.79096         6.52972        0.436555 
        4.80669         6.45665        0.432855 
         4.8224         6.41512        0.429201 
        4.83809         6.37005        0.425593 
        4.85379         6.31798        0.422024 
         4.8695         6.28574        0.418493 
        4.88521         6.24601        0.415004 
        4.90093         6.17852        0.411553 
        4.91663         6.13238        0.408145 
        4.93234         6.09703        0.404771 
        4.94807         6.05885        0.401433 
        4.96377         6.01856        0.398139 
        4.97943         5.98582        0.394889 
        4.99514         5.92414        0.391666 
        5.01086         5.87485        0.388476 
        5.02654         5.85268         0.38533 
        5.04227         5.80614         0.38221 
          5.058         5.76505        0.379122 
        5.07371         5.72615        0.376074 
        5.08942          5.6786        0.373059 
        5.10513         5.64358        0.370077 
        5.12084         5.59859        0.367126 
        5.13656         5.56896        0.364207 
        5.15225         5.51789        0.361324 
        5.16796         5.49693        0.358469 
        5.18369         5.45246        0.355641 
         5.1994         5.40263        0.352848 
        5.21509         5.38225        0.350088 
        5.23079         5.33299        0.347354 
        5.24649         5.31696        0.344652 
        5.26217         5.27482        0.341979 
        5.27788         5.22677        0.339331 
        5.29359         5.20141        0.336711 
        5.30933         5.16786        0.334114 
        5.32504         5.13418        0.331549 
        5.34073         5.08706        0.329013 
        5.35646         5.05351        0.326499 
        5.37218         5.02606         0.32401 
        5.38789         5.00049        0.321551 
        5.40357          4.9566        0.319121 
        5.41929         4.92832         0.31671 
        5.43502         4.88794        0.314323 
         5.4507         4.85296        0.311967 
        5.46639         4.82297        0.309634 
        5.48212         4.78184        0.307319 
        5.49786         4.76563        0.305026 
        5.51353         4.72306        0.302767 
        5.52921          4.7051        0.300528 
        5.54495         4.66072        0.298305 
        5.56066         4.63253        0.296107 
        5.57637         4.60423        0.293932 
        5.59207         4.57837         0.29178 
        5.60778         4.53807        0.289649 
        5.62346         4.51727        0.287541 
        5.63916         4.48219        0.285453 
        5.65487         4.45385        0.283384 
         5.6706         4.43391        0.281333 
        5.68633         4.39616        0.279302 
        5.70203         4.36756        0.277295 
        5.71773         4.34788        0.275308 
        5.73344         4.30947        0.273339 
        5.74916          4.2884        0.271387 
        5.76486         4.26123        0.269457 
        5.78054         4.23356        0.267548 
        5.79626         4.19774        0.265653 
          5.812          4.1887        0.263774 
         5.8277         4.14931        0.261918 
        5.84339         4.12584        0.260081 
        5.85911         4.10896        0.258257 
        5.87484           4.083        0.256451 
        5.89053         4.05014        0.254666 
        5.90623           4.024        0.252896 
        5.92195         4.00338        0.251141 
        5.93767         3.97377        0.249403 
        5.95336         3.95244        0.247684 
        5.96905         3.92937        0.245982 
        5.98476         3.89591        0.244294 
        6.00048         3.88225         0.24262 
        6.01617         3.85997        0.240965 
        6.03185         3.82166        0.239327 
        6.04756         3.80524          0.2377 
        6.06331         3.78153        0.236084 
        6.07903         3.76024        0.234487 
        6.09473          3.7385        0.232906 
        6.11044         3.71401        0.231339 
        6.12616         3.69475        0.229786 
        6.14186         3.67315        0.228248 
        6.15755         3.64716        0.226725 
        6.17326          3.6311        0.225214 
        6.18898         3.60796        0.223716 
        6.20467          3.5859        0.222235 
        6.22036         3.56603        0.220766 
         6.2361           3.545        0.219308 
         6.2518         3.52395        0.217864 
        6.26748         3.49616        0.216437 
        6.28319         3.47858        0.215018 
        6.29893         3.45417        0.213611 
        6.31463         3.43933        0.212219 
        6.33033         3.42047         0.21084 
        6.34604         3.39704        0.209472 
        6.36177         3.37528        0.208114 
        6.37747         3.36034        0.206771 
