# k  (h/Mpc)    Pcb(k)  (Mpc/h)^3    Pcb_linear(k) (Mpc/h)^3   ShotnoiseSubtracted = true
      0.0200456         14672.9         14943.7 
      0.0350414         9795.62         10108.3 
      0.0492313         7131.39         7196.62 
      0.0637834         6061.87         5922.14 
      0.0800726         4609.78         4484.71 
       0.096163         3130.86         3165.92 
       0.111083         2537.03         2578.24 
       0.126058         2330.09         2278.69 
       0.142273         1954.75         1839.06 
       0.158546         1636.76         1433.95 
        0.17375         1325.85         1244.58 
       0.188953         1281.62         1122.08 
       0.204907         1181.19         954.422 
       0.220756         1003.28          799.77 
        0.23588         890.896         711.902 
         0.2514          774.23         646.792 
       0.267535         752.191         569.345 
       0.283568         679.326         497.508 
       0.299022          636.66         449.154 
       0.314451         600.276          411.27 
       0.330372         551.006         371.131 
       0.346141         501.695         334.028 
       0.361624         483.505         305.304 
       0.377134         446.864         281.413 
       0.392932         425.626          258.17 
       0.408854         409.254         236.351 
       0.424564         385.164          218.08 
       0.440253         375.424         202.325 
       0.455999         352.567         187.663 
       0.471626         332.292         174.193 
        0.48727         319.774         162.202 
       0.502856         309.626         151.596 
       0.518488          306.29         141.807 
       0.534347         286.758          132.64 
       0.550082         271.514         124.371 
       0.565732         268.088         116.918 
       0.581496         252.757         110.006 
       0.597222         247.858         103.632 
       0.612804         240.266         97.8082 
       0.628434         230.561         92.4386 
       0.644267         223.608         87.4164 
       0.660051          219.92         82.7758 
       0.675724         215.373         78.4962 
       0.691403          209.01         74.5141 
       0.707174         201.161         70.7845 
       0.722871         198.514         67.3239 
        0.73838         194.614         64.1307 
       0.754018         189.925         61.1197 
       0.769845         183.321         58.2688 
        0.78569         182.336         55.5967 
       0.801365         175.692         53.1183 
       0.817031         170.419         50.7926 
       0.832809         168.826         48.5912 
       0.848511         163.933           46.53 
       0.864097         161.968         44.6024 
       0.879701         158.506          42.782 
       0.895507         154.382         41.0416 
       0.911279         149.978         39.4015 
        0.92691         150.067         37.8644 
       0.942635         145.675         36.4007 
       0.958396         145.263         35.0112 
       0.974128         141.543         33.6965 
       0.989692         138.368         32.4622 
        1.00528         136.321         31.2877 
        1.02113         135.117         30.1529 
        1.03692         131.145         29.0785 
        1.05264         128.784         28.0613 
        1.06832         126.433         27.0942 
        1.08405         124.735         26.1701 
        1.09979         124.066         25.2885 
        1.11537         120.498         24.4561 
        1.13105         119.281         23.6562 
        1.14679         118.572         22.8889 
        1.16256         116.889         22.1541 
        1.17828         114.424          21.454 
        1.19395         112.484         20.7864 
         1.2097         111.248         20.1437 
        1.22537         110.035         19.5313 
          1.241         108.019         18.9461 
        1.25666         106.345         18.3834 
        1.27241         104.502         17.8409 
        1.28819         103.412         17.3193 
        1.30392         101.499           16.82 
        1.31957         100.767         16.3426 
        1.33529         98.3755         15.8819 
        1.35108         97.5592         15.4371 
        1.36674         96.7261         15.0125 
         1.3824         94.8128         14.6042 
        1.39811         93.8467         14.2097 
        1.41389         92.6184         13.8282 
        1.42964         90.6887         13.4613 
        1.44531         89.1651         13.1095 
        1.46101         88.1442         12.7695 
        1.47667         87.7483         12.4425 
        1.49229         86.2796         12.1278 
        1.50793         85.5312         11.8236 
        1.52367         84.1994         11.5279 
        1.53953          82.881         11.2402 
        1.55526         82.3413         10.9646 
        1.57092         81.5483         10.6994 
        1.58662          79.634         10.4423 
        1.60235         79.5625         10.1931 
        1.61809         78.1095         9.95192 
        1.63369         77.5154         9.72063 
        1.64941         76.9115         9.49503 
        1.66519         74.8764         9.27574 
        1.68085         74.8002         9.06492 
        1.69652         72.9804         8.86056 
        1.71228         73.0201         8.66133 
        1.72806         72.0461         8.46804 
        1.74368         71.1036         8.28257 
        1.75933         69.9373         8.10227 
        1.77505         69.5326         7.92647 
        1.79081         68.3426         7.75556 
         1.8065         67.5365          7.5904 
        1.82218         66.7109         7.43018 
        1.83797          65.941         7.27347 
        1.85367          65.535         7.12213 
        1.86928         65.0073         6.97599 
        1.88497         63.8596         6.83314 
        1.90073         63.0802         6.69375 
        1.91647         62.7036         6.55836 
        1.93218         61.7723         6.42698 
        1.94787         61.1373         6.29938 
        1.96363         60.3389         6.17473 
        1.97935          59.999         6.05369 
        1.99499         59.0967         5.93657 
        2.01064           58.62         5.82237 
         2.0264         57.4376         5.71044 
        2.04216         57.1602          5.6015 
        2.05781         56.4398         5.49607 
        2.07353          55.438         5.39297 
        2.08928         55.0492         5.29229 
        2.10499         54.4236         5.19443 
        2.12065         54.0323         5.09933 
        2.13633         53.5026         5.00651 
        2.15211         53.1075          4.9154 
        2.16785         52.5585         4.82681 
        2.18349         52.1398         4.74094 
        2.19916         51.3183         4.65697 
        2.21489         50.9252         4.57475 
        2.23063         50.5521         4.49445 
         2.2463         49.8278         4.41643 
        2.26194         49.1009         4.34044 
        2.27765         49.0046         4.26585 
        2.29341         48.2571         4.19281 
        2.30914         47.6262         4.12162 
        2.32486         46.9058         4.05212 
        2.34061         46.6966          3.9841 
        2.35635         45.9625         3.91769 
        2.37203         45.5876         3.85302 
        2.38768         45.1272         3.78994 
        2.40339         44.7294         3.72804 
        2.41914         44.2848         3.66736 
        2.43483          43.966         3.60825 
         2.4505         43.6152         3.55053 
        2.46622         43.0192         3.49387 
        2.48195         42.6389         3.43844 
        2.49759         42.0034          3.3845 
        2.51328         41.6189         3.33157 
        2.52906         41.2026         3.27943 
        2.54479         40.8745          3.2286 
        2.56049         40.2779         3.17894 
        2.57618         40.0464         3.13036 
        2.59189          39.494         3.08272 
        2.60758         39.2827         3.03614 
        2.62325         38.7326         2.99057 
        2.63898         38.3893         2.94578 
        2.65468         37.8875           2.902 
        2.67044         37.3731         2.85891 
        2.68618         37.1896         2.81679 
        2.70184         36.7927         2.77569 
        2.71755         36.4882          2.7353 
        2.73329         36.1054         2.69564 
        2.74897         35.6722          2.6569 
        2.76462         35.3057           2.619 
        2.78034         35.0882         2.58168 
        2.79607         34.6833         2.54505 
        2.81179         34.3902         2.50916 
        2.82749         33.8518         2.47401 
        2.84321         33.6518         2.43948 
        2.85893         33.3585         2.40562 
        2.87462         32.9214         2.37246 
        2.89033         32.5548         2.33989 
        2.90605         32.4328          2.3079 
        2.92176         32.0097         2.27652 
        2.93747          31.787         2.24574 
        2.95318         31.3887         2.21552 
        2.96891         31.0686         2.18583 
        2.98456         30.8712         2.15682 
        3.00023         30.4728          2.1283 
        3.01596          30.162         2.10019 
        3.03164         29.9784         2.07267 
        3.04738          29.735         2.04556 
         3.0631         29.3037         2.01895 
        3.07883         29.0657          1.9928 
        3.09456         28.8159         1.96712 
        3.11026         28.5834         1.94192 
        3.12596         28.2483         1.91717 
        3.14163         28.0353         1.89291 
        3.15734         27.7423         1.86901 
        3.17308         27.4405         1.84546 
        3.18879         27.3038         1.82237 
        3.20447         26.9836         1.79972 
         3.2202         26.6704         1.77737 
         3.2359         26.5366         1.75545 
        3.25157         26.2423         1.73394 
        3.26729         26.0721         1.71273 
        3.28304         25.7364         1.69183 
        3.29877         25.4519          1.6713 
        3.31446          25.254         1.65116 
        3.33014         25.0226         1.63137 
        3.34585         24.8883         1.61186 
        3.36158         24.5842         1.59265 
        3.37727         24.3493          1.5738 
        3.39294          24.135         1.55528 
        3.40867         23.8959         1.53699 
        3.42439         23.7029           1.519 
        3.44008         23.5125         1.50133 
        3.45578         23.1991         1.48393 
        3.47153         23.0404         1.46676 
        3.48724         22.8167          1.4499 
        3.50292         22.6728         1.43334 
        3.51859         22.4071         1.41704 
        3.53431         22.2656         1.40094 
        3.55007         21.9864         1.38506 
        3.56577         21.7821         1.36948 
        3.58146         21.6592         1.35414 
        3.59719         21.3951         1.33901 
        3.61292         21.2721         1.32411 
        3.62859         21.0038         1.30949 
        3.64429         20.8482         1.29506 
        3.66003         20.6639         1.28081 
        3.67578         20.4886         1.26677 
        3.69146          20.352           1.253 
        3.70712         20.0958         1.23945 
        3.72284         19.9437         1.22605 
        3.73853         19.7769         1.21288 
        3.75422           19.65         1.19989 
        3.76993         19.4106         1.18708 
        3.78564         19.2206         1.17446 
        3.80137         19.0574           1.162 
        3.81707         18.9493         1.14975 
        3.83279         18.7562         1.13766 
        3.84853         18.5609         1.12573 
        3.86424         18.4346         1.11399 
        3.87992         18.2789         1.10243 
        3.89561         18.0926         1.09104 
        3.91134         17.9912         1.07979 
        3.92704         17.7944          1.0687 
        3.94273         17.6558         1.05778 
        3.95845         17.4687         1.04699 
        3.97418         17.3271         1.03635 
        3.98988         17.1564         1.02587 
        4.00554         17.0647         1.01557 
        4.02125         16.9188         1.00537 
        4.03698         16.7134        0.995301 
        4.05268         16.6207        0.985389 
        4.06839          16.394        0.975605 
         4.0841         16.3758        0.965955 
        4.09983         16.1667        0.956422 
        4.11555         16.0574        0.947021 
        4.13124         15.9328        0.937771 
        4.14693         15.7826        0.928636 
        4.16266          15.628        0.919601 
        4.17839         15.5323        0.910691 
        4.19408         15.3826        0.901919 
        4.20977         15.2837        0.893257 
        4.22551         15.1013        0.884688 
        4.24123         15.0252         0.87624 
        4.25691          14.898        0.867925 
        4.27259         14.7889        0.859714 
        4.28831         14.6372        0.851592 
        4.30404         14.5588        0.843567 
        4.31974         14.4272        0.835662 
        4.33543         14.3035        0.827862 
        4.35116         14.1373        0.820143 
        4.36688         14.0558        0.812524 
        4.38255         13.9553         0.80503 
        4.39825         13.8583        0.797614 
        4.41398         13.7025        0.790276 
         4.4297         13.5896        0.783038 
        4.44541         13.4904        0.775891 
        4.46111         13.4054        0.768838 
        4.47683         13.2611        0.761867 
        4.49251         13.1905        0.754996 
        4.50819         13.0647        0.748212 
         4.5239         12.9838          0.7415 
        4.53962         12.8489        0.734862 
        4.55535         12.7745        0.728302 
        4.57106         12.6725        0.721831 
        4.58678         12.5413        0.715436 
         4.6025         12.4363        0.709117 
        4.61821         12.3297        0.702875 
        4.63391          12.273        0.696716 
         4.6496         12.1846        0.690633 
        4.66532         12.0305        0.684612 
        4.68103         11.9601        0.678666 
        4.69673         11.8855        0.672795 
        4.71241         11.7665           0.667 
        4.72811         11.6752        0.661262 
        4.74384         11.5891        0.655585 
        4.75955         11.5051        0.649982 
        4.77525         11.4193        0.644448 
        4.79096          11.337        0.638971 
        4.80669         11.2432        0.633554 
         4.8224         11.1417        0.628206 
        4.83809         11.0906        0.622926 
        4.85379         10.9742        0.617702 
         4.8695         10.9237        0.612533 
        4.88521         10.8363        0.607426 
        4.90093         10.7458        0.602376 
        4.91663         10.6615        0.597387 
        4.93234         10.5795        0.592449 
        4.94807         10.5076        0.587564 
        4.96377         10.4159        0.582742 
        4.97943         10.3565        0.577985 
        4.99514         10.2727        0.573268 
        5.01086         10.1969        0.568599 
        5.02654         10.1085        0.563995 
        5.04227         10.0337        0.559427 
          5.058         9.96641        0.554908 
        5.07371         9.91919        0.550447 
        5.08942         9.79266        0.546034 
        5.10513         9.74852        0.541669 
        5.12084         9.68581        0.537349 
        5.13656         9.61098        0.533077 
        5.15225            9.53        0.528858 
        5.16796         9.46982        0.524678 
        5.18369         9.40683        0.520539 
         5.1994          9.3427        0.516452 
        5.21509         9.25742        0.512412 
        5.23079         9.19697         0.50841 
        5.24649         9.12874        0.504454 
        5.26217         9.04818        0.500543 
        5.27788         9.00372        0.496667 
        5.29359         8.92233        0.492832 
        5.30933         8.85463        0.489031 
        5.32504         8.79581        0.485276 
        5.34073         8.72612        0.481565 
        5.35646         8.66587        0.477885 
        5.37218         8.60967        0.474242 
        5.38789          8.5466        0.470643 
        5.40357         8.50735        0.467086 
        5.41929         8.41802        0.463557 
        5.43502         8.38749        0.460064 
         5.4507         8.31112        0.456615 
        5.46639         8.25404          0.4532 
        5.48212         8.18141        0.449813 
        5.49786          8.1288        0.446455 
        5.51353         8.09415        0.443149 
        5.52921          8.0197        0.439872 
        5.54495         7.96951        0.436619 
        5.56066         7.91263        0.433402 
        5.57637         7.86626        0.430218 
        5.59207         7.80173        0.427068 
        5.60778          7.7494        0.423948 
        5.62346         7.69407        0.420864 
        5.63916         7.63155        0.417808 
        5.65487         7.58142         0.41478 
         5.6706         7.54407        0.411778 
        5.68633         7.50113        0.408805 
        5.70203         7.44298        0.405867 
        5.71773           7.367        0.402958 
        5.73344         7.34015        0.400076 
        5.74916         7.29451        0.397219 
        5.76486         7.23205        0.394394 
        5.78054         7.19812        0.391601 
        5.79626         7.14502        0.388827 
          5.812         7.09251        0.386077 
         5.8277         7.04927        0.383361 
        5.84339         7.00222        0.380671 
        5.85911         6.95394        0.378002 
        5.87484         6.90488        0.375358 
        5.89053         6.86138        0.372745 
        5.90623         6.79342        0.370156 
        5.92195         6.75738        0.367586 
        5.93767         6.72813        0.365042 
        5.95336         6.66855        0.362527 
        5.96905          6.6233        0.360035 
        5.98476         6.58563        0.357564 
        6.00048         6.55609        0.355115 
        6.01617         6.50776        0.352692 
        6.03185         6.46523        0.350294 
        6.04756         6.42011        0.347913 
        6.06331         6.37826        0.345548 
        6.07903         6.34374        0.343211 
        6.09473         6.29678        0.340897 
        6.11044         6.25126        0.338602 
        6.12616         6.20813        0.336329 
        6.14186         6.17675        0.334079 
        6.15755         6.13307        0.331849 
        6.17326         6.08554        0.329638 
        6.18898          6.0551        0.327445 
        6.20467         6.02014        0.325277 
        6.22036         5.96445        0.323128 
         6.2361         5.94506        0.320993 
         6.2518         5.90064         0.31888 
        6.26748         5.86405        0.316791 
        6.28319         5.81098        0.314715 
        6.29893         5.79369        0.312655 
        6.31463         5.74987        0.310618 
        6.33033         5.71014        0.308599 
        6.34604         5.68238        0.306596 
        6.36177         5.65491        0.304609 
        6.37747         5.61462        0.302644 
