# k  (h/Mpc)    Pcb(k)  (Mpc/h)^3    Pcb_linear(k) (Mpc/h)^3   ShotnoiseSubtracted = true
      0.0200456         15102.1         15383.3 
      0.0350414         10077.2         10405.7 
      0.0492313         7338.08          7408.3 
      0.0637834         6241.18         6096.34 
      0.0800726          4746.1         4616.63 
       0.096163         3222.51         3259.04 
       0.111083         2612.08         2654.08 
       0.126058         2399.22         2345.72 
       0.142273         2013.63         1893.16 
       0.158546         1689.27         1476.13 
        0.17375         1367.68         1281.19 
       0.188953         1322.98         1155.09 
       0.204907         1219.83         982.496 
       0.220756         1037.07         823.295 
        0.23588         921.349         732.842 
         0.2514         800.409         665.817 
       0.267535         778.788         586.092 
       0.283568         703.432         512.142 
       0.299022         659.671         462.365 
       0.314451          622.57         423.367 
       0.330372         571.454         382.048 
       0.346141         521.312         343.854 
       0.361624         502.361         314.284 
       0.377134          464.27         289.691 
       0.392932         442.709         265.764 
       0.408854         426.052         243.303 
       0.424564         400.454         224.495 
       0.440253         390.887         208.276 
       0.455999         367.243         193.183 
       0.471626         346.676         179.317 
        0.48727         333.469         166.973 
       0.502856         323.006         156.055 
       0.518488         319.604         145.979 
       0.534347         299.041         136.541 
       0.550082         283.602          128.03 
       0.565732          280.37         120.357 
       0.581496          264.12         113.242 
       0.597222         259.238          106.68 
       0.612804         251.453         100.685 
       0.628434          241.27         95.1577 
       0.644267         234.124         89.9877 
       0.660051         230.012         85.2106 
       0.675724         225.439         80.8051 
       0.691403         218.733         76.7059 
       0.707174          210.68         72.8666 
       0.722871         207.811         69.3043 
        0.73838          203.91          66.017 
       0.754018          199.02         62.9175 
       0.769845         192.083         59.9827 
        0.78569         191.277         57.2321 
       0.801365         184.218         54.6808 
       0.817031         178.706         52.2866 
       0.832809         177.184         50.0205 
       0.848511          172.02         47.8987 
       0.864097         169.987         45.9143 
       0.879701         166.495         44.0404 
       0.895507         162.197         42.2488 
       0.911279         157.393         40.5605 
        0.92691         157.607         38.9782 
       0.942635         152.998         37.4714 
       0.958396         152.449          36.041 
       0.974128         148.633         34.6877 
       0.989692         145.334          33.417 
        1.00528         143.317         32.2081 
        1.02113         141.999         31.0399 
        1.03692         138.043         29.9338 
        1.05264         135.382         28.8867 
        1.06832          132.96         27.8912 
        1.08405         131.182         26.9399 
        1.09979         130.348         26.0323 
        1.11537         126.767         25.1755 
        1.13105         125.292          24.352 
        1.14679         124.714         23.5622 
        1.16256          122.93         22.8058 
        1.17828         120.366          22.085 
        1.19395         118.339         21.3978 
         1.2097         117.254         20.7362 
        1.22537         115.701         20.1058 
          1.241         113.712         19.5034 
        1.25666         112.021         18.9242 
        1.27241         110.019         18.3657 
        1.28819         108.951         17.8287 
        1.30392         106.869         17.3148 
        1.31957         106.207         16.8233 
        1.33529         103.599         16.3491 
        1.35108          102.84         15.8912 
        1.36674         101.908         15.4541 
         1.3824         99.9757         15.0338 
        1.39811         99.0057         14.6277 
        1.41389         97.6667          14.235 
        1.42964         95.5571         13.8573 
        1.44531         93.9937         13.4951 
        1.46101         92.9069         13.1451 
        1.47667         92.3874         12.8085 
        1.49229         90.9323         12.4845 
        1.50793         90.1076         12.1714 
        1.52367         88.7885         11.8669 
        1.53953          87.356         11.5708 
        1.55526         86.7958         11.2872 
        1.57092         85.9072         11.0141 
        1.58662         83.9614         10.7495 
        1.60235         83.8568         10.4929 
        1.61809         82.2597         10.2446 
        1.63369          81.681         10.0066 
        1.64941         81.0562         9.77432 
        1.66519         78.9929         9.54858 
        1.68085         78.8824         9.33156 
        1.69652          76.893         9.12119 
        1.71228         76.9875          8.9161 
        1.72806         75.9747         8.71713 
        1.74368         74.9575          8.5262 
        1.75933         73.7693         8.34059 
        1.77505         73.2549         8.15962 
        1.79081          71.991         7.98369 
         1.8065         71.1691         7.81367 
        1.82218         70.2212         7.64874 
        1.83797         69.3856         7.48742 
        1.85367         68.9992         7.33163 
        1.86928         68.4411         7.18119 
        1.88497         67.2049         7.03414 
        1.90073         66.5033         6.89064 
        1.91647         65.9812         6.75127 
        1.93218         64.9854         6.61603 
        1.94787         64.4026         6.48468 
        1.96363         63.4997         6.35636 
        1.97935         63.0937         6.23176 
        1.99499         62.1933         6.11119 
        2.01064          61.663         5.99363 
         2.0264         60.4949         5.87841 
        2.04216         60.1048         5.76626 
        2.05781          59.342         5.65774 
        2.07353         58.2723         5.55161 
        2.08928         57.8173         5.44796 
        2.10499         57.1744         5.34722 
        2.12065          56.831         5.24932 
        2.13633         56.2296         5.15378 
        2.15211         55.7543         5.05999 
        2.16785         55.1729         4.96878 
        2.18349         54.7465         4.88039 
        2.19916         53.9028         4.79395 
        2.21489         53.4719         4.70931 
        2.23063         53.1236         4.62665 
         2.2463         52.2761         4.54633 
        2.26194         51.6132         4.46812 
        2.27765          51.489         4.39133 
        2.29341          50.712         4.31614 
        2.30914         50.0642         4.24286 
        2.32486         49.3384         4.17131 
        2.34061         49.0438         4.10129 
        2.35635         48.3232         4.03293 
        2.37203         47.8702         3.96636 
        2.38768          47.389         3.90142 
        2.40339         46.9795         3.83769 
        2.41914         46.5048         3.77524 
        2.43483         46.2306         3.71438 
         2.4505         45.8403         3.65497 
        2.46622         45.1849         3.59664 
        2.48195         44.8428         3.53958 
        2.49759         44.1081         3.48405 
        2.51328         43.7193         3.42956 
        2.52906         43.3095         3.37589 
        2.54479         42.9683         3.32357 
        2.56049         42.3565         3.27245 
        2.57618         42.1148         3.22244 
        2.59189         41.5409          3.1734 
        2.60758         41.3033         3.12545 
        2.62325         40.7349         3.07854 
        2.63898         40.4078         3.03243 
        2.65468         39.8931         2.98736 
        2.67044         39.2981           2.943 
        2.68618         39.1126         2.89965 
        2.70184         38.6723         2.85733 
        2.71755         38.3595         2.81575 
        2.73329         37.9605         2.77493 
        2.74897         37.5213         2.73505 
        2.76462         37.1498         2.69604 
        2.78034         36.9145         2.65762 
        2.79607         36.4662         2.61991 
        2.81179         36.1612         2.58297 
        2.82749          35.605         2.54678 
        2.84321         35.3571         2.51124 
        2.85893         35.0566         2.47638 
        2.87462         34.6116         2.44225 
        2.89033         34.2346         2.40872 
        2.90605         34.0712         2.37579 
        2.92176         33.6375         2.34348 
        2.93747         33.3893          2.3118 
        2.95318         32.9858         2.28069 
        2.96891         32.6429         2.25013 
        2.98456         32.4321         2.22027 
        3.00023         32.0156          2.1909 
        3.01596         31.7153         2.16197 
        3.03164         31.4719         2.13364 
        3.04738         31.2623         2.10573 
         3.0631         30.7682         2.07833 
        3.07883         30.5286         2.05142 
        3.09456         30.2745         2.02498 
        3.11026         30.0107         1.99905 
        3.12596         29.6339         1.97357 
        3.14163         29.4099         1.94859 
        3.15734         29.0869         1.92398 
        3.17308         28.8233         1.89974 
        3.18879         28.6633         1.87598 
        3.20447         28.3189         1.85266 
         3.2202         28.0014         1.82966 
         3.2359         27.8915         1.80708 
        3.25157         27.5369         1.78495 
        3.26729         27.3425         1.76311 
        3.28304         27.0087         1.74159 
        3.29877         26.7186         1.72046 
        3.31446         26.5246         1.69973 
        3.33014         26.2742         1.67935 
        3.34585         26.0865         1.65927 
        3.36158         25.8139          1.6395 
        3.37727         25.5684          1.6201 
        3.39294         25.3237         1.60103 
        3.40867         25.0876          1.5822 
        3.42439         24.9044         1.56368 
        3.44008         24.7062         1.54549 
        3.45578         24.3566         1.52758 
        3.47153         24.1846         1.50991 
        3.48724         23.9727         1.49255 
        3.50292         23.7707          1.4755 
        3.51859         23.5189         1.45872 
        3.53431         23.3848         1.44215 
        3.55007         23.0942          1.4258 
        3.56577         22.8814         1.40976 
        3.58146         22.7436         1.39398 
        3.59719         22.4779         1.37839 
        3.61292         22.3295         1.36306 
        3.62859         22.0537         1.34801 
        3.64429         21.8957         1.33316 
        3.66003         21.6879         1.31848 
        3.67578         21.5203         1.30403 
        3.69146         21.3433         1.28985 
        3.70712         21.1037         1.27591 
        3.72284          20.951         1.26212 
        3.73853         20.7652         1.24855 
        3.75422         20.6285         1.23518 
        3.76993         20.4059         1.22199 
        3.78564         20.1717           1.209 
        3.80137         19.9993         1.19618 
        3.81707         19.8879         1.18357 
        3.83279         19.6873         1.17113 
        3.84853         19.4911         1.15884 
        3.86424         19.3616         1.14676 
        3.87992         19.2146         1.13486 
        3.89561         19.0031         1.12313 
        3.91134         18.8987         1.11155 
        3.92704         18.7067         1.10014 
        3.94273         18.5485         1.08889 
        3.95845         18.3607         1.07779 
        3.97418         18.2174         1.06684 
        3.98988         18.0166         1.05605 
        4.00554         17.9366         1.04544 
        4.02125          17.784         1.03494 
        4.03698         17.5559         1.02458 
        4.05268         17.4521         1.01437 
        4.06839         17.2319          1.0043 
         4.0841         17.1949        0.994369 
        4.09983         16.9853        0.984555 
        4.11555         16.8608        0.974877 
        4.13124         16.7262        0.965355 
        4.14693          16.572        0.955951 
        4.16266         16.4081        0.946651 
        4.17839         16.2956        0.937479 
        4.19408         16.1534        0.928448 
        4.20977         16.0522        0.919532 
        4.22551           15.86        0.910711 
        4.24123         15.7799        0.902014 
        4.25691         15.6575        0.893454 
        4.27259         15.5275        0.885002 
        4.28831         15.3903        0.876641 
        4.30404         15.2951         0.86838 
        4.31974         15.1352        0.860242 
        4.33543          15.028        0.852213 
        4.35116         14.8629        0.844267 
        4.36688          14.755        0.836424 
        4.38255          14.658         0.82871 
        4.39825         14.5553        0.821076 
        4.41398         14.3992        0.813522 
         4.4297          14.281         0.80607 
        4.44541         14.1737        0.798713 
        4.46111         14.0626        0.791453 
        4.47683         13.9252        0.784277 
        4.49251         13.8715        0.777204 
        4.50819         13.7191         0.77022 
         4.5239         13.6274        0.763311 
        4.53962         13.4943        0.756478 
        4.55535         13.4168        0.749725 
        4.57106         13.3063        0.743063 
        4.58678         13.1853        0.736481 
         4.6025         13.0524        0.729976 
        4.61821         12.9548         0.72355 
        4.63391         12.8923         0.71721 
         4.6496         12.7922        0.710948 
        4.66532         12.6333         0.70475 
        4.68103         12.5614        0.698629 
        4.69673          12.477        0.692585 
        4.71241         12.3695        0.686619 
        4.72811         12.2576        0.680713 
        4.74384         12.1692        0.674869 
        4.75955         12.0873        0.669101 
        4.77525         12.0175        0.663404 
        4.79096         11.9079        0.657766 
        4.80669         11.8101         0.65219 
         4.8224         11.7056        0.646685 
        4.83809         11.6375        0.641249 
        4.85379         11.5257        0.635871 
         4.8695         11.4614        0.630551 
        4.88521         11.3811        0.625293 
        4.90093          11.281        0.620095 
        4.91663         11.1928        0.614959 
        4.93234         11.1161        0.609876 
        4.94807         11.0348        0.604847 
        4.96377         10.9408        0.599884 
        4.97943         10.8741        0.594986 
        4.99514         10.7829         0.59013 
        5.01086         10.7116        0.585324 
        5.02654          10.608        0.580584 
        5.04227         10.5295        0.575882 
          5.058         10.4699         0.57123 
        5.07371         10.4054        0.566638 
        5.08942         10.2845        0.562095 
        5.10513         10.2353        0.557602 
        5.12084         10.1749        0.553155 
        5.13656         10.0883        0.548757 
        5.15225         10.0135        0.544414 
        5.16796         9.93507        0.540111 
        5.18369         9.87266         0.53585 
         5.1994         9.80782        0.531643 
        5.21509         9.71169        0.527484 
        5.23079          9.6558        0.523365 
        5.24649         9.58607        0.519293 
        5.26217         9.49956        0.515266 
        5.27788         9.45488        0.511277 
        5.29359         9.35504        0.507328 
        5.30933         9.30041        0.503416 
        5.32504         9.23605        0.499551 
        5.34073         9.15939         0.49573 
        5.35646         9.10054        0.491942 
        5.37218         9.03786        0.488192 
        5.38789         8.96701        0.484487 
        5.40357         8.91912        0.480825 
        5.41929         8.82781        0.477192 
        5.43502         8.80796        0.473596 
         5.4507         8.71549        0.470046 
        5.46639         8.65953        0.466531 
        5.48212         8.58416        0.463044 
        5.49786         8.52794        0.459588 
        5.51353         8.48917        0.456184 
        5.52921         8.41228        0.452811 
        5.54495         8.34777        0.449462 
        5.56066          8.2998         0.44615 
        5.57637         8.24495        0.442872 
        5.59207          8.1848         0.43963 
        5.60778         8.12546        0.436419 
        5.62346          8.0664        0.433244 
        5.63916         8.00226        0.430097 
        5.65487         7.94816         0.42698 
         5.6706         7.91691         0.42389 
        5.68633         7.86533        0.420829 
        5.70203         7.81453        0.417805 
        5.71773         7.73436        0.414811 
        5.73344         7.69182        0.411844 
        5.74916         7.64952        0.408903 
        5.76486         7.58643        0.405995 
        5.78054         7.54697         0.40312 
        5.79626         7.49096        0.400264 
          5.812         7.43934        0.397433 
         5.8277         7.39169        0.394637 
        5.84339         7.34882        0.391868 
        5.85911         7.29509         0.38912 
        5.87484          7.2356        0.386399 
        5.89053         7.20226        0.383709 
        5.90623         7.12445        0.381044 
        5.92195         7.09268        0.378399 
        5.93767         7.06278         0.37578 
        5.95336         6.99118         0.37319 
        5.96905         6.95243        0.370626 
        5.98476         6.90341        0.368081 
        6.00048         6.87415         0.36556 
        6.01617         6.81987        0.363066 
        6.03185         6.77794        0.360598 
        6.04756         6.72907        0.358146 
        6.06331         6.69262        0.355713 
        6.07903         6.64551        0.353306 
        6.09473         6.60304        0.350924 
        6.11044         6.55652        0.348562 
        6.12616         6.50381        0.346222 
        6.14186          6.4744        0.343905 
        6.15755         6.42695         0.34161 
        6.17326         6.37806        0.339334 
        6.18898         6.34533        0.337077 
        6.20467         6.30601        0.334845 
        6.22036         6.24941        0.332633 
         6.2361         6.22162        0.330435 
         6.2518         6.18553         0.32826 
        6.26748         6.14169        0.326109 
        6.28319         6.09511        0.323972 
        6.29893         6.07215        0.321852 
        6.31463         6.01971        0.319754 
        6.33033         5.97963        0.317676 
        6.34604          5.9523        0.315615 
        6.36177          5.9191        0.313569 
        6.37747         5.87504        0.311546 
