# k  (h/Mpc)    Pcb(k)  (Mpc/h)^3    Pcb_linear(k) (Mpc/h)^3   ShotnoiseSubtracted = true
      0.0200456         6692.41         6795.02 
      0.0350414          4516.2         4596.32 
      0.0492313         3268.01         3272.35 
      0.0637834         2741.86         2692.83 
      0.0800726         2084.72         2039.23 
       0.096163         1429.18         1439.56 
       0.111083         1153.86         1172.34 
       0.126058         1052.15         1036.13 
       0.142273          872.91         836.234 
       0.158546         703.171         652.028 
        0.17375         579.968          565.92 
       0.188953         548.211         510.218 
       0.204907         498.081         433.982 
       0.220756         414.581         363.661 
        0.23588         366.145         323.706 
         0.2514         322.666           294.1 
       0.267535         300.989         258.885 
       0.283568         270.322          226.22 
       0.299022         249.534         204.233 
       0.314451         227.726         187.007 
       0.330372         209.681         168.756 
       0.346141         187.458         151.885 
       0.361624         178.204         138.824 
       0.377134         166.667          127.96 
       0.392932         151.358         117.392 
       0.408854         144.761          107.47 
       0.424564         138.264         99.1625 
       0.440253         129.643         91.9985 
       0.455999         121.366         85.3316 
       0.471626         112.242         79.2068 
        0.48727          108.23         73.7544 
       0.502856         103.296         68.9317 
       0.518488         99.8233         64.4808 
       0.534347         95.3871         60.3122 
       0.550082         87.7651         56.5524 
       0.565732         83.9172         53.1632 
       0.581496         80.7311         50.0205 
       0.597222         77.8902          47.122 
       0.612804         73.8339          44.474 
       0.628434         71.9374         42.0324 
       0.644267         69.4619         39.7488 
       0.660051         67.3646         37.6387 
       0.675724         64.5397         35.6927 
       0.691403         62.4835          33.882 
       0.707174          60.232         32.1862 
       0.722871         58.6397         30.6126 
        0.73838         57.1749         29.1606 
       0.754018         54.2601         27.7915 
       0.769845         53.0413         26.4952 
        0.78569         51.6387         25.2802 
       0.801365         49.7431         24.1532 
       0.817031         48.2885         23.0957 
       0.832809         47.5661         22.0947 
       0.848511         45.2516         21.1575 
       0.864097         44.2472          20.281 
       0.879701         43.3663         19.4532 
       0.895507         42.7178         18.6619 
       0.911279         41.4573         17.9161 
        0.92691         40.5249         17.2172 
       0.942635         38.9471         16.5516 
       0.958396         38.7431         15.9198 
       0.974128         37.6171          15.322 
       0.989692         36.9643         14.7608 
        1.00528         36.1056         14.2267 
        1.02113         35.0373         13.7107 
        1.03692          34.174         13.2222 
        1.05264         33.9092         12.7596 
        1.06832         32.8076         12.3199 
        1.08405         32.3735         11.8997 
        1.09979         31.8287         11.4988 
        1.11537         30.6959         11.1204 
        1.13105         30.7963         10.7566 
        1.14679         30.1773         10.4077 
        1.16256         29.3677         10.0736 
        1.17828         28.7761         9.75526 
        1.19395         28.2607         9.45169 
         1.2097         27.9308         9.15948 
        1.22537         27.6306         8.88101 
          1.241         26.8688         8.61493 
        1.25666          26.254         8.35907 
        1.27241         25.9713         8.11237 
        1.28819         25.2799          7.8752 
        1.30392         24.9928         7.64818 
        1.31957         24.8114         7.43109 
        1.33529         24.5283         7.22161 
        1.35108         23.9914         7.01937 
        1.36674         23.5654         6.82629 
         1.3824         23.0472         6.64063 
        1.39811         22.9379         6.46124 
        1.41389         22.6235         6.28777 
        1.42964         22.1284         6.12095 
        1.44531         22.0136         5.96098 
        1.46101         21.4605         5.80637 
        1.47667         21.2756         5.65769 
        1.49229         21.0427         5.51459 
        1.50793         20.7505         5.37627 
        1.52367         20.4781         5.24179 
        1.53953         20.3172         5.11099 
        1.55526          19.893         4.98569 
        1.57092         19.5967         4.86509 
        1.58662         19.3863         4.74818 
        1.60235         19.1569         4.63488 
        1.61809         18.9017          4.5252 
        1.63369         18.6946         4.42003 
        1.64941         18.3468         4.31745 
        1.66519         18.2299         4.21774 
        1.68085         17.9449         4.12188 
        1.69652          17.722         4.02896 
        1.71228         17.5925         3.93836 
        1.72806         17.2959         3.85047 
        1.74368         17.0635         3.76614 
        1.75933         16.9072         3.68415 
        1.77505         16.7619         3.60422 
        1.79081         16.5059          3.5265 
         1.8065         16.4035          3.4514 
        1.82218         16.1686         3.37855 
        1.83797         15.8777          3.3073 
        1.85367         15.7584         3.23848 
        1.86928         15.6091         3.17203 
        1.88497         15.3623         3.10707 
        1.90073         15.3698         3.04369 
        1.91647         15.0938         2.98213 
        1.93218         14.9492         2.92239 
        1.94787          14.826         2.86437 
        1.96363         14.7014         2.80769 
        1.97935         14.5344         2.75265 
        1.99499         14.3101          2.6994 
        2.01064          14.238         2.64747 
         2.0264         14.0051         2.59657 
        2.04216          13.885         2.54704 
        2.05781         13.6868          2.4991 
        2.07353         13.5834         2.45222 
        2.08928           13.47         2.40644 
        2.10499         13.3151         2.36194 
        2.12065         13.0945          2.3187 
        2.13633         13.0823         2.27649 
        2.15211         12.8679         2.23507 
        2.16785         12.8034         2.19478 
        2.18349         12.6839         2.15573 
        2.19916         12.5532         2.11755 
        2.21489         12.4237         2.08017 
        2.23063         12.3103         2.04365 
         2.2463         12.1708         2.00818 
        2.26194         12.0727         1.97363 
        2.27765         11.9748         1.93971 
        2.29341           11.82          1.9065 
        2.30914         11.7109         1.87413 
        2.32486         11.6587         1.84253 
        2.34061         11.5217          1.8116 
        2.35635          11.384          1.7814 
        2.37203         11.3115           1.752 
        2.38768         11.1928         1.72331 
        2.40339         11.0424         1.69516 
        2.41914         10.9691         1.66757 
        2.43483         10.9124         1.64069 
         2.4505         10.7614         1.61445 
        2.46622         10.6868         1.58868 
        2.48195         10.6064         1.56348 
        2.49759         10.4965         1.53895 
        2.51328         10.3877         1.51489 
        2.52906         10.3146         1.49118 
        2.54479         10.2001         1.46806 
        2.56049          10.175         1.44548 
        2.57618         10.0785         1.42339 
        2.59189         9.93254         1.40173 
        2.60758         9.89135         1.38055 
        2.62325         9.83781         1.35983 
        2.63898         9.69451         1.33947 
        2.65468         9.62329         1.31956 
        2.67044         9.52161         1.29996 
        2.68618         9.44854         1.28081 
        2.70184         9.36688         1.26212 
        2.71755         9.27867         1.24376 
        2.73329         9.18726         1.22573 
        2.74897         9.13005         1.20811 
        2.76462         9.09351         1.19088 
        2.78034         8.93338         1.17391 
        2.79607         8.90388         1.15725 
        2.81179         8.80815         1.14093 
        2.82749         8.77293         1.12495 
        2.84321         8.67251         1.10925 
        2.85893         8.61042         1.09385 
        2.87462         8.55491         1.07877 
        2.89033         8.44976         1.06396 
        2.90605         8.35899         1.04942 
        2.92176         8.34353         1.03515 
        2.93747         8.28803         1.02115 
        2.95318          8.1849         1.00741 
        2.96891         8.13002        0.993913 
        2.98456          8.0513        0.980722 
        3.00023          8.0146         0.96775 
        3.01596         7.93549        0.954971 
        3.03164         7.90322        0.942458 
        3.04738         7.81909        0.930131 
         3.0631         7.75534        0.918028 
        3.07883         7.68999        0.906139 
        3.09456         7.64947        0.894461 
        3.11026         7.55746        0.883006 
        3.12596         7.53604        0.871751 
        3.14163         7.44417        0.860718 
        3.15734         7.39304        0.849849 
        3.17308         7.34451        0.839141 
        3.18879          7.3034        0.828645 
        3.20447         7.22008        0.818343 
         3.2202         7.17278        0.808184 
         3.2359         7.12428        0.798214 
        3.25157         7.07449        0.788435 
        3.26729         7.03064         0.77879 
        3.28304         6.94411        0.769286 
        3.29877         6.89386        0.759952 
        3.31446         6.84706        0.750793 
        3.33014         6.79282        0.741792 
        3.34585          6.7754        0.732924 
        3.36158         6.71871        0.724187 
        3.37727         6.65058        0.715619 
        3.39294         6.62355        0.707197 
        3.40867         6.53399        0.698879 
        3.42439         6.50201        0.690699 
        3.44008         6.46193        0.682665 
        3.45578         6.40392        0.674753 
        3.47153          6.3762        0.666947 
        3.48724         6.31872        0.659278 
        3.50292         6.27843        0.651747 
        3.51859         6.23345        0.644337 
        3.53431         6.18754        0.637018 
        3.55007         6.14138        0.629794 
        3.56577         6.10152         0.62271 
        3.58146         6.05959        0.615738 
        3.59719         6.01154        0.608856 
        3.61292         5.97744         0.60208 
        3.62859         5.93399        0.595433 
        3.64429         5.88137        0.588873 
        3.66003         5.82495        0.582391 
        3.67578         5.78919        0.576008 
        3.69146         5.75532        0.569745 
        3.70712         5.73334        0.563586 
        3.72284         5.66493        0.557494 
        3.73853         5.63519        0.551503 
        3.75422         5.59601        0.545597 
        3.76993         5.56512        0.539772 
        3.78564         5.50316        0.534033 
        3.80137         5.48581        0.528369 
        3.81707         5.44598        0.522798 
        3.83279         5.41896        0.517302 
        3.84853         5.36917        0.511876 
        3.86424          5.3232        0.506538 
        3.87992         5.28571        0.501284 
        3.89561         5.24506        0.496103 
        3.91134         5.20819        0.490985 
        3.92704         5.18416        0.485945 
        3.94273         5.14308         0.48098 
        3.95845         5.10544        0.476074 
        3.97418         5.07167        0.471236 
        3.98988          5.0442        0.466471 
        4.00554         5.00966        0.461785 
        4.02125         4.95939        0.457149 
        4.03698         4.92408         0.45257 
        4.05268         4.90315        0.448063 
        4.06839         4.87081        0.443614 
         4.0841         4.83551        0.439226 
        4.09983         4.80002        0.434891 
        4.11555         4.76526        0.430617 
        4.13124         4.75394        0.426411 
        4.14693         4.68382        0.422257 
        4.16266         4.65323        0.418149 
        4.17839         4.61841        0.414097 
        4.19408         4.58523        0.410108 
        4.20977         4.56275         0.40617 
        4.22551         4.52982        0.402274 
        4.24123         4.49259        0.398432 
        4.25691          4.4617        0.394651 
        4.27259         4.44409        0.390917 
        4.28831         4.40836        0.387224 
        4.30404         4.36137        0.383575 
        4.31974          4.3453        0.379981 
        4.33543         4.31989        0.376434 
        4.35116         4.27913        0.372924 
        4.36688         4.25041         0.36946 
        4.38255         4.21937        0.366052 
        4.39825         4.19831         0.36268 
        4.41398         4.17301        0.359344 
         4.4297          4.1401        0.356052 
        4.44541         4.11658        0.352802 
        4.46111         4.09646        0.349595 
        4.47683         4.05092        0.346426 
        4.49251         4.02963        0.343302 
        4.50819         3.99859        0.340217 
         4.5239         3.97808        0.337165 
        4.53962         3.96068        0.334147 
        4.55535         3.92622        0.331164 
        4.57106         3.90314        0.328221 
        4.58678         3.88593        0.325314 
         4.6025         3.85085         0.32244 
        4.61821         3.83002        0.319602 
        4.63391         3.80736        0.316801 
         4.6496         3.77854        0.314035 
        4.66532         3.75815        0.311298 
        4.68103          3.7253        0.308594 
        4.69673         3.70578        0.305924 
        4.71241         3.67995        0.303289 
        4.72811          3.6652         0.30068 
        4.74384         3.63797        0.298099 
        4.75955         3.61153        0.295551 
        4.77525         3.58202        0.293035 
        4.79096         3.55969        0.290544 
        4.80669         3.54402        0.288081 
         4.8224          3.5248         0.28565 
        4.83809         3.49982        0.283248 
        4.85379         3.48091        0.280873 
         4.8695         3.45339        0.278523 
        4.88521         3.43782        0.276201 
        4.90093         3.41581        0.273904 
        4.91663         3.39482        0.271636 
        4.93234         3.37103        0.269391 
        4.94807         3.35413        0.267169 
        4.96377         3.33204        0.264977 
        4.97943         3.31056        0.262813 
        4.99514         3.29067        0.260668 
        5.01086         3.26759        0.258546 
        5.02654         3.25276        0.256452 
        5.04227         3.22826        0.254375 
          5.058         3.20744         0.25232 
        5.07371          3.1884        0.250292 
        5.08942         3.16896        0.248285 
        5.10513         3.15369          0.2463 
        5.12084         3.13555        0.244336 
        5.13656         3.11757        0.242393 
        5.15225         3.10121        0.240475 
        5.16796         3.07772        0.238574 
        5.18369         3.06315        0.236692 
         5.1994         3.03981        0.234834 
        5.21509         3.02867        0.232997 
        5.23079         3.01001        0.231177 
        5.24649         2.98763        0.229379 
        5.26217         2.97022          0.2276 
        5.27788         2.94891        0.225838 
        5.29359         2.93827        0.224094 
        5.30933         2.92175        0.222366 
        5.32504         2.90613        0.220658 
        5.34073         2.88356        0.218971 
        5.35646         2.87169        0.217297 
        5.37218         2.84834        0.215641 
        5.38789         2.84051        0.214005 
        5.40357         2.81479        0.212387 
        5.41929         2.80473        0.210782 
        5.43502         2.78556        0.209194 
         5.4507         2.77364        0.207626 
        5.46639         2.75213        0.206073 
        5.48212         2.73914        0.204533 
        5.49786         2.72256        0.203006 
        5.51353         2.71135        0.201503 
        5.52921         2.68844        0.200013 
        5.54495         2.67515        0.198533 
        5.56066         2.66531        0.197071 
        5.57637         2.65107        0.195623 
        5.59207         2.63548        0.194191 
        5.60778         2.61948        0.192772 
        5.62346         2.60201         0.19137 
        5.63916         2.59208         0.18998 
        5.65487         2.57608        0.188603 
         5.6706         2.56055        0.187238 
        5.68633         2.54298        0.185886 
        5.70203         2.52877         0.18455 
        5.71773         2.51994        0.183228 
        5.73344         2.50497        0.181917 
        5.74916         2.49134        0.180618 
        5.76486         2.47595        0.179334 
        5.78054          2.4609        0.178064 
        5.79626         2.44827        0.176802 
          5.812           2.437        0.175552 
         5.8277         2.42526        0.174317 
        5.84339         2.40941        0.173094 
        5.85911         2.39912         0.17188 
        5.87484         2.38971        0.170678 
        5.89053         2.36925         0.16949 
        5.90623         2.36185        0.168312 
        5.92195         2.34543        0.167144 
        5.93767         2.33604        0.165987 
        5.95336         2.32378        0.164843 
        5.96905         2.31232         0.16371 
        5.98476         2.29801        0.162587 
        6.00048          2.2897        0.161473 
        6.01617         2.27263        0.160371 
        6.03185         2.26053        0.159281 
        6.04756         2.25159        0.158198 
        6.06331         2.23555        0.157123 
        6.07903         2.22615         0.15606 
        6.09473         2.21607        0.155008 
        6.11044         2.20357        0.153965 
        6.12616         2.18641        0.152931 
        6.14186         2.18292        0.151908 
        6.15755         2.17408        0.150894 
        6.17326         2.15819        0.149888 
        6.18898         2.14839        0.148892 
        6.20467         2.13742        0.147906 
        6.22036         2.12407        0.146928 
         6.2361         2.11853        0.145958 
         6.2518         2.10433        0.144997 
        6.26748         2.09498        0.144047 
        6.28319         2.08452        0.143103 
        6.29893         2.07399        0.142166 
        6.31463         2.06321         0.14124 
        6.33033         2.05468        0.140322 
        6.34604         2.04283        0.139411 
        6.36177         2.03331        0.138508 
        6.37747         2.02359        0.137614 
