# k  (h/Mpc)    Pcb(k)  (Mpc/h)^3    Pcb_linear(k) (Mpc/h)^3   ShotnoiseSubtracted = true
      0.0200456         3640.41         4199.16 
      0.0350414         2660.17         2999.74 
      0.0492313         1939.29         2173.47 
      0.0637834         1767.92         1810.17 
      0.0800726         1342.32         1419.85 
       0.096163         1024.38         1021.11 
       0.111083         832.345         821.721 
       0.126058         702.941         731.087 
       0.142273         576.318         610.588 
       0.158546         466.924         479.406 
        0.17375         406.471         408.566 
       0.188953         404.398         371.149 
       0.204907         329.999          324.59 
       0.220756         276.404         273.095 
        0.23588         249.277          239.58 
         0.2514         231.308         218.612 
       0.267535         211.578         196.284 
       0.283568         191.963         172.222 
       0.299022         167.626         154.192 
       0.314451          163.43         141.447 
       0.330372          141.75         129.251 
       0.346141         126.902         116.858 
       0.361624         123.811         106.403 
       0.377134         113.636         98.1665 
       0.392932         106.068           90.71 
       0.408854         100.084         83.4025 
       0.424564         92.2868         76.8922 
       0.440253         88.3464         71.3949 
       0.455999         83.1159          66.498 
       0.471626         77.2377         61.9255 
        0.48727         73.3392         57.7172 
       0.502856          69.594          53.992 
       0.518488         65.1963         50.6356 
       0.534347          62.538         47.4854 
       0.550082         61.2311         44.5894 
       0.565732         57.3959         41.9667 
       0.581496         54.5429         39.5582 
       0.597222         51.5259         37.3386 
       0.612804         49.9499          35.296 
       0.628434         48.3277         33.4005 
       0.644267         45.2195          31.631 
       0.660051         43.6783         29.9967 
       0.675724         42.4755         28.4869 
       0.691403         41.0422         27.0798 
       0.707174         38.8894         25.7598 
       0.722871         38.2139          24.533 
        0.73838         36.2083         23.3993 
       0.754018         35.2462         22.3287 
       0.769845         34.4543         21.3135 
        0.78569         32.5244         20.3606 
       0.801365         31.5133         19.4755 
       0.817031         30.8899          18.644 
       0.832809          29.625          17.856 
       0.848511         29.6837         17.1173 
       0.864097         28.5558         16.4257 
       0.879701         27.4658         15.7718 
       0.895507         26.5993          15.146 
       0.911279         25.8212         14.5556 
        0.92691         24.9228         14.0017 
       0.942635         24.3751         13.4737 
       0.958396         23.8245         12.9719 
       0.974128         23.1819         12.4968 
       0.989692         22.6312         12.0501 
        1.00528         22.2387         11.6248 
        1.02113         21.4825         11.2134 
        1.03692         20.8839         10.8235 
        1.05264         20.5822          10.454 
        1.06832         20.0166         10.1024 
        1.08405         19.5745         9.76613 
        1.09979          19.134         9.44502 
        1.11537         18.7107         9.14157 
        1.13105         18.1704         8.84971 
        1.14679         18.0519         8.56951 
        1.16256         17.5216         8.30094 
        1.17828         17.2124         8.04481 
        1.19395         16.6138          7.8004 
         1.2097         16.4427         7.56493 
        1.22537         16.1057         7.34036 
          1.241         15.7967         7.12562 
        1.25666         15.5755         6.91896 
        1.27241         15.1743         6.71956 
        1.28819         14.9652         6.52771 
        1.30392         14.6919         6.34394 
        1.31957         14.4086         6.16808 
        1.33529         14.0162         5.99826 
        1.35108         13.9121         5.83419 
        1.36674         13.6823         5.67745 
         1.3824         13.4729         5.52662 
        1.39811         13.1116         5.38079 
        1.41389         12.8811         5.23968 
        1.42964         12.7156         5.10389 
        1.44531         12.4845         4.97358 
        1.46101         12.2677         4.84756 
        1.47667         12.0598         4.72629 
        1.49229         11.8508         4.60951 
        1.50793         11.7202         4.49655 
        1.52367         11.4692         4.38666 
        1.53953          11.279         4.27972 
        1.55526         11.1106          4.1772 
        1.57092         10.8725         4.07847 
        1.58662         10.7574         3.98271 
        1.60235         10.6165         3.88984 
        1.61809         10.4087         3.79989 
        1.63369         10.2835          3.7136 
        1.64941         10.1945         3.62937 
        1.66519         10.0756         3.54746 
        1.68085          9.8417         3.46866 
        1.69652         9.71439         3.39224 
        1.71228         9.57962          3.3177 
        1.72806         9.48543         3.24533 
        1.74368          9.2687         3.17586 
        1.75933         9.15383         3.10829 
        1.77505         9.06436         3.04237 
        1.79081           8.964         2.97825 
         1.8065         8.71425         2.91626 
        1.82218         8.65661         2.85609 
        1.83797          8.5738          2.7972 
        1.85367          8.4348         2.74031 
        1.86928         8.37963         2.68534 
        1.88497         8.22432         2.63159 
        1.90073         8.13731         2.57911 
        1.91647         8.00543         2.52811 
        1.93218         7.93457          2.4786 
        1.94787         7.79115         2.43049 
        1.96363         7.72359         2.38347 
        1.97935          7.6279         2.33779 
        1.99499         7.51083         2.29357 
        2.01064         7.42637         2.25043 
         2.0264         7.30181         2.20813 
        2.04216         7.23297         2.16694 
        2.05781         7.18512         2.12707 
        2.07353         7.07302         2.08805 
        2.08928         6.96595         2.04993 
        2.10499         6.88421         2.01287 
        2.12065         6.85909         1.97683 
        2.13633         6.73108         1.94165 
        2.15211         6.65504          1.9071 
        2.16785          6.5906         1.87348 
        2.18349          6.4685         1.84089 
        2.19916         6.43652         1.80901 
        2.21489         6.32945         1.77777 
        2.23063         6.26899         1.74726 
         2.2463         6.20442         1.71759 
        2.26194         6.14875         1.68869 
        2.27765         6.09115         1.66031 
        2.29341          6.0044         1.63251 
        2.30914         5.92994          1.6054 
        2.32486          5.8477         1.57892 
        2.34061         5.78075           1.553 
        2.35635          5.7049         1.52768 
        2.37203         5.69144         1.50302 
        2.38768         5.63401         1.47895 
        2.40339         5.55827         1.45532 
        2.41914         5.47798         1.43215 
        2.43483         5.46011         1.40957 
         2.4505         5.37596         1.38752 
        2.46622         5.31605         1.36586 
        2.48195         5.25382         1.34466 
        2.49759         5.20237         1.32403 
        2.51328         5.14406         1.30378 
        2.52906          5.0924         1.28382 
        2.54479         5.04073         1.26435 
        2.56049          5.0017         1.24533 
        2.57618         4.93142         1.22671 
        2.59189         4.88452         1.20845 
        2.60758         4.84561         1.19058 
        2.62325         4.79453          1.1731 
        2.63898         4.75009         1.15592 
        2.65468         4.68562         1.13911 
        2.67044         4.65246         1.12256 
        2.68618         4.62804         1.10638 
        2.70184         4.57403         1.09059 
        2.71755         4.51469         1.07506 
        2.73329         4.47773         1.05981 
        2.74897         4.42505         1.04491 
        2.76462         4.38789         1.03033 
        2.78034         4.34389         1.01596 
        2.79607          4.3091         1.00186 
        2.81179          4.2481        0.988036 
        2.82749         4.22699        0.974491 
        2.84321          4.1691        0.961185 
        2.85893         4.14586        0.948132 
        2.87462         4.10867        0.935343 
        2.89033         4.08817        0.922779 
        2.90605         4.01391        0.910435 
        2.92176         3.99573        0.898322 
        2.93747         3.92536        0.886437 
        2.95318         3.90831        0.874764 
        2.96891         3.89005        0.863296 
        2.98456         3.84553        0.852084 
        3.00023         3.81541        0.841056 
        3.01596         3.76999        0.830188 
        3.03164         3.75535        0.819543 
        3.04738         3.71765        0.809054 
         3.0631         3.67957        0.798752 
        3.07883         3.65132        0.788629 
        3.09456         3.61415        0.778683 
        3.11026         3.58147        0.768924 
        3.12596         3.55367        0.759334 
        3.14163         3.51657        0.749929 
        3.15734         3.48625        0.740661 
        3.17308         3.45577        0.731528 
        3.18879         3.42707        0.722574 
        3.20447         3.40454        0.713783 
         3.2202          3.3852         0.70511 
         3.2359         3.34734        0.696598 
        3.25157         3.32024        0.688246 
        3.26729         3.28093        0.680005 
        3.28304         3.26477        0.671884 
        3.29877         3.23694        0.663906 
        3.31446         3.20917        0.656075 
        3.33014         3.17864        0.648377 
        3.34585         3.15518         0.64079 
        3.36158         3.12561        0.633314 
        3.37727         3.10615         0.62598 
        3.39294         3.08632         0.61877 
        3.40867         3.05387        0.611647 
        3.42439         3.02896         0.60464 
        3.44008         2.99943        0.597756 
        3.45578         2.96999        0.590974 
        3.47153         2.95491        0.584283 
        3.48724         2.92725        0.577707 
        3.50292         2.91626        0.571248 
        3.51859         2.88766         0.56489 
        3.53431         2.85504         0.55861 
        3.55007         2.84491        0.552409 
        3.56577         2.81709        0.546327 
        3.58146          2.8067        0.540339 
        3.59719         2.77944        0.534428 
        3.61292          2.7591        0.528606 
        3.62859         2.72949        0.522894 
        3.64429         2.71783        0.517254 
        3.66003         2.68502        0.511681 
        3.67578         2.66459        0.506192 
        3.69146         2.65404        0.500804 
        3.70712          2.6387        0.495504 
        3.72284         2.61536        0.490261 
        3.73853          2.5937        0.485103 
        3.75422         2.57197        0.480018 
        3.76993         2.55407        0.475001 
        3.78564         2.52834        0.470058 
        3.80137         2.52183        0.465177 
        3.81707          2.5071        0.460375 
        3.83279         2.47479        0.455638 
        3.84853          2.4601        0.450959 
        3.86424         2.44139        0.446355 
        3.87992         2.42614        0.441822 
        3.89561         2.40829        0.437352 
        3.91134         2.38592        0.432935 
        3.92704         2.37253        0.428584 
        3.94273         2.35224        0.424297 
        3.95845         2.33803        0.420061 
        3.97418         2.32569        0.415881 
        3.98988         2.29592        0.411764 
        4.00554         2.28318        0.407714 
        4.02125         2.26902        0.403707 
        4.03698          2.2524        0.399748 
        4.05268         2.23706         0.39585 
        4.06839         2.21274        0.392002 
         4.0841         2.20245        0.388206 
        4.09983          2.1855        0.384455 
        4.11555          2.1675        0.380755 
        4.13124         2.15048        0.377114 
        4.14693         2.13271        0.373517 
        4.16266         2.11755        0.369959 
        4.17839         2.09986         0.36645 
        4.19408         2.08775        0.362994 
        4.20977         2.06656         0.35958 
        4.22551         2.05207        0.356203 
        4.24123         2.04665        0.352873 
        4.25691         2.02913        0.349594 
        4.27259         2.01626        0.346355 
        4.28831         1.99546        0.343152 
        4.30404         1.98621        0.339985 
        4.31974          1.9686        0.336866 
        4.33543         1.95471        0.333787 
        4.35116         1.94544         0.33074 
        4.36688         1.92903        0.327732 
        4.38255         1.91572        0.324772 
        4.39825         1.90304        0.321842 
        4.41398         1.89257        0.318943 
         4.4297         1.88029        0.316082 
        4.44541         1.87007        0.313258 
        4.46111         1.85422        0.310469 
        4.47683         1.83952        0.307713 
        4.49251         1.83372        0.304996 
        4.50819         1.82065        0.302312 
         4.5239         1.81165        0.299657 
        4.53962         1.79119         0.29703 
        4.55535         1.78305        0.294433 
        4.57106         1.76929        0.291871 
        4.58678         1.75781         0.28934 
         4.6025         1.74936        0.286837 
        4.61821         1.74053        0.284365 
        4.63391         1.72823        0.281925 
         4.6496         1.72077        0.279514 
        4.66532         1.70823        0.277128 
        4.68103         1.69431        0.274771 
        4.69673         1.69113        0.272443 
        4.71241         1.67716        0.270145 
        4.72811         1.66849        0.267869 
        4.74384         1.65967        0.265617 
        4.75955         1.64671        0.263394 
        4.77525         1.63753        0.261198 
        4.79096         1.63056        0.259024 
        4.80669         1.61771        0.256874 
         4.8224         1.60931         0.25475 
        4.83809         1.59976        0.252653 
        4.85379         1.59105        0.250578 
         4.8695          1.5789        0.248525 
        4.88521         1.57197        0.246496 
        4.90093         1.56179        0.244489 
        4.91663         1.55647        0.242506 
        4.93234         1.54502        0.240543 
        4.94807         1.53594          0.2386 
        4.96377         1.53117        0.236683 
        4.97943         1.51652         0.23479 
        4.99514         1.51185        0.232914 
        5.01086         1.50247        0.231056 
        5.02654         1.49572        0.229224 
        5.04227         1.48781        0.227406 
          5.058         1.48273        0.225606 
        5.07371         1.47472         0.22383 
        5.08942         1.46673        0.222073 
        5.10513          1.4551        0.220334 
        5.12084         1.44891        0.218613 
        5.13656         1.44107        0.216911 
        5.15225         1.43315         0.21523 
        5.16796         1.42504        0.213563 
        5.18369         1.42297        0.211913 
         5.1994         1.41555        0.210284 
        5.21509         1.40843        0.208673 
        5.23079         1.39598        0.207077 
        5.24649         1.39328        0.205499 
        5.26217         1.38592        0.203938 
        5.27788         1.37829        0.202392 
        5.29359         1.37246        0.200861 
        5.30933         1.36547        0.199344 
        5.32504         1.36059        0.197844 
        5.34073         1.35287        0.196363 
        5.35646         1.34761        0.194893 
        5.37218         1.33866        0.193438 
        5.38789         1.33454           0.192 
        5.40357         1.32697        0.190578 
        5.41929         1.32014        0.189168 
        5.43502         1.31381        0.187772 
         5.4507         1.30751        0.186393 
        5.46639         1.30271        0.185028 
        5.48212         1.29728        0.183673 
        5.49786         1.29135        0.182331 
        5.51353         1.28566        0.181008 
        5.52921          1.2785        0.179697 
        5.54495         1.27382        0.178395 
        5.56066         1.26637        0.177108 
        5.57637         1.26174        0.175833 
        5.59207         1.25744        0.174572 
        5.60778          1.2507        0.173323 
        5.62346         1.24681        0.172088 
        5.63916         1.23881        0.170864 
        5.65487         1.23474        0.169651 
         5.6706         1.22977        0.168448 
        5.68633         1.22511        0.167257 
        5.70203         1.21624         0.16608 
        5.71773         1.21252        0.164914 
        5.73344         1.20844        0.163758 
        5.74916         1.20449        0.162613 
        5.76486         1.19832         0.16148 
        5.78054         1.19312         0.16036 
        5.79626         1.18904        0.159247 
          5.812         1.18341        0.158144 
         5.8277         1.17935        0.157054 
        5.84339         1.17541        0.155975 
        5.85911         1.16951        0.154903 
        5.87484         1.16416        0.153842 
        5.89053         1.16088        0.152793 
        5.90623         1.15514        0.151753 
        5.92195         1.15257        0.150721 
        5.93767          1.1499          0.1497 
        5.95336         1.14355        0.148689 
        5.96905         1.13756        0.147688 
        5.98476         1.13547        0.146695 
        6.00048         1.12936        0.145711 
        6.01617         1.12677        0.144737 
        6.03185         1.12016        0.143773 
        6.04756         1.11793        0.142815 
        6.06331         1.11365        0.141865 
        6.07903         1.10791        0.140924 
        6.09473         1.10495        0.139994 
        6.11044         1.09861        0.139071 
        6.12616         1.09663        0.138156 
        6.14186         1.09165         0.13725 
        6.15755         1.08854        0.136353 
        6.17326          1.0835        0.135463 
        6.18898         1.07901         0.13458 
        6.20467         1.07754        0.133707 
        6.22036         1.07309        0.132842 
         6.2361         1.06938        0.131982 
         6.2518         1.06655        0.131131 
        6.26748         1.06187        0.130289 
        6.28319         1.05959        0.129453 
        6.29893         1.05658        0.128623 
        6.31463         1.04996        0.127802 
        6.33033         1.04844        0.126988 
        6.34604         1.04292        0.126181 
        6.36177         1.04132         0.12538 
        6.37747         1.03697        0.124587 
