# k  (h/Mpc)    Pcb(k)  (Mpc/h)^3    Pcb_linear(k) (Mpc/h)^3   ShotnoiseSubtracted = true
      0.0200456         20242.5         23680.8 
      0.0350414         14537.6         16916.8 
      0.0492313         10771.1         12257.1 
      0.0637834         9437.58         10208.3 
      0.0800726         7337.46         8007.14 
       0.096163         5910.12         5758.48 
       0.111083         4732.36         4634.02 
       0.126058          3839.3          4122.9 
       0.142273         3261.31         3443.36 
       0.158546         2806.45         2703.57 
        0.17375         2417.79         2304.07 
       0.188953         2329.31         2093.06 
       0.204907         1994.03          1830.5 
       0.220756         1798.71         1540.09 
        0.23588            1663         1351.09 
         0.2514         1506.37         1232.84 
       0.267535         1438.43         1106.93 
       0.283568         1304.35         971.233 
       0.299022         1186.98         869.552 
       0.314451         1176.51         797.676 
       0.330372         1109.64         728.898 
       0.346141         974.962         659.009 
       0.361624         972.387          600.05 
       0.377134         944.789         553.601 
       0.392932          838.89         511.551 
       0.408854         842.623         470.341 
       0.424564         790.849         433.627 
       0.440253          774.03         402.626 
       0.455999         737.373          375.01 
       0.471626         708.324         349.224 
        0.48727         696.923         325.492 
       0.502856         664.456         304.483 
       0.518488         638.939         285.555 
       0.534347         615.482          267.79 
       0.550082         593.669         251.458 
       0.565732         576.754         236.668 
       0.581496         556.244         223.085 
       0.597222         553.529         210.568 
       0.612804         528.324         199.049 
       0.628434         516.892         188.359 
       0.644267         496.798          178.38 
       0.660051         484.751         169.164 
       0.675724         477.091          160.65 
       0.691403         458.387         152.714 
       0.707174         453.575          145.27 
       0.722871           433.8         138.352 
        0.73838         436.212         131.958 
       0.754018         416.384         125.921 
       0.769845         407.726         120.195 
        0.78569         401.105         114.822 
       0.801365         390.512         109.831 
       0.817031         382.683         105.141 
       0.832809         376.583         100.697 
       0.848511         369.092         96.5315 
       0.864097         357.373         92.6312 
       0.879701         348.588         88.9437 
       0.895507         344.297         85.4145 
       0.911279         338.372          82.085 
        0.92691         328.451         78.9614 
       0.942635         324.929         75.9839 
       0.958396         318.381         73.1542 
       0.974128         312.293         70.4744 
       0.989692          306.29         67.9558 
        1.00528         300.801         65.5571 
        1.02113         293.632          63.237 
        1.03692         287.767         61.0382 
        1.05264          282.42         58.9545 
        1.06832         277.474         56.9718 
        1.08405         271.685         55.0753 
        1.09979         267.614         53.2644 
        1.11537         262.444         51.5531 
        1.13105         257.707         49.9072 
        1.14679         254.381          48.327 
        1.16256          246.79         46.8125 
        1.17828         244.024          45.368 
        1.19395           239.2         43.9897 
         1.2097         235.709         42.6618 
        1.22537         233.329         41.3953 
          1.241         227.771         40.1843 
        1.25666         224.747         39.0189 
        1.27241         218.762         37.8944 
        1.28819         215.443         36.8125 
        1.30392         211.586         35.7761 
        1.31957         207.692         34.7844 
        1.33529         205.336         33.8267 
        1.35108         200.285         32.9014 
        1.36674         196.461         32.0175 
         1.3824         192.826         31.1669 
        1.39811         190.948         30.3445 
        1.41389         186.861         29.5488 
        1.42964         183.818         28.7829 
        1.44531         181.586         28.0481 
        1.46101          178.21         27.3374 
        1.47667         175.212         26.6535 
        1.49229         172.853         25.9949 
        1.50793         169.531         25.3579 
        1.52367           167.2         24.7382 
        1.53953         163.237         24.1351 
        1.55526         162.536          23.557 
        1.57092         158.857         23.0002 
        1.58662         156.745         22.4601 
        1.60235          153.21         21.9364 
        1.61809         151.312         21.4292 
        1.63369         148.321         20.9425 
        1.64941         146.568         20.4675 
        1.66519         143.655         20.0056 
        1.68085         142.782         19.5612 
        1.69652         139.112         19.1303 
        1.71228         136.442         18.7099 
        1.72806         136.008         18.3018 
        1.74368          132.78           17.91 
        1.75933         130.812         17.5289 
        1.77505         127.705         17.1572 
        1.79081         126.725         16.7956 
         1.8065         124.553          16.446 
        1.82218         122.966         16.1067 
        1.83797         120.383         15.7746 
        1.85367         118.483         15.4538 
        1.86928         116.645         15.1438 
        1.88497         115.635         14.8406 
        1.90073         113.724         14.5447 
        1.91647         111.372         14.2571 
        1.93218         110.427         13.9778 
        1.94787         107.917         13.7065 
        1.96363         106.741         13.4414 
        1.97935         105.394         13.1838 
        1.99499         103.854         12.9344 
        2.01064         102.137         12.6911 
         2.0264         100.356         12.4526 
        2.04216         98.5508         12.2203 
        2.05781         97.8551         11.9954 
        2.07353         96.1757         11.7754 
        2.08928         95.1042         11.5604 
        2.10499         93.6151         11.3514 
        2.12065         91.9715         11.1482 
        2.13633         90.4731         10.9498 
        2.15211         89.5833         10.7549 
        2.16785         87.8351         10.5654 
        2.18349         86.9415         10.3816 
        2.19916         85.2145         10.2017 
        2.21489          84.283         10.0256 
        2.23063         82.8698          9.8535 
         2.2463         81.5393         9.68622 
        2.26194         80.5148         9.52325 
        2.27765         79.6539         9.36319 
        2.29341          78.387          9.2064 
        2.30914         77.3548         9.05352 
        2.32486         76.4071         8.90421 
        2.34061         75.1298         8.75802 
        2.35635         73.9271         8.61524 
        2.37203         73.1573         8.47615 
        2.38768         72.5373         8.34041 
        2.40339         71.4829         8.20716 
        2.41914         70.0495         8.07652 
        2.43483         69.3018         7.94918 
         2.4505          68.027          7.8248 
        2.46622         67.4861         7.70266 
        2.48195         66.5345         7.58312 
        2.49759         65.8503         7.46675 
        2.51328         64.5393         7.35253 
        2.52906         63.8101         7.23998 
        2.54479         62.9237          7.1302 
        2.56049         61.9638         7.02291 
        2.57618         61.5036         6.91793 
        2.59189         60.7456         6.81493 
        2.60758          59.643          6.7142 
        2.62325         58.7919         6.61562 
        2.63898         58.1125         6.51869 
        2.65468         57.3293         6.42389 
        2.67044           56.48         6.33058 
        2.68618         55.8333         6.23934 
        2.70184         55.1397         6.15027 
        2.71755         54.4401         6.06271 
        2.73329         53.7523         5.97672 
        2.74897          53.015         5.89268 
        2.76462         52.3497         5.81044 
        2.78034         51.7895         5.72944 
        2.79607         50.9967         5.64989 
        2.81179         50.4186         5.57195 
        2.82749         49.7289         5.49556 
        2.84321         49.1507         5.42052 
        2.85893         48.4198         5.34691 
        2.87462         48.1043         5.27479 
        2.89033         47.4259         5.20393 
        2.90605         46.7766         5.13432 
        2.92176         46.4135         5.06601 
        2.93747         45.5982         4.99899 
        2.95318         45.0259         4.93316 
        2.96891         44.4033         4.86849 
        2.98456         43.8134         4.80526 
        3.00023         43.3112         4.74306 
        3.01596         42.8571         4.68178 
        3.03164         42.4929         4.62175 
        3.04738         41.7962         4.56259 
         3.0631         41.3854          4.5045 
        3.07883         40.9365         4.44741 
        3.09456         40.4623         4.39132 
        3.11026         39.9054         4.33628 
        3.12596         39.5039          4.2822 
        3.14163          39.064         4.22916 
        3.15734         38.4564          4.1769 
        3.17308          37.997         4.12539 
        3.18879         37.5419         4.07489 
        3.20447         37.2076         4.02532 
         3.2202         36.5663         3.97641 
         3.2359         36.2447          3.9284 
        3.25157         35.8202          3.8813 
        3.26729         35.4326         3.83483 
        3.28304         35.0132         3.78903 
        3.29877         34.6647         3.74404 
        3.31446         34.3127         3.69988 
        3.33014         33.9009         3.65646 
        3.34585          33.544         3.61368 
        3.36158         33.2279         3.57152 
        3.37727         32.8087         3.53016 
        3.39294         32.3366          3.4895 
        3.40867         31.9626         3.44933 
        3.42439         31.6904         3.40981 
        3.44008         31.3184         3.37099 
        3.45578          30.976         3.33275 
        3.47153         30.6509         3.29502 
        3.48724         30.3239         3.25793 
        3.50292         29.9777          3.2215 
        3.51859         29.5802         3.18565 
        3.53431         29.3172         3.15023 
        3.55007         28.9807         3.11527 
        3.56577         28.6894         3.08097 
        3.58146         28.3635          3.0472 
        3.59719         28.1117         3.01386 
        3.61292         27.7583         2.98103 
        3.62859         27.4263         2.94881 
        3.64429         27.1854         2.91701 
        3.66003         26.9624         2.88558 
        3.67578         26.5687         2.85463 
        3.69146         26.3321         2.82424 
        3.70712         25.9792         2.79435 
        3.72284         25.7839         2.76479 
        3.73853         25.4008          2.7357 
        3.75422         25.1783         2.70702 
        3.76993         24.9196         2.67873 
        3.78564         24.7108         2.65085 
        3.80137         24.4414         2.62332 
        3.81707         24.1376         2.59625 
        3.83279         23.8852         2.56953 
        3.84853         23.6902         2.54314 
        3.86424           23.39         2.51718 
        3.87992         23.2543         2.49162 
        3.89561         22.9638         2.46641 
        3.91134         22.7229          2.4415 
        3.92704         22.5108         2.41696 
        3.94273         22.3334         2.39279 
        3.95845         22.0616          2.3689 
        3.97418         21.8009         2.34533 
        3.98988         21.5477         2.32211 
        4.00554          21.342         2.29927 
        4.02125         21.1532         2.27667 
        4.03698         21.0078         2.25434 
        4.05268         20.7432         2.23237 
        4.06839         20.5091         2.21066 
         4.0841         20.3815         2.18926 
        4.09983         20.1367          2.1681 
        4.11555         20.0278         2.14724 
        4.13124         19.7808          2.1267 
        4.14693         19.5458         2.10642 
        4.16266         19.3693         2.08635 
        4.17839         19.2023         2.06656 
        4.19408         18.9892         2.04707 
        4.20977         18.8409         2.02782 
        4.22551         18.6581         2.00878 
        4.24123         18.4877            1.99 
        4.25691         18.2559          1.9715 
        4.27259         18.1025         1.95324 
        4.28831         17.9009         1.93518 
        4.30404         17.7813         1.91732 
        4.31974         17.6546         1.89973 
        4.33543         17.4712         1.88237 
        4.35116         17.2723         1.86518 
        4.36688         17.1559         1.84821 
        4.38255         16.9343         1.83152 
        4.39825         16.8201           1.815 
        4.41398         16.6195         1.79865 
         4.4297         16.5385         1.78252 
        4.44541         16.3577         1.76659 
        4.46111          16.201         1.75087 
        4.47683         16.0266         1.73532 
        4.49251         15.8741            1.72 
        4.50819         15.7384         1.70486 
         4.5239         15.6061         1.68989 
        4.53962         15.4555         1.67507 
        4.55535         15.3326         1.66043 
        4.57106         15.2202         1.64598 
        4.58678         15.0664         1.63171 
         4.6025         14.9284         1.61759 
        4.61821         14.8088         1.60365 
        4.63391         14.6301         1.58989 
         4.6496         14.5115          1.5763 
        4.66532         14.3916         1.56284 
        4.68103         14.2597         1.54955 
        4.69673         14.1528         1.53642 
        4.71241          14.044         1.52346 
        4.72811         13.8995         1.51063 
        4.74384         13.7506         1.49793 
        4.75955         13.6399         1.48539 
        4.77525         13.5302           1.473 
        4.79096         13.3995         1.46074 
        4.80669         13.3177         1.44862 
         4.8224         13.2006         1.43664 
        4.83809         13.0975         1.42482 
        4.85379         12.9681         1.41312 
         4.8695         12.8371         1.40154 
        4.88521         12.7562         1.39009 
        4.90093         12.6129         1.37877 
        4.91663         12.5189         1.36759 
        4.93234         12.3979         1.35652 
        4.94807         12.3192         1.34557 
        4.96377          12.196         1.33475 
        4.97943         12.1103         1.32408 
        4.99514         12.0088          1.3135 
        5.01086         11.9147         1.30302 
        5.02654         11.8203         1.29269 
        5.04227         11.6932         1.28243 
          5.058         11.5968         1.27229 
        5.07371         11.4975         1.26227 
        5.08942         11.3867         1.25236 
        5.10513         11.3143         1.24256 
        5.12084         11.2071         1.23285 
        5.13656         11.1304         1.22325 
        5.15225         11.0442         1.21377 
        5.16796         10.9241         1.20437 
        5.18369         10.8556         1.19507 
         5.1994         10.7794         1.18588 
        5.21509         10.6872         1.17679 
        5.23079         10.5783         1.16779 
        5.24649         10.5236         1.15889 
        5.26217         10.4241         1.15009 
        5.27788         10.3419         1.14137 
        5.29359         10.2464         1.13274 
        5.30933         10.1637         1.12418 
        5.32504         10.1113         1.11573 
        5.34073          9.9938         1.10737 
        5.35646         9.92923         1.09908 
        5.37218         9.87066         1.09088 
        5.38789         9.78509         1.08277 
        5.40357         9.68193         1.07475 
        5.41929         9.59458          1.0668 
        5.43502         9.54211         1.05892 
         5.4507         9.47317         1.05115 
        5.46639         9.40596         1.04345 
        5.48212         9.34351         1.03581 
        5.49786         9.27012         1.02824 
        5.51353          9.1794         1.02078 
        5.52921         9.12247         1.01339 
        5.54495         9.04504         1.00604 
        5.56066         8.99248        0.998784 
        5.57637         8.89977        0.991596 
        5.59207         8.84833        0.984486 
        5.60778         8.77596        0.977442 
        5.62346          8.7112        0.970477 
        5.63916         8.63193        0.963573 
        5.65487         8.56457        0.956732 
         5.6706         8.49921         0.94995 
        5.68633         8.45181        0.943232 
        5.70203         8.38088        0.936592 
        5.71773         8.31694        0.930017 
        5.73344          8.2666        0.923501 
        5.74916         8.18451        0.917042 
        5.76486         8.14301        0.910654 
        5.78054         8.07931        0.904336 
        5.79626         8.00948         0.89806 
          5.812         7.93587        0.891838 
         5.8277          7.8948        0.885693 
        5.84339         7.84556        0.879605 
        5.85911         7.78155        0.873564 
        5.87484         7.70884        0.867579 
        5.89053         7.65365        0.861663 
        5.90623         7.60494        0.855799 
        5.92195         7.56157         0.84998 
        5.93767          7.4805        0.844218 
        5.95336         7.43701        0.838519 
        5.96905         7.38703        0.832874 
        5.98476         7.33009        0.827274 
        6.00048         7.26203        0.821723 
        6.01617         7.22989         0.81623 
        6.03185          7.1755        0.810794 
        6.04756         7.11883        0.805395 
        6.06331          7.0718        0.800033 
        6.07903         7.01958        0.794732 
        6.09473         6.96965        0.789483 
        6.11044         6.93037        0.784277 
        6.12616         6.87089        0.779119 
        6.14186           6.834        0.774012 
        6.15755         6.78367        0.768951 
        6.17326         6.73523        0.763932 
        6.18898         6.67577        0.758955 
        6.20467         6.62714        0.754031 
        6.22036         6.58632        0.749151 
         6.2361         6.55388        0.744301 
         6.2518         6.50928        0.739503 
        6.26748          6.4601        0.734756 
        6.28319         6.40077        0.730039 
        6.29893         6.37834        0.725359 
        6.31463          6.3352        0.720727 
        6.33033         6.28306        0.716138 
        6.34604         6.23888        0.711585 
        6.36177         6.19684        0.707068 
        6.37747          6.1702        0.702598 
