# k  (h/Mpc)    Pcb(k)  (Mpc/h)^3    Pcb_linear(k) (Mpc/h)^3   ShotnoiseSubtracted = true
      0.0200456         19849.9         17254.4 
      0.0350414           13613           12326 
      0.0492313         9338.79         8930.83 
      0.0637834         7251.55         7438.02 
      0.0800726         5473.27          5834.2 
       0.096163          4071.9         4195.77 
       0.111083          3599.5         3376.47 
       0.126058         3113.01         3004.05 
       0.142273         2595.49         2508.92 
       0.158546         2208.68         1969.89 
        0.17375         1850.77          1678.8 
       0.188953         1684.64         1525.06 
       0.204907         1441.29         1333.75 
       0.220756         1365.24         1122.15 
        0.23588            1207         984.438 
         0.2514         1090.89         898.281 
       0.267535         1025.88         806.533 
       0.283568         946.288         707.664 
       0.299022         853.561         633.577 
       0.314451         826.793         581.207 
       0.330372         756.761         531.094 
       0.346141         723.142         480.171 
       0.361624         675.548         437.212 
       0.377134         640.783         403.368 
       0.392932         593.898         372.729 
       0.408854         580.905         342.702 
       0.424564         533.353         315.952 
       0.440253         535.014         293.363 
       0.455999         500.064         273.241 
       0.471626         496.028         254.453 
        0.48727         461.241         237.161 
       0.502856         446.774         221.854 
       0.518488         431.581         208.063 
       0.534347         409.213         195.118 
       0.550082         404.317         183.219 
       0.565732          386.14         172.442 
       0.581496         375.341         162.545 
       0.597222         359.236         153.425 
       0.612804         352.622         145.032 
       0.628434         345.693         137.243 
       0.644267         328.845         129.972 
       0.660051         322.162         123.257 
       0.675724         311.573         117.053 
       0.691403           305.6         111.271 
       0.707174         295.272         105.847 
       0.722871         288.941         100.807 
        0.73838         279.353          96.148 
       0.754018         273.281         91.7489 
       0.769845         266.307         87.5774 
        0.78569         259.586          83.662 
       0.801365         251.019         80.0254 
       0.817031         247.279         76.6085 
       0.832809         242.053         73.3705 
       0.848511         235.814         70.3352 
       0.864097         230.574         67.4934 
       0.879701         226.697         64.8066 
       0.895507         220.387         62.2352 
       0.911279         212.756         59.8092 
        0.92691         211.267         57.5333 
       0.942635         205.926         55.3637 
       0.958396         201.656          53.302 
       0.974128         197.781         51.3494 
       0.989692          193.96         49.5143 
        1.00528         189.945         47.7665 
        1.02113         185.982          46.076 
        1.03692         181.284          44.474 
        1.05264         178.346         42.9557 
        1.06832         174.855         41.5111 
        1.08405         171.579         40.1292 
        1.09979         167.766         38.8097 
        1.11537         165.107         37.5629 
        1.13105         162.515         36.3636 
        1.14679         159.778         35.2123 
        1.16256         156.371         34.1087 
        1.17828         154.558         33.0563 
        1.19395         151.213          32.052 
         1.2097         148.336         31.0845 
        1.22537         145.828         30.1617 
          1.241          142.12         29.2793 
        1.25666         140.962         28.4301 
        1.27241         138.075         27.6108 
        1.28819         134.408         26.8225 
        1.30392         132.521         26.0674 
        1.31957         130.532         25.3448 
        1.33529         128.204          24.647 
        1.35108         125.433         23.9728 
        1.36674         123.764         23.3287 
         1.3824         122.389          22.709 
        1.39811         119.602         22.1098 
        1.41389         117.496           21.53 
        1.42964         115.147          20.972 
        1.44531         112.755         20.4365 
        1.46101         111.973         19.9187 
        1.47667         109.661         19.4204 
        1.49229         107.587         18.9406 
        1.50793         107.362         18.4764 
        1.52367         104.387         18.0249 
        1.53953         102.168         17.5854 
        1.55526         100.654         17.1642 
        1.57092         99.3508         16.7585 
        1.58662         97.6104          16.365 
        1.60235         95.9935         15.9834 
        1.61809         94.3217         15.6138 
        1.63369         93.2758         15.2592 
        1.64941          91.437         14.9132 
        1.66519         89.2543         14.5766 
        1.68085         88.3266         14.2528 
        1.69652         87.3287         13.9388 
        1.71228         86.2407         13.6325 
        1.72806         84.5477         13.3351 
        1.74368         83.0599         13.0497 
        1.75933         81.3645          12.772 
        1.77505         80.2257         12.5012 
        1.79081         79.2143         12.2377 
         1.8065          77.692          11.983 
        1.82218           76.44         11.7357 
        1.83797         75.5331         11.4938 
        1.85367         74.5386           11.26 
        1.86928         73.3129         11.0341 
        1.88497          72.145         10.8132 
        1.90073         71.3854         10.5976 
        1.91647           69.81          10.388 
        1.93218         69.1121         10.1846 
        1.94787          68.084         9.98693 
        1.96363         67.1632         9.79372 
        1.97935         66.0353         9.60603 
        1.99499         65.1698         9.42433 
        2.01064         64.1403         9.24707 
         2.0264         63.2422         9.07326 
        2.04216         62.3387         8.90402 
        2.05781         61.2689         8.74016 
        2.07353         60.1858         8.57985 
        2.08928         59.6081         8.42322 
        2.10499         58.9093         8.27092 
        2.12065         57.6916         8.12285 
        2.13633         57.0582         7.97828 
        2.15211         56.0381          7.8363 
        2.16785         55.3725         7.69818 
        2.18349         54.5036         7.56426 
        2.19916         53.8658         7.43324 
        2.21489         53.1785          7.3049 
        2.23063         52.0913         7.17951 
         2.2463         51.7564         7.05762 
        2.26194         50.8854         6.93887 
        2.27765         50.0641         6.82225 
        2.29341         49.5406         6.70801 
        2.30914         48.6636         6.59662 
        2.32486         48.0077         6.48783 
        2.34061         47.3092         6.38131 
        2.35635         47.0022         6.27728 
        2.37203         45.9928         6.17593 
        2.38768         45.5346         6.07703 
        2.40339         44.7782         5.97994 
        2.41914         44.4367         5.88475 
        2.43483         43.7816         5.79197 
         2.4505         43.2199         5.70134 
        2.46622         42.5904         5.61235 
        2.48195         42.1164         5.52525 
        2.49759         41.3878         5.44046 
        2.51328         40.9601         5.35724 
        2.52906         40.2909         5.27523 
        2.54479         39.8219         5.19524 
        2.56049         39.3417         5.11707 
        2.57618         38.7261         5.04058 
        2.59189          38.206         4.96553 
        2.60758         37.6301         4.89213 
        2.62325         37.1282         4.82031 
        2.63898          36.796         4.74968 
        2.65468         36.3411         4.68061 
        2.67044         35.8045         4.61262 
        2.68618         35.2895         4.54614 
        2.70184         34.8695         4.48124 
        2.71755         34.5098         4.41744 
        2.73329         34.0406         4.35479 
        2.74897         33.5199         4.29355 
        2.76462         33.2008         4.23363 
        2.78034         32.8225         4.17461 
        2.79607          32.304         4.11665 
        2.81179         31.9908         4.05986 
        2.82749         31.5322          4.0042 
        2.84321         31.1343         3.94953 
        2.85893         30.6473         3.89589 
        2.87462         30.4752         3.84334 
        2.89033         30.0131         3.79172 
        2.90605         29.6011         3.74099 
        2.92176         29.2103         3.69122 
        2.93747         28.9489         3.64239 
        2.95318         28.6336         3.59442 
        2.96891         28.2285          3.5473 
        2.98456         27.9143         3.50123 
        3.00023         27.5846         3.45591 
        3.01596         27.2423         3.41126 
        3.03164         26.9178         3.36752 
        3.04738          26.548         3.32442 
         3.0631         26.3722         3.28209 
        3.07883         26.0713         3.24049 
        3.09456         25.6391         3.19963 
        3.11026         25.3163         3.15953 
        3.12596         25.1758         3.12012 
        3.14163         24.8018         3.08147 
        3.15734         24.5153         3.04339 
        3.17308         24.1169         3.00586 
        3.18879         23.8777         2.96907 
        3.20447         23.6601         2.93295 
         3.2202         23.3618         2.89731 
         3.2359         23.0539         2.86233 
        3.25157         22.8156         2.82801 
        3.26729         22.6172         2.79416 
        3.28304         22.3062         2.76078 
        3.29877         22.0652           2.728 
        3.31446         21.7698         2.69582 
        3.33014         21.5604         2.66419 
        3.34585         21.3191         2.63302 
        3.36158         21.0284          2.6023 
        3.37727         20.8101         2.57217 
        3.39294         20.5768         2.54254 
        3.40867         20.3689         2.51327 
        3.42439         20.1326         2.48448 
        3.44008         19.9214         2.45619 
        3.45578         19.6833         2.42833 
        3.47153         19.4598         2.40083 
        3.48724         19.2787         2.37381 
        3.50292         19.0904         2.34727 
        3.51859          18.859         2.32114 
        3.53431         18.6542         2.29534 
        3.55007         18.4213         2.26986 
        3.56577         18.2649         2.24487 
        3.58146         18.0244         2.22027 
        3.59719         17.8656         2.19597 
        3.61292          17.718         2.17205 
        3.62859         17.5257         2.14858 
        3.64429         17.3241         2.12541 
        3.66003         17.0844         2.10251 
        3.67578         16.9869         2.07995 
        3.69146         16.7438         2.05781 
        3.70712         16.6242         2.03604 
        3.72284          16.458         2.01449 
        3.73853         16.2367          1.9933 
        3.75422         16.0617          1.9724 
        3.76993         15.9086         1.95179 
        3.78564         15.7642         1.93148 
        3.80137         15.6012         1.91142 
        3.81707         15.3935         1.89169 
        3.83279         15.2817         1.87222 
        3.84853         15.1374           1.853 
        3.86424          14.979         1.83408 
        3.87992         14.8035         1.81546 
        3.89561         14.6454         1.79709 
        3.91134         14.4637         1.77894 
        3.92704         14.3975         1.76106 
        3.94273         14.2121         1.74344 
        3.95845         14.0677         1.72604 
        3.97418         13.9288         1.70886 
        3.98988          13.852         1.69195 
        4.00554           13.65         1.67531 
        4.02125         13.5151         1.65884 
        4.03698         13.3656         1.64257 
        4.05268         13.2487         1.62656 
        4.06839         13.1187         1.61074 
         4.0841           13.03         1.59515 
        4.09983          12.878         1.57973 
        4.11555         12.7444         1.56453 
        4.13124         12.6513         1.54957 
        4.14693         12.5447         1.53479 
        4.16266         12.3873         1.52017 
        4.17839          12.267         1.50575 
        4.19408          12.134         1.49155 
        4.20977         12.0267         1.47752 
        4.22551         11.9139         1.46365 
        4.24123         11.7951         1.44996 
        4.25691         11.7154         1.43649 
        4.27259         11.5869         1.42318 
        4.28831         11.4535         1.41002 
        4.30404         11.3394         1.39701 
        4.31974         11.2397         1.38419 
        4.33543          11.141         1.37154 
        4.35116         11.0241         1.35902 
        4.36688         10.9327         1.34666 
        4.38255         10.8474         1.33449 
        4.39825         10.7672         1.32246 
        4.41398         10.6296         1.31054 
         4.4297          10.566         1.29879 
        4.44541         10.4662         1.28718 
        4.46111         10.3636         1.27572 
        4.47683         10.2658          1.2644 
        4.49251         10.1786         1.25323 
        4.50819          10.077         1.24221 
         4.5239         9.98053         1.23129 
        4.53962          9.8992          1.2205 
        4.55535         9.81117         1.20983 
        4.57106         9.72086         1.19931 
        4.58678         9.63942          1.1889 
         4.6025         9.55227         1.17862 
        4.61821         9.46166         1.16846 
        4.63391          9.3656         1.15843 
         4.6496         9.30213         1.14853 
        4.66532         9.20982         1.13872 
        4.68103         9.13573         1.12904 
        4.69673         9.03786         1.11947 
        4.71241          8.9724         1.11003 
        4.72811         8.88083         1.10068 
        4.74384         8.81746         1.09143 
        4.75955         8.73717         1.08229 
        4.77525         8.67815         1.07327 
        4.79096         8.58547         1.06433 
        4.80669         8.51635          1.0555 
         4.8224         8.42649         1.04677 
        4.83809         8.36783         1.03816 
        4.85379         8.28667         1.02963 
         4.8695         8.23398         1.02119 
        4.88521         8.17199         1.01286 
        4.90093         8.10028         1.00461 
        4.91663         8.03578        0.996462 
        4.93234         7.97869        0.988395 
        4.94807          7.8987        0.980413 
        4.96377         7.83015        0.972534 
        4.97943         7.76589        0.964758 
        4.99514         7.70001        0.957047 
        5.01086         7.65984        0.949414 
        5.02654         7.58894        0.941884 
        5.04227         7.50688        0.934414 
          5.058         7.46042        0.927021 
        5.07371         7.39067        0.919722 
        5.08942         7.33918        0.912501 
        5.10513         7.27254        0.905357 
        5.12084         7.20882        0.898285 
        5.13656         7.16911        0.891291 
        5.15225         7.09325        0.884382 
        5.16796         7.04439        0.877536 
        5.18369         6.97582        0.870756 
         5.1994          6.9195         0.86406 
        5.21509         6.88586        0.857441 
        5.23079         6.81554        0.850882 
        5.24649         6.76968        0.844398 
        5.26217         6.71263        0.837986 
        5.27788         6.65733        0.831631 
        5.29359          6.6152        0.825341 
        5.30933          6.5528        0.819106 
        5.32504         6.50243        0.812947 
        5.34073           6.456        0.806857 
        5.35646         6.40068        0.800818 
        5.37218         6.35183         0.79484 
        5.38789         6.29826        0.788932 
        5.40357         6.26165         0.78309 
        5.41929         6.22568        0.777295 
        5.43502         6.16103        0.771558 
         5.4507         6.10841        0.765893 
        5.46639         6.07443        0.760283 
        5.48212          6.0276        0.754717 
        5.49786         5.97667          0.7492 
        5.51353         5.92441        0.743765 
        5.52921         5.89535        0.738378 
        5.54495         5.84517        0.733029 
        5.56066         5.80598        0.727739 
        5.57637         5.76408        0.722502 
        5.59207         5.70783        0.717321 
        5.60778         5.66449        0.712188 
        5.62346         5.63461        0.707113 
        5.63916         5.58749        0.702083 
        5.65487         5.54093        0.697099 
         5.6706         5.50283        0.692158 
        5.68633         5.46687        0.687262 
        5.70203         5.42779        0.682424 
        5.71773         5.38727        0.677633 
        5.73344         5.34082        0.672886 
        5.74916         5.31074         0.66818 
        5.76486          5.2605        0.663525 
        5.78054         5.23177        0.658922 
        5.79626         5.18188        0.654349 
          5.812         5.16072        0.649815 
         5.8277         5.11736        0.645338 
        5.84339         5.09021        0.640902 
        5.85911         5.05526          0.6365 
        5.87484         5.00774         0.63214 
        5.89053         4.97564        0.627829 
        5.90623         4.95322        0.623557 
        5.92195         4.91114        0.619317 
        5.93767         4.87417        0.615118 
        5.95336          4.8375        0.610966 
        5.96905         4.80068        0.606853 
        5.98476         4.76048        0.602772 
        6.00048         4.73828        0.598728 
        6.01617         4.70836        0.594726 
        6.03185         4.67547        0.590765 
        6.04756         4.63994        0.586831 
        6.06331         4.61067        0.582924 
        6.07903         4.57544        0.579061 
        6.09473         4.54353        0.575237 
        6.11044         4.50774        0.571444 
        6.12616         4.47753        0.567685 
        6.14186         4.45738        0.563964 
        6.15755         4.42135        0.560277 
        6.17326         4.39479         0.55662 
        6.18898         4.36508        0.552993 
        6.20467         4.32796        0.549406 
        6.22036          4.3078         0.54585 
         6.2361         4.27874        0.542317 
         6.2518         4.25242         0.53882 
        6.26748         4.22329        0.535362 
        6.28319         4.19787        0.531924 
        6.29893         4.16731        0.528514 
        6.31463         4.13555         0.52514 
        6.33033         4.10537        0.521796 
        6.34604         4.07973        0.518479 
        6.36177          4.0581        0.515187 
        6.37747         4.02418         0.51193 
