# k  (h/Mpc)    Pcb(k)  (Mpc/h)^3    Pcb_linear(k) (Mpc/h)^3   ShotnoiseSubtracted = true
      0.0200456         25263.8         25732.2 
      0.0350414         19002.3         18382.3 
      0.0492313           12988         13318.9 
      0.0637834         10474.4         11092.6 
      0.0800726         8132.55         8700.77 
       0.096163         6530.58         6257.32 
       0.111083         5342.48         5035.45 
       0.126058         4419.74         4480.06 
       0.142273          3853.5         3741.64 
       0.158546         3147.53         2937.77 
        0.17375         2836.52         2503.67 
       0.188953         2705.16         2274.38 
       0.204907         2318.11         1989.07 
       0.220756         2097.76         1673.51 
        0.23588         1873.11         1468.13 
         0.2514         1699.84         1339.64 
       0.267535         1630.75         1202.81 
       0.283568          1459.1         1055.37 
       0.299022          1386.2         944.878 
       0.314451         1444.56         866.776 
       0.330372         1286.22          792.04 
       0.346141         1177.53         716.097 
       0.361624         1127.37         652.031 
       0.377134            1084         601.558 
       0.392932         1024.58         555.865 
       0.408854         984.627         511.085 
       0.424564         962.398         471.191 
       0.440253         894.987         437.504 
       0.455999         852.593         407.495 
       0.471626         863.137         379.476 
        0.48727         813.246         353.688 
       0.502856         787.037         330.859 
       0.518488         754.822         310.292 
       0.534347         728.232         290.988 
       0.550082         693.331         273.241 
       0.565732         678.364         257.169 
       0.581496         661.796          242.41 
       0.597222         649.698         228.808 
       0.612804         630.435         216.292 
       0.628434         603.061         204.676 
       0.644267          585.97         193.833 
       0.660051         577.866         183.818 
       0.675724         564.593         174.566 
       0.691403         544.076         165.943 
       0.707174         527.984         157.854 
       0.722871         523.747         150.337 
        0.73838          507.18         143.389 
       0.754018         495.896         136.829 
       0.769845         486.877         130.608 
        0.78569         475.185         124.768 
       0.801365         458.448         119.345 
       0.817031         452.282         114.249 
       0.832809         443.424          109.42 
       0.848511         434.871         104.894 
       0.864097         424.829         100.655 
       0.879701         423.883         96.6486 
       0.895507         405.854         92.8137 
       0.911279         400.612         89.1958 
        0.92691         393.348         85.8016 
       0.942635         386.463         82.5661 
       0.958396         374.948         79.4913 
       0.974128         367.777         76.5793 
       0.989692         357.864         73.8426 
        1.00528         351.416          71.236 
        1.02113         344.991          68.715 
        1.03692         339.121         66.3257 
        1.05264         333.961         64.0616 
        1.06832         324.448          61.907 
        1.08405         322.681         59.8463 
        1.09979         313.942         57.8785 
        1.11537         305.391          56.019 
        1.13105         301.266         54.2305 
        1.14679         294.969         52.5134 
        1.16256           292.5         50.8677 
        1.17828         287.269         49.2981 
        1.19395         279.194         47.8004 
         1.2097         274.926         46.3574 
        1.22537          270.85         44.9813 
          1.241         264.071         43.6653 
        1.25666         261.173          42.399 
        1.27241         257.323         41.1771 
        1.28819         249.797         40.0014 
        1.30392         248.675         38.8753 
        1.31957          242.24         37.7976 
        1.33529          237.84          36.757 
        1.35108         236.502         35.7516 
        1.36674         230.079          34.791 
         1.3824         225.787         33.8668 
        1.39811         222.067         32.9732 
        1.41389         217.822         32.1085 
        1.42964         213.646         31.2763 
        1.44531         210.551         30.4778 
        1.46101          205.44         29.7056 
        1.47667         203.398         28.9624 
        1.49229         200.522         28.2468 
        1.50793          196.08         27.5546 
        1.52367         192.773         26.8812 
        1.53953         189.439         26.2258 
        1.55526         185.947         25.5976 
        1.57092         183.814         24.9926 
        1.58662         179.726         24.4058 
        1.60235         177.103         23.8367 
        1.61809          174.73         23.2855 
        1.63369         170.964         22.7567 
        1.64941         168.539         22.2406 
        1.66519         165.229         21.7386 
        1.68085         162.339         21.2558 
        1.69652           159.8         20.7875 
        1.71228         157.349         20.3306 
        1.72806         154.966         19.8872 
        1.74368         152.383         19.4615 
        1.75933         150.675         19.0474 
        1.77505         148.069         18.6435 
        1.79081         145.735         18.2505 
         1.8065         144.568         17.8706 
        1.82218         140.433         17.5019 
        1.83797         139.044         17.1411 
        1.85367         136.653         16.7925 
        1.86928         134.297         16.4556 
        1.88497         132.543         16.1262 
        1.90073         131.111         15.8046 
        1.91647         128.558         15.4921 
        1.93218         126.007         15.1887 
        1.94787         124.027         14.8939 
        1.96363         122.974         14.6058 
        1.97935         121.064         14.3258 
        1.99499         119.108         14.0549 
        2.01064         116.352         13.7905 
         2.0264          115.61         13.5313 
        2.04216         113.314         13.2789 
        2.05781         111.359         13.0345 
        2.07353         110.525         12.7955 
        2.08928         108.768         12.5619 
        2.10499         106.873         12.3347 
        2.12065         105.684         12.1139 
        2.13633         104.084         11.8983 
        2.15211         102.271         11.6866 
        2.16785          101.04         11.4806 
        2.18349         99.6975         11.2809 
        2.19916            98.3         11.0855 
        2.21489         96.5466         10.8941 
        2.23063          95.256         10.7071 
         2.2463         93.7909         10.5253 
        2.26194         92.7579         10.3482 
        2.27765         91.1747         10.1743 
        2.29341         90.1735         10.0039 
        2.30914         88.6609          9.8378 
        2.32486         87.5734         9.67555 
        2.34061         86.0014         9.51669 
        2.35635          85.226         9.36155 
        2.37203         83.6872         9.21041 
        2.38768         82.8491         9.06291 
        2.40339         81.4892         8.91812 
        2.41914         80.3688         8.77616 
        2.43483         79.3572         8.63779 
         2.4505         78.6198         8.50263 
        2.46622         76.8795         8.36991 
        2.48195         76.0081         8.24002 
        2.49759         74.6683         8.11357 
        2.51328         73.9408         7.98945 
        2.52906         73.1272         7.86715 
        2.54479           72.05         7.74786 
        2.56049         70.8929         7.63128 
        2.57618         70.0123          7.5172 
        2.59189         69.4824         7.40529 
        2.60758         68.1601         7.29583 
        2.62325         67.3525         7.18871 
        2.63898         66.2445         7.08338 
        2.65468         65.6947         6.98037 
        2.67044         64.9232         6.87898 
        2.68618         63.8181         6.77983 
        2.70184         63.1464         6.68304 
        2.71755         62.2667          6.5879 
        2.73329         61.3286         6.49446 
        2.74897         60.5382         6.40314 
        2.76462         60.1822         6.31378 
        2.78034         59.2772         6.22576 
        2.79607         58.3146         6.13932 
        2.81179         57.5902         6.05462 
        2.82749         57.0463         5.97162 
        2.84321         56.1687         5.89008 
        2.85893         55.3491         5.81009 
        2.87462         54.8408         5.73173 
        2.89033         54.0963         5.65473 
        2.90605          53.424         5.57909 
        2.92176         52.9646         5.50486 
        2.93747          52.204         5.43203 
        2.95318         51.3158          5.3605 
        2.96891         51.0702         5.29022 
        2.98456          50.146         5.22152 
        3.00023         49.5694         5.15394 
        3.01596         49.1744         5.08734 
        3.03164         48.3571         5.02211 
        3.04738         48.0461         4.95783 
         3.0631         47.2633          4.8947 
        3.07883         46.7954         4.83267 
        3.09456         46.0892         4.77172 
        3.11026          45.762         4.71192 
        3.12596            45.1         4.65315 
        3.14163         44.5354         4.59552 
        3.15734         43.9363         4.53873 
        3.17308         43.5181         4.48276 
        3.18879         43.1154         4.42789 
        3.20447         42.6478         4.37402 
         3.2202         41.8988         4.32087 
         3.2359          41.557         4.26871 
        3.25157         41.0004         4.21753 
        3.26729         40.4831         4.16703 
        3.28304         40.0945         4.11726 
        3.29877          39.725         4.06837 
        3.31446         39.1366         4.02038 
        3.33014         38.6901         3.97321 
        3.34585         38.2105         3.92672 
        3.36158          37.837         3.88091 
        3.37727         37.4791         3.83597 
        3.39294         36.9253         3.79178 
        3.40867         36.6752         3.74813 
        3.42439         36.0964         3.70519 
        3.44008         35.7894         3.66301 
        3.45578         35.3703         3.62145 
        3.47153         34.9845         3.58045 
        3.48724         34.5639         3.54015 
        3.50292         34.3592         3.50057 
        3.51859         33.8218         3.46161 
        3.53431         33.4619         3.42312 
        3.55007         33.0219         3.38513 
        3.56577         32.7013         3.34786 
        3.58146         32.3567         3.31117 
        3.59719         32.0489         3.27494 
        3.61292         31.6402         3.23927 
        3.62859         31.4143         3.20426 
        3.64429         31.0689          3.1697 
        3.66003         30.6589         3.13555 
        3.67578         30.3252         3.10191 
        3.69146         30.1095         3.06889 
        3.70712         29.7022         3.03642 
        3.72284         29.3506         3.00429 
        3.73853         29.1119         2.97268 
        3.75422         28.8179         2.94152 
        3.76993         28.5147         2.91078 
        3.78564         28.2441         2.88048 
        3.80137         27.9238         2.85057 
        3.81707          27.584         2.82115 
        3.83279         27.2857         2.79212 
        3.84853         27.0811         2.76345 
        3.86424         26.7551         2.73524 
        3.87992         26.4852         2.70746 
        3.89561         26.3035         2.68007 
        3.91134         25.9317           2.653 
        3.92704         25.7353         2.62634 
        3.94273         25.4259         2.60007 
        3.95845         25.1408         2.57411 
        3.97418         24.8819         2.54849 
        3.98988         24.6813         2.52327 
        4.00554         24.3909         2.49845 
        4.02125         24.1715         2.47389 
        4.03698         23.9715         2.44963 
        4.05268         23.6621         2.42575 
        4.06839         23.4854         2.40216 
         4.0841         23.2383          2.3789 
        4.09983         23.0309         2.35592 
        4.11555         22.8467         2.33324 
        4.13124         22.4915         2.31093 
        4.14693         22.3451         2.28889 
        4.16266         22.1086         2.26709 
        4.17839         21.8663         2.24558 
        4.19408         21.6317          2.2244 
        4.20977         21.4895         2.20349 
        4.22551         21.2881         2.18279 
        4.24123         21.0472         2.16238 
        4.25691         20.8184         2.14229 
        4.27259         20.6272         2.12244 
        4.28831         20.4893         2.10281 
        4.30404         20.2737         2.08341 
        4.31974         20.0656         2.06429 
        4.33543          19.843         2.04543 
        4.35116         19.6852         2.02675 
        4.36688         19.4692         2.00832 
        4.38255         19.3489         1.99018 
        4.39825         19.1838         1.97223 
        4.41398         18.9882         1.95446 
         4.4297         18.7581         1.93693 
        4.44541         18.6429         1.91962 
        4.46111         18.4496         1.90254 
        4.47683         18.3099         1.88565 
        4.49251         18.1228         1.86899 
        4.50819         17.9439         1.85255 
         4.5239         17.7685         1.83628 
        4.53962         17.6098         1.82018 
        4.55535         17.4871         1.80427 
        4.57106         17.3035         1.78857 
        4.58678         17.1732         1.77305 
         4.6025         16.9961         1.75772 
        4.61821          16.848         1.74257 
        4.63391         16.6852         1.72762 
         4.6496         16.5643         1.71284 
        4.66532         16.3912         1.69822 
        4.68103         16.1935         1.68378 
        4.69673         16.1328         1.66952 
        4.71241         15.9603         1.65543 
        4.72811         15.8171         1.64149 
        4.74384         15.7127         1.62769 
        4.75955         15.5824         1.61406 
        4.77525         15.4346         1.60061 
        4.79096         15.2859         1.58728 
        4.80669         15.1399         1.57411 
         4.8224         15.0079          1.5611 
        4.83809         14.8824         1.54824 
        4.85379         14.7491         1.53553 
         4.8695         14.6299         1.52295 
        4.88521         14.4972         1.51051 
        4.90093         14.3624         1.49821 
        4.91663         14.2389         1.48606 
        4.93234         14.1276         1.47403 
        4.94807         14.0045         1.46213 
        4.96377         13.8875         1.45038 
        4.97943         13.7706         1.43878 
        4.99514         13.6671         1.42728 
        5.01086         13.5797          1.4159 
        5.02654         13.4443         1.40467 
        5.04227         13.2984         1.39353 
          5.058          13.173          1.3825 
        5.07371         13.0883         1.37162 
        5.08942         13.0001         1.36085 
        5.10513         12.8546         1.35019 
        5.12084         12.7617         1.33965 
        5.13656         12.6732         1.32922 
        5.15225         12.5751         1.31891 
        5.16796         12.4577          1.3087 
        5.18369         12.3512         1.29859 
         5.1994         12.2494         1.28861 
        5.21509         12.1434         1.27873 
        5.23079         12.0518         1.26895 
        5.24649         11.9665         1.25928 
        5.26217         11.8681         1.24972 
        5.27788         11.7766         1.24024 
        5.29359         11.6696         1.23086 
        5.30933         11.5549         1.22156 
        5.32504         11.4804         1.21238 
        5.34073         11.3821          1.2033 
        5.35646         11.2761         1.19429 
        5.37218         11.1989         1.18537 
        5.38789         11.1333         1.17656 
        5.40357         11.0438         1.16785 
        5.41929          10.945         1.15921 
        5.43502         10.8534         1.15065 
         5.4507         10.7802         1.14221 
        5.46639         10.6952         1.13384 
        5.48212         10.6183         1.12554 
        5.49786         10.5369         1.11731 
        5.51353          10.436          1.1092 
        5.52921         10.3494         1.10117 
        5.54495            10.3         1.09319 
        5.56066         10.1828         1.08531 
        5.57637         10.1072         1.07749 
        5.59207         10.0427         1.06977 
        5.60778         9.98823         1.06211 
        5.62346         9.87529         1.05455 
        5.63916         9.79443         1.04704 
        5.65487         9.72949         1.03961 
         5.6706         9.66677         1.03224 
        5.68633         9.58604         1.02494 
        5.70203         9.52812         1.01773 
        5.71773         9.44442         1.01058 
        5.73344         9.36747          1.0035 
        5.74916          9.3012        0.996482 
        5.76486         9.23697         0.98954 
        5.78054         9.15584        0.982675 
        5.79626         9.11641        0.975856 
          5.812         9.03229        0.969095 
         5.8277         8.95169        0.962417 
        5.84339         8.90574        0.955803 
        5.85911         8.82377        0.949237 
        5.87484         8.76647        0.942735 
        5.89053         8.69618        0.936306 
        5.90623         8.64052        0.929934 
        5.92195         8.56455        0.923611 
        5.93767         8.51114        0.917349 
        5.95336         8.44208        0.911156 
        5.96905         8.38139        0.905023 
        5.98476         8.34152        0.898937 
        6.00048         8.26917        0.892905 
        6.01617         8.19697        0.886937 
        6.03185          8.1584         0.88103 
        6.04756          8.1032        0.875163 
        6.06331         8.02711        0.869337 
        6.07903         7.95147        0.863577 
        6.09473         7.90742        0.857873 
        6.11044         7.85929        0.852216 
        6.12616         7.80899        0.846611 
        6.14186         7.73449        0.841062 
        6.15755         7.68409        0.835563 
        6.17326          7.6463        0.830109 
        6.18898         7.57496          0.8247 
        6.20467         7.51089         0.81935 
        6.22036         7.47695        0.814048 
         6.2361         7.41135        0.808778 
         6.2518         7.35731        0.803563 
        6.26748         7.32096        0.798406 
        6.28319         7.27175        0.793279 
        6.29893         7.22185        0.788194 
        6.31463         7.16825        0.783161 
        6.33033         7.10051        0.778174 
        6.34604         7.07176        0.773227 
        6.36177         7.02739        0.768318 
        6.37747          6.9751        0.763461 
