# k  (h/Mpc)    Pcb(k)  (Mpc/h)^3    Pcb_linear(k) (Mpc/h)^3   ShotnoiseSubtracted = true
      0.0200456         192.449         194.941 
      0.0350414         140.397         139.259 
      0.0492313         101.316           100.9 
      0.0637834         83.6003         84.0347 
      0.0800726          65.518         65.9147 
       0.096163         47.8885         47.4038 
       0.111083         38.5699         38.1473 
       0.126058         33.7758         33.9397 
       0.142273         28.1849         28.3457 
       0.158546         22.3276         22.2558 
        0.17375         19.0985         18.9671 
       0.188953         17.2138         17.2301 
       0.204907         14.8827         15.0687 
       0.220756         12.6862         12.6781 
        0.23588         11.1227         11.1222 
         0.2514         10.1382         10.1488 
       0.267535          9.1145         9.11221 
       0.283568         8.00678         7.99519 
       0.299022         7.17151         7.15815 
       0.314451         6.63031         6.56647 
       0.330372         6.01876         6.00029 
       0.346141         5.44631         5.42496 
       0.361624         4.94928         4.93961 
       0.377134         4.55376         4.55725 
       0.392932         4.27625         4.21109 
       0.408854         3.87731         3.87185 
       0.424564         3.61862         3.56962 
       0.440253         3.33539         3.31441 
       0.455999         3.08236         3.08708 
       0.471626         2.87253         2.87481 
        0.48727         2.70912         2.67945 
       0.502856         2.53748          2.5065 
       0.518488         2.34941         2.35069 
       0.534347         2.19393         2.20445 
       0.550082         2.08582            2.07 
       0.565732         1.98057         1.94825 
       0.581496         1.85254         1.83644 
       0.597222         1.74607         1.73339 
       0.612804          1.6482         1.63857 
       0.628434         1.56084         1.55057 
       0.644267         1.48432         1.46843 
       0.660051         1.40875         1.39255 
       0.675724         1.33006         1.32247 
       0.691403          1.2648         1.25714 
       0.707174         1.20354         1.19586 
       0.722871         1.16311         1.13891 
        0.73838         1.09147         1.08628 
       0.754018         1.04133         1.03658 
       0.769845        0.987638        0.989449 
        0.78569         0.95287        0.945213 
       0.801365        0.913795        0.904126 
       0.817031        0.875811        0.865522 
       0.832809        0.833926         0.82894 
       0.848511        0.801661        0.794647 
       0.864097        0.772361         0.76254 
       0.879701        0.745205        0.732185 
       0.895507        0.707383        0.703132 
       0.911279        0.684393        0.675724 
        0.92691        0.662992        0.650011 
       0.942635        0.630128        0.625499 
       0.958396        0.609407        0.602205 
       0.974128        0.587484        0.580145 
       0.989692        0.566198        0.559412 
        1.00528        0.543484        0.539666 
        1.02113        0.529652        0.520567 
        1.03692        0.512132        0.502467 
        1.05264        0.491185        0.485314 
        1.06832        0.475697        0.468992 
        1.08405        0.457649         0.45338 
        1.09979        0.445186        0.438472 
        1.11537        0.427749        0.424385 
        1.13105        0.412679        0.410836 
        1.14679        0.402323        0.397828 
        1.16256        0.391001         0.38536 
        1.17828        0.379318         0.37347 
        1.19395        0.367449        0.362123 
         1.2097        0.355315        0.351192 
        1.22537        0.343601        0.340766 
          1.241        0.333983        0.330797 
        1.25666        0.326543        0.321204 
        1.27241         0.31555        0.311947 
        1.28819        0.305642         0.30304 
        1.30392        0.298603        0.294509 
        1.31957        0.289452        0.286345 
        1.33529        0.282233        0.278461 
        1.35108        0.273203        0.270845 
        1.36674        0.266484        0.263568 
         1.3824        0.259667        0.256566 
        1.39811         0.25148        0.249796 
        1.41389        0.246534        0.243245 
        1.42964        0.239579        0.236941 
        1.44531        0.232865        0.230892 
        1.46101        0.226394        0.225042 
        1.47667         0.22135        0.219412 
        1.49229        0.215666         0.21399 
        1.50793         0.21092        0.208746 
        1.52367         0.20494        0.203645 
        1.53953        0.199625         0.19868 
        1.55526        0.195069        0.193921 
        1.57092        0.191617        0.189338 
        1.58662        0.186719        0.184892 
        1.60235        0.182274        0.180581 
        1.61809        0.177397        0.176405 
        1.63369        0.173095        0.172399 
        1.64941        0.169576        0.168489 
        1.66519        0.166102        0.164686 
        1.68085        0.161576        0.161028 
        1.69652        0.158297         0.15748 
        1.71228        0.154344         0.15402 
        1.72806        0.151725         0.15066 
        1.74368        0.148072        0.147435 
        1.75933        0.145148        0.144298 
        1.77505        0.142366        0.141238 
        1.79081        0.138582        0.138261 
         1.8065        0.136209        0.135383 
        1.82218        0.132611         0.13259 
        1.83797        0.129724        0.129856 
        1.85367        0.127269        0.127215 
        1.86928        0.124203        0.124664 
        1.88497        0.121846        0.122168 
        1.90073        0.119191        0.119732 
        1.91647        0.117685        0.117364 
        1.93218        0.115825        0.115066 
        1.94787        0.112353        0.112832 
        1.96363        0.110378        0.110649 
        1.97935        0.108185        0.108529 
        1.99499        0.106059        0.106476 
        2.01064         0.10395        0.104473 
         2.0264        0.102378         0.10251 
        2.04216        0.100006        0.100598 
        2.05781       0.0980342       0.0987463 
        2.07353       0.0964374       0.0969351 
        2.08928       0.0948295       0.0951655 
        2.10499       0.0927414       0.0934448 
        2.12065       0.0911394       0.0917719 
        2.13633       0.0895208       0.0901386 
        2.15211       0.0880879       0.0885345 
        2.16785       0.0859394        0.086974 
        2.18349       0.0846583       0.0854609 
        2.19916       0.0829242       0.0839807 
        2.21489       0.0814484       0.0825307 
        2.23063       0.0802912        0.081114 
         2.2463       0.0789262        0.079737 
        2.26194       0.0775731       0.0783954 
        2.27765       0.0762735       0.0770778 
        2.29341       0.0745436       0.0757871 
        2.30914       0.0733753       0.0745286 
        2.32486       0.0721329       0.0732995 
        2.34061       0.0708894        0.072096 
        2.35635       0.0697615       0.0709207 
        2.37203       0.0692109       0.0697756 
        2.38768       0.0677492       0.0686583 
        2.40339       0.0665016       0.0675614 
        2.41914       0.0653099       0.0664859 
        2.43483        0.064545       0.0654376 
         2.4505       0.0633197       0.0644137 
        2.46622       0.0621994       0.0634083 
        2.48195       0.0612827       0.0624242 
        2.49759       0.0602043       0.0614663 
        2.51328       0.0589487        0.060526 
        2.52906       0.0583827       0.0595995 
        2.54479       0.0575104       0.0586958 
        2.56049       0.0564483       0.0578126 
        2.57618       0.0557739       0.0569484 
        2.59189        0.054613       0.0561005 
        2.60758       0.0540605       0.0552713 
        2.62325       0.0529932       0.0544598 
        2.63898       0.0524225       0.0536618 
        2.65468       0.0513849       0.0528815 
        2.67044        0.050725       0.0521134 
        2.68618        0.049904       0.0513623 
        2.70184       0.0493819        0.050629 
        2.71755       0.0485344       0.0499082 
        2.73329       0.0478751       0.0492003 
        2.74897       0.0471958       0.0485085 
        2.76462       0.0463366       0.0478316 
        2.78034       0.0457593       0.0471647 
        2.79607       0.0451958       0.0465099 
        2.81179       0.0443649       0.0458683 
        2.82749       0.0438922       0.0452395 
        2.84321        0.043129       0.0446217 
        2.85893       0.0425417       0.0440158 
        2.87462       0.0419834       0.0434221 
        2.89033       0.0413536       0.0428388 
        2.90605       0.0408323       0.0422657 
        2.92176       0.0404221       0.0417034 
        2.93747       0.0396759       0.0411517 
        2.95318       0.0392804       0.0406098 
        2.96891        0.038641       0.0400774 
        2.98456       0.0380642       0.0395569 
        3.00023       0.0378076       0.0390449 
        3.01596       0.0370438       0.0385404 
        3.03164        0.036639       0.0380462 
        3.04738       0.0361523       0.0375593 
         3.0631        0.035511        0.037081 
        3.07883       0.0352286       0.0366111 
        3.09456       0.0347804       0.0361493 
        3.11026       0.0342783       0.0356963 
        3.12596       0.0340301       0.0352511 
        3.14163       0.0334497       0.0348145 
        3.15734       0.0331676       0.0343842 
        3.17308       0.0326886       0.0339602 
        3.18879       0.0322496       0.0335445 
        3.20447       0.0317533       0.0331364 
         3.2202       0.0314726       0.0327338 
         3.2359       0.0310774       0.0323386 
        3.25157       0.0306996       0.0319509 
        3.26729       0.0303438       0.0315683 
        3.28304       0.0300304       0.0311913 
        3.29877       0.0296415       0.0308209 
        3.31446       0.0292232       0.0304574 
        3.33014        0.028973          0.0301 
        3.34585       0.0286059       0.0297478 
        3.36158       0.0282452       0.0294008 
        3.37727       0.0278796       0.0290603 
        3.39294       0.0276382       0.0287256 
        3.40867       0.0273861       0.0283949 
        3.42439       0.0270574       0.0280696 
        3.44008       0.0268113         0.02775 
        3.45578       0.0264576       0.0274352 
        3.47153        0.026253       0.0271246 
        3.48724       0.0259215       0.0268193 
        3.50292        0.025776       0.0265194 
        3.51859       0.0254231       0.0262243 
        3.53431       0.0250572       0.0259327 
        3.55007       0.0248806       0.0256449 
        3.56577       0.0246725       0.0253625 
        3.58146       0.0243514       0.0250845 
        3.59719       0.0241818       0.0248101 
        3.61292       0.0238858       0.0245398 
        3.62859       0.0236111       0.0242746 
        3.64429       0.0234746       0.0240128 
        3.66003       0.0232568       0.0237541 
        3.67578       0.0230445       0.0234993 
        3.69146       0.0228619       0.0232491 
        3.70712       0.0226497       0.0230031 
        3.72284       0.0224198       0.0227597 
        3.73853       0.0222467       0.0225203 
        3.75422       0.0219969       0.0222842 
        3.76993       0.0218665       0.0220513 
        3.78564       0.0216322       0.0218218 
        3.80137       0.0214913       0.0215952 
        3.81707       0.0212854       0.0213723 
        3.83279        0.021075       0.0211524 
        3.84853       0.0209145       0.0209352 
        3.86424       0.0208291       0.0207214 
        3.87992       0.0206693        0.020511 
        3.89561       0.0204284       0.0203035 
        3.91134       0.0203269       0.0200984 
        3.92704       0.0201264       0.0198964 
        3.94273       0.0199756       0.0196974 
        3.95845       0.0198145       0.0195008 
        3.97418       0.0197077       0.0193067 
        3.98988       0.0194266       0.0191156 
        4.00554       0.0193495       0.0189276 
        4.02125        0.019112       0.0187416 
        4.03698       0.0188519       0.0185578 
        4.05268        0.018634       0.0183768 
        4.06839       0.0183903       0.0181982 
         4.0841       0.0180969        0.018022 
        4.09983       0.0178545       0.0178478 
        4.11555        0.017645       0.0176761 
        4.13124       0.0173773        0.017507 
        4.14693       0.0171632         0.01734 
        4.16266       0.0169356       0.0171749 
        4.17839        0.016746       0.0170119 
        4.19408       0.0164971       0.0168515 
        4.20977       0.0163259        0.016693 
        4.22551       0.0161423       0.0165363 
        4.24123       0.0159533       0.0163816 
        4.25691       0.0158072       0.0162294 
        4.27259       0.0156119       0.0160791 
        4.28831       0.0155238       0.0159304 
        4.30404       0.0153015       0.0157834 
        4.31974       0.0152155       0.0156386 
        4.33543       0.0150757       0.0154956 
        4.35116       0.0149045       0.0153542 
        4.36688       0.0148702       0.0152145 
        4.38255       0.0147052       0.0150771 
        4.39825       0.0146931       0.0149411 
        4.41398       0.0145762       0.0148065 
         4.4297        0.014469       0.0146737 
        4.44541       0.0143477       0.0145426 
        4.46111       0.0142557       0.0144131 
        4.47683        0.014273       0.0142852 
        4.49251       0.0141646        0.014159 
        4.50819       0.0141581       0.0140344 
         4.5239       0.0140514       0.0139112 
        4.53962       0.0140224       0.0137892 
        4.55535       0.0139788       0.0136687 
        4.57106       0.0140144       0.0135497 
        4.58678       0.0139346       0.0134322 
         4.6025       0.0139446        0.013316 
        4.61821       0.0139413       0.0132013 
        4.63391       0.0139265        0.013088 
         4.6496       0.0139355       0.0129761 
        4.66532       0.0139096       0.0128653 
        4.68103       0.0139488       0.0127559 
        4.69673        0.013969       0.0126478 
        4.71241       0.0140391       0.0125411 
        4.72811       0.0140414       0.0124355 
        4.74384       0.0140862       0.0123309 
        4.75955        0.014123       0.0122277 
        4.77525       0.0141883       0.0121258 
        4.79096        0.014241       0.0120248 
        4.80669        0.014329        0.011925 
         4.8224       0.0143659       0.0118265 
        4.83809       0.0144671       0.0117291 
        4.85379       0.0146312       0.0116328 
         4.8695       0.0146444       0.0115375 
        4.88521       0.0147429       0.0114432 
        4.90093       0.0148077       0.0113501 
        4.91663       0.0149724        0.011258 
        4.93234       0.0151005       0.0111669 
        4.94807       0.0151868       0.0110767 
        4.96377       0.0153158       0.0109877 
        4.97943       0.0155806       0.0108998 
        4.99514       0.0156349       0.0108127 
        5.01086       0.0158199       0.0107265 
        5.02654       0.0159408       0.0106414 
        5.04227        0.016056        0.010557 
          5.058       0.0163066       0.0104735 
        5.07371       0.0164185        0.010391 
        5.08942       0.0166809       0.0103094 
        5.10513       0.0168407       0.0102287 
        5.12084       0.0170588       0.0101488 
        5.13656       0.0173024       0.0100698 
        5.15225       0.0175272      0.00999175 
        5.16796       0.0177691       0.0099144 
        5.18369       0.0179706       0.0098378 
         5.1994       0.0182217      0.00976215 
        5.21509       0.0184415      0.00968736 
        5.23079        0.018767      0.00961326 
        5.24649        0.019039         0.00954 
        5.26217       0.0193093      0.00946756 
        5.27788       0.0196357      0.00939576 
        5.29359       0.0198195      0.00932469 
        5.30933       0.0201728      0.00925426 
        5.32504       0.0205054      0.00918467 
        5.34073       0.0208697      0.00911587 
        5.35646       0.0212397      0.00904764 
        5.37218       0.0215738      0.00898009 
        5.38789       0.0218103      0.00891334 
        5.40357       0.0223055      0.00884735 
        5.41929       0.0227318      0.00878188 
        5.43502        0.023045      0.00871706 
         5.4507       0.0234377      0.00865305 
        5.46639         0.02392      0.00858968 
        5.48212        0.024317      0.00852679 
        5.49786       0.0248735      0.00846445 
        5.51353       0.0254578      0.00840305 
        5.52921       0.0256534      0.00834219 
        5.54495       0.0263002      0.00828176 
        5.56066       0.0268374      0.00822199 
        5.57637       0.0273306      0.00816282 
        5.59207       0.0278578      0.00810429 
        5.60778       0.0282844       0.0080463 
        5.62346       0.0289078      0.00798896 
        5.63916       0.0294333      0.00793213 
        5.65487       0.0301061      0.00787582 
         5.6706       0.0306638      0.00781999 
        5.68633       0.0314617      0.00776468 
        5.70203         0.03205      0.00771002 
        5.71773       0.0328052       0.0076559 
        5.73344       0.0331876      0.00760226 
        5.74916       0.0340369      0.00754909 
        5.76486       0.0349185       0.0074965 
        5.78054       0.0356937      0.00744449 
        5.79626       0.0362712      0.00739283 
          5.812       0.0372798      0.00734161 
         5.8277       0.0378241      0.00729102 
        5.84339       0.0387911      0.00724091 
        5.85911       0.0398012      0.00719117 
        5.87484       0.0404727      0.00714191 
        5.89053        0.041654      0.00709321 
        5.90623        0.042349      0.00704494 
        5.92195       0.0436424      0.00699703 
        5.93767       0.0446956       0.0069496 
        5.95336       0.0453518      0.00690268 
        5.96905       0.0465555      0.00685622 
        5.98476        0.047273      0.00681012 
        6.00048       0.0489646      0.00676442 
        6.01617       0.0498299      0.00671921 
        6.03185       0.0508643      0.00667446 
        6.04756       0.0523864      0.00663001 
        6.06331       0.0539004      0.00658587 
        6.07903       0.0548326      0.00654223 
        6.09473       0.0563716      0.00649902 
        6.11044       0.0578567      0.00645617 
        6.12616       0.0590843      0.00641371 
        6.14186       0.0604495      0.00637167 
        6.15755       0.0618578      0.00633001 
        6.17326       0.0634894      0.00628869 
        6.18898       0.0654567      0.00624772 
        6.20467       0.0673413      0.00620718 
        6.22036       0.0687099      0.00616701 
         6.2361       0.0705693      0.00612709 
         6.2518       0.0727374      0.00608758 
        6.26748       0.0735905      0.00604851 
        6.28319       0.0762756      0.00600968 
        6.29893       0.0776347      0.00597115 
        6.31463       0.0804202      0.00593303 
        6.33033       0.0821075      0.00589525 
        6.34604       0.0846066      0.00585777 
        6.36177       0.0861028      0.00582058 
        6.37747        0.088656      0.00578378 
