# k  (h/Mpc)    Pcb(k)  (Mpc/h)^3    Pcb_linear(k) (Mpc/h)^3   ShotnoiseSubtracted = true
      0.0200456         31828.9         27717.1 
      0.0350414         21542.5         19800.2 
      0.0492313         14767.7         14346.2 
      0.0637834         11667.8         11948.2 
      0.0800726         8627.03         9371.89 
       0.096163         6528.41         6739.97 
       0.111083         5807.21         5423.86 
       0.126058         5035.11         4825.62 
       0.142273         4321.88         4030.25 
       0.158546         3672.16         3164.37 
        0.17375         3126.32         2696.78 
       0.188953         2831.24         2449.81 
       0.204907         2498.06         2142.49 
       0.220756         2327.45         1802.59 
        0.23588         2091.56         1581.37 
         0.2514         1930.14         1442.97 
       0.267535         1824.54         1295.59 
       0.283568         1712.59         1136.77 
       0.299022         1562.46         1017.76 
       0.314451         1501.62         933.634 
       0.330372          1365.7         853.134 
       0.346141         1336.16         771.332 
       0.361624         1273.68         702.325 
       0.377134         1217.53         647.959 
       0.392932         1112.74         598.741 
       0.408854         1093.28         550.507 
       0.424564          1025.6         507.536 
       0.440253         1022.13          471.25 
       0.455999          981.69         438.927 
       0.471626         940.925         408.746 
        0.48727         906.942         380.969 
       0.502856         875.056          356.38 
       0.518488         844.002         334.226 
       0.534347         819.691         313.433 
       0.550082         792.658         294.317 
       0.565732          774.07         277.006 
       0.581496         742.278         261.108 
       0.597222         730.298         246.457 
       0.612804         709.068         232.975 
       0.628434         695.979         220.463 
       0.644267         665.877         208.784 
       0.660051         651.812         197.996 
       0.675724         641.552         188.031 
       0.691403         610.745         178.743 
       0.707174         604.557          170.03 
       0.722871         592.757         161.933 
        0.73838         571.698         154.449 
       0.754018         565.992         147.383 
       0.769845         554.292         140.682 
        0.78569          538.83         134.392 
       0.801365         523.869         128.551 
       0.817031         511.962         123.062 
       0.832809         503.092          117.86 
       0.848511         489.577         112.985 
       0.864097         484.101         108.419 
       0.879701          473.58         104.104 
       0.895507         465.438         99.9728 
       0.911279         448.361         96.0758 
        0.92691         444.314         92.4198 
       0.942635         433.748         88.9348 
       0.958396         426.771         85.6228 
       0.974128           418.5         82.4862 
       0.989692         406.869         79.5383 
        1.00528         402.617         76.7308 
        1.02113          396.54         74.0152 
        1.03692         384.125         71.4417 
        1.05264         375.084         69.0029 
        1.06832         366.818         66.6822 
        1.08405         362.619         64.4625 
        1.09979          354.79         62.3429 
        1.11537         345.799           60.34 
        1.13105         346.224         58.4135 
        1.14679          332.43          56.564 
        1.16256          329.05         54.7913 
        1.17828         319.219         53.1007 
        1.19395         318.323         51.4874 
         1.2097         311.166         49.9332 
        1.22537         304.817         48.4509 
          1.241          297.16         47.0334 
        1.25666          291.66         45.6694 
        1.27241         285.859         44.3532 
        1.28819         282.625         43.0869 
        1.30392         279.062         41.8739 
        1.31957          274.42         40.7131 
        1.33529         266.426         39.5922 
        1.35108         263.488         38.5092 
        1.36674         259.965         37.4746 
         1.3824          256.61         36.4791 
        1.39811         248.946         35.5165 
        1.41389         245.845         34.5851 
        1.42964         240.163         33.6888 
        1.44531         235.779         32.8287 
        1.46101         232.468         31.9969 
        1.47667         228.414         31.1964 
        1.49229         223.643         30.4256 
        1.50793         220.388           29.68 
        1.52367          216.97         28.9546 
        1.53953         212.725         28.2487 
        1.55526         209.765         27.5721 
        1.57092         206.377         26.9204 
        1.58662         201.854         26.2883 
        1.60235         198.481         25.6753 
        1.61809         197.019         25.0816 
        1.63369         192.568          24.512 
        1.64941         190.052         23.9561 
        1.66519         184.963         23.4154 
        1.68085         182.852         22.8953 
        1.69652         179.984         22.3909 
        1.71228         176.809         21.8988 
        1.72806         174.525         21.4212 
        1.74368         170.715         20.9626 
        1.75933         168.121         20.5166 
        1.77505         166.215         20.0815 
        1.79081         163.268         19.6583 
         1.8065         161.096         19.2491 
        1.82218          158.38         18.8519 
        1.83797         155.682         18.4633 
        1.85367         152.016         18.0877 
        1.86928         150.998         17.7249 
        1.88497         148.723         17.3701 
        1.90073         145.678         17.0237 
        1.91647         144.626         16.6871 
        1.93218         141.023         16.3603 
        1.94787         139.616         16.0427 
        1.96363         137.889         15.7324 
        1.97935         135.382         15.4309 
        1.99499         134.313          15.139 
        2.01064         131.925         14.8542 
         2.0264         129.763          14.575 
        2.04216         127.538         14.3032 
        2.05781         125.532         14.0399 
        2.07353         124.011         13.7824 
        2.08928         121.906         13.5308 
        2.10499         120.456         13.2862 
        2.12065         118.295         13.0483 
        2.13633         116.356         12.8161 
        2.15211         115.267          12.588 
        2.16785         113.533         12.3661 
        2.18349         111.717          12.151 
        2.19916         110.413         11.9406 
        2.21489         108.088         11.7344 
        2.23063          107.14          11.533 
         2.2463         105.507         11.3372 
        2.26194         103.819         11.1464 
        2.27765         101.757         10.9591 
        2.29341         100.935         10.7756 
        2.30914         99.3661         10.5966 
        2.32486         97.8979         10.4219 
        2.34061         96.8074         10.2508 
        2.35635          95.474         10.0836 
        2.37203         94.4333         9.92084 
        2.38768         92.5921         9.76197 
        2.40339         91.4499         9.60601 
        2.41914         89.8286          9.4531 
        2.43483         88.7645         9.30406 
         2.4505         87.7914         9.15848 
        2.46622         86.5864         9.01552 
        2.48195         85.4136          8.8756 
        2.49759         84.4305         8.73941 
        2.51328         82.9555         8.60571 
        2.52906         82.1378         8.47398 
        2.54479         80.9392         8.34549 
        2.56049         79.9231         8.21992 
        2.57618         79.0454         8.09704 
        2.59189         77.4037         7.97649 
        2.60758         76.8068         7.85858 
        2.62325         75.5098         7.74321 
        2.63898         74.4996         7.62975 
        2.65468         73.6361          7.5188 
        2.67044         72.6251         7.40958 
        2.68618         71.4593         7.30279 
        2.70184          70.838         7.19853 
        2.71755         69.7181         7.09605 
        2.73329         69.0547          6.9954 
        2.74897         68.1086         6.89704 
        2.76462         67.2365         6.80079 
        2.78034         66.4255         6.70598 
        2.79607         65.5356         6.61287 
        2.81179         64.5703         6.52164 
        2.82749          63.753         6.43224 
        2.84321         63.0926         6.34441 
        2.85893         62.1326         6.25825 
        2.87462         61.3373         6.17384 
        2.89033         60.6435         6.09091 
        2.90605         59.8441         6.00943 
        2.92176         59.1618         5.92948 
        2.93747         58.3991         5.85103 
        2.95318         57.7644         5.77398 
        2.96891         57.0496         5.69828 
        2.98456         56.1307         5.62428 
        3.00023          55.747         5.55148 
        3.01596         55.1334         5.47975 
        3.03164         54.1912         5.40949 
        3.04738         53.7228         5.34025 
         3.0631         52.7539         5.27225 
        3.07883         52.4084         5.20544 
        3.09456         51.9728         5.13979 
        3.11026          51.081         5.07537 
        3.12596         50.5793         5.01207 
        3.14163         50.0221         4.94999 
        3.15734         49.7014         4.88882 
        3.17308         49.0361         4.82853 
        3.18879         48.3621         4.76943 
        3.20447         47.7177          4.7114 
         3.2202          47.409         4.65416 
         3.2359         46.6971         4.59797 
        3.25157         46.1296         4.54284 
        3.26729         45.6895         4.48845 
        3.28304         45.0987         4.43485 
        3.29877         44.5357         4.38218 
        3.31446         43.9574         4.33049 
        3.33014         43.6324         4.27968 
        3.34585         43.0997         4.22961 
        3.36158         42.6187         4.18026 
        3.37727         42.1643         4.13185 
        3.39294         41.6198         4.08426 
        3.40867         41.2045         4.03724 
        3.42439         40.8761         3.99099 
        3.44008         40.2507         3.94556 
        3.45578         39.7772         3.90079 
        3.47153         39.4863         3.85663 
        3.48724         39.1764         3.81322 
        3.50292         38.4921         3.77059 
        3.51859         38.1865         3.72862 
        3.53431         37.8688         3.68716 
        3.55007         37.2925         3.64624 
        3.56577         36.9529         3.60609 
        3.58146         36.5718         3.56657 
        3.59719         36.2862         3.52755 
        3.61292         35.6296         3.48913 
        3.62859         35.2271         3.45142 
        3.64429         34.9827         3.41419 
        3.66003         34.6855         3.37741 
        3.67578         34.1615         3.34118 
        3.69146         33.9384         3.30561 
        3.70712         33.4895         3.27063 
        3.72284          33.093         3.23602 
        3.73853         32.8546         3.20198 
        3.75422          32.431         3.16841 
        3.76993         32.1612          3.1353 
        3.78564          31.679         3.10267 
        3.80137         31.4535         3.07045 
        3.81707         31.1187         3.03876 
        3.83279         30.8092         3.00749 
        3.84853          30.562          2.9766 
        3.86424         30.2642         2.94622 
        3.87992         29.8426          2.9163 
        3.89561         29.5524         2.88679 
        3.91134          29.326         2.85764 
        3.92704         28.9133         2.82892 
        3.94273         28.7415         2.80062 
        3.95845         28.4335         2.77266 
        3.97418         28.1601         2.74507 
        3.98988         27.8473          2.7179 
        4.00554         27.5725         2.69116 
        4.02125         27.2317         2.66472 
        4.03698         27.0496         2.63858 
        4.05268         26.7897         2.61286 
        4.06839         26.4903         2.58745 
         4.0841          26.222          2.5624 
        4.09983         25.9616         2.53764 
        4.11555         25.7326         2.51322 
        4.13124         25.3986         2.48918 
        4.14693         25.1931         2.46544 
        4.16266         25.0156         2.44196 
        4.17839         24.7153         2.41879 
        4.19408         24.5024         2.39598 
        4.20977         24.2351         2.37345 
        4.22551         24.0852         2.35116 
        4.24123         23.8461         2.32918 
        4.25691         23.5377         2.30753 
        4.27259         23.3629         2.28616 
        4.28831         23.1827         2.26501 
        4.30404         22.8996         2.24411 
        4.31974         22.6764         2.22352 
        4.33543         22.4551          2.2032 
        4.35116         22.2586         2.18309 
        4.36688           22.07         2.16323 
        4.38255         21.8608         2.14369 
        4.39825         21.6042         2.12436 
        4.41398         21.5111         2.10522 
         4.4297         21.2525         2.08634 
        4.44541         21.0459         2.06769 
        4.46111         20.8603         2.04929 
        4.47683         20.6645         2.03109 
        4.49251         20.4766         2.01316 
        4.50819         20.2827         1.99544 
         4.5239         20.1098         1.97792 
        4.53962         19.9888         1.96058 
        4.55535         19.7466         1.94344 
        4.57106         19.5941         1.92653 
        4.58678         19.3845         1.90982 
         4.6025         19.2603          1.8933 
        4.61821         19.0267         1.87698 
        4.63391         18.9077         1.86087 
         4.6496          18.732         1.84496 
        4.66532         18.6011         1.82921 
        4.68103         18.3328         1.81366 
        4.69673         18.2277         1.79829 
        4.71241         18.0733         1.78312 
        4.72811         17.9205          1.7681 
        4.74384         17.7352         1.75324 
        4.75955         17.6231         1.73856 
        4.77525         17.4226         1.72407 
        4.79096         17.2919         1.70972 
        4.80669         17.1175         1.69552 
         4.8224         16.9607         1.68151 
        4.83809          16.801         1.66767 
        4.85379          16.662         1.65397 
         4.8695         16.5656         1.64042 
        4.88521          16.388         1.62702 
        4.90093          16.229         1.61378 
        4.91663         16.1229         1.60069 
        4.93234         16.0193         1.58773 
        4.94807         15.8543         1.57491 
        4.96377         15.7452         1.56225 
        4.97943         15.5777         1.54976 
        4.99514         15.4401         1.53737 
        5.01086         15.3362         1.52511 
        5.02654         15.1785         1.51302 
        5.04227         15.0514         1.50102 
          5.058         14.9489         1.48914 
        5.07371         14.8412         1.47742 
        5.08942         14.6904         1.46582 
        5.10513          14.558         1.45434 
        5.12084         14.4475         1.44298 
        5.13656         14.3086         1.43174 
        5.15225         14.2108         1.42065 
        5.16796         14.1078         1.40965 
        5.18369          13.963         1.39876 
         5.1994         13.8877           1.388 
        5.21509         13.7742         1.37737 
        5.23079         13.6202         1.36683 
        5.24649         13.5254         1.35642 
        5.26217         13.4075         1.34612 
        5.27788         13.3108         1.33591 
        5.29359         13.2107          1.3258 
        5.30933         13.1066         1.31579 
        5.32504         12.9789         1.30589 
        5.34073         12.9099         1.29611 
        5.35646         12.7905         1.28641 
        5.37218         12.6696         1.27681 
        5.38789         12.6169         1.26732 
        5.40357         12.4865         1.25793 
        5.41929         12.3881         1.24863 
        5.43502          12.275         1.23941 
         5.4507         12.1788         1.23031 
        5.46639          12.089          1.2213 
        5.48212         11.9856         1.21236 
        5.49786         11.9061         1.20349 
        5.51353         11.8266         1.19476 
        5.52921         11.7019         1.18611 
        5.54495         11.6063         1.17752 
        5.56066         11.5452         1.16902 
        5.57637          11.454         1.16061 
        5.59207         11.3801         1.15228 
        5.60778         11.2898         1.14404 
        5.62346         11.1946         1.13589 
        5.63916         11.1092         1.12781 
        5.65487         11.0235          1.1198 
         5.6706         10.9642         1.11186 
        5.68633         10.8564           1.104 
        5.70203         10.7471         1.09623 
        5.71773         10.6811         1.08853 
        5.73344         10.6084         1.08091 
        5.74916         10.5385         1.07335 
        5.76486         10.4477         1.06587 
        5.78054         10.3892         1.05847 
        5.79626         10.2829         1.05113 
          5.812         10.2187         1.04385 
         5.8277         10.1495         1.03665 
        5.84339         10.0782         1.02953 
        5.85911         9.98701         1.02246 
        5.87484         9.91571         1.01545 
        5.89053         9.85951         1.00853 
        5.90623         9.78481         1.00166 
        5.92195         9.69371        0.994853 
        5.93767         9.60534        0.988108 
        5.95336         9.56554        0.981438 
        5.96905         9.48661        0.974831 
        5.98476         9.41975        0.968276 
        6.00048         9.34766        0.961779 
        6.01617         9.27382         0.95535 
        6.03185         9.21904        0.948988 
        6.04756         9.13496        0.942668 
        6.06331         9.05719        0.936393 
        6.07903         9.00643        0.930188 
        6.09473          8.9615        0.924044 
        6.11044         8.89256        0.917951 
        6.12616         8.81238        0.911914 
        6.14186         8.75405        0.905937 
        6.15755         8.69465        0.900013 
        6.17326         8.62632        0.894138 
        6.18898         8.56906        0.888313 
        6.20467         8.51457         0.88255 
        6.22036            8.45        0.876838 
         6.2361          8.3864        0.871162 
         6.2518         8.34675        0.865545 
        6.26748         8.27471         0.85999 
        6.28319         8.21361        0.854468 
        6.29893         8.14341         0.84899 
        6.31463         8.10068         0.84357 
        6.33033         8.05082        0.838198 
        6.34604         7.98557        0.832869 
        6.36177          7.9347        0.827582 
        6.37747         7.86796         0.82235 
