# k  (h/Mpc)    Pcb(k)  (Mpc/h)^3    Pcb_linear(k) (Mpc/h)^3   ShotnoiseSubtracted = true
      0.0200456         19099.6         19423.7 
      0.0350414         14310.3         13875.6 
      0.0492313            9872         10053.6 
      0.0637834         7971.31         8373.12 
      0.0800726         6199.86         6567.67 
       0.096163         4914.83         4723.26 
       0.111083         4021.74         3800.95 
       0.126058         3335.27         3381.72 
       0.142273         2882.96         2824.34 
       0.158546         2357.22         2217.54 
        0.17375         2099.55         1889.86 
       0.188953         1978.29         1716.79 
       0.204907         1689.63         1501.42 
       0.220756         1519.35         1263.23 
        0.23588          1355.8          1108.2 
         0.2514         1220.09         1011.21 
       0.267535         1177.78          907.93 
       0.283568         1040.48         796.631 
       0.299022         991.529          713.23 
       0.314451         1024.79         654.276 
       0.330372         891.271         597.862 
       0.346141         817.883         540.537 
       0.361624         783.241         492.178 
       0.377134         746.072         454.079 
       0.392932         712.681         419.588 
       0.408854          679.76         385.787 
       0.424564         661.197         355.673 
       0.440253         606.075         330.244 
       0.455999         578.036         307.593 
       0.471626         587.566         286.443 
        0.48727         552.473         266.977 
       0.502856         520.757         249.745 
       0.518488         509.682          234.22 
       0.534347         481.921         219.649 
       0.550082         459.396         206.253 
       0.565732         453.391         194.121 
       0.581496         440.975         182.981 
       0.597222          428.53         172.713 
       0.612804         417.102         163.265 
       0.628434         398.533         154.497 
       0.644267         384.197         146.312 
       0.660051         378.403         138.753 
       0.675724         369.406         131.769 
       0.691403         360.078          125.26 
       0.707174         345.716         119.155 
       0.722871         339.478          113.48 
        0.73838         332.905         108.236 
       0.754018          320.77         103.283 
       0.769845         317.074         98.5876 
        0.78569         309.437           94.18 
       0.801365         297.842         90.0861 
       0.817031         294.836         86.2397 
       0.832809         288.306         82.5947 
       0.848511         281.496         79.1777 
       0.864097         273.329         75.9786 
       0.879701         270.204         72.9541 
       0.895507         261.074         70.0593 
       0.911279         255.184         67.3284 
        0.92691         251.923         64.7663 
       0.942635         248.691          62.324 
       0.958396         240.033         60.0031 
       0.974128         236.854          57.805 
       0.989692         227.191         55.7392 
        1.00528         226.099         53.7717 
        1.02113         222.116         51.8687 
        1.03692         216.209         50.0652 
        1.05264         212.224         48.3561 
        1.06832         209.877         46.7298 
        1.08405         204.347         45.1743 
        1.09979         201.763         43.6889 
        1.11537          196.36         42.2853 
        1.13105         192.695         40.9352 
        1.14679         190.246         39.6391 
        1.16256         187.296         38.3969 
        1.17828         183.978         37.2121 
        1.19395         178.369         36.0815 
         1.2097         177.729         34.9924 
        1.22537         174.821         33.9536 
          1.241          169.24         32.9603 
        1.25666         167.615         32.0044 
        1.27241         164.277          31.082 
        1.28819         161.299         30.1946 
        1.30392         159.013         29.3445 
        1.31957         154.521         28.5311 
        1.33529         151.618         27.7456 
        1.35108         150.558         26.9866 
        1.36674         146.377         26.2616 
         1.3824         144.767          25.564 
        1.39811         142.732         24.8894 
        1.41389         138.738         24.2367 
        1.42964         136.816         23.6086 
        1.44531         135.211         23.0058 
        1.46101         132.255         22.4229 
        1.47667          130.45          21.862 
        1.49229         128.117         21.3218 
        1.50793         125.632         20.7993 
        1.52367         124.029          20.291 
        1.53953         120.793         19.7963 
        1.55526         119.989         19.3221 
        1.57092         118.577         18.8654 
        1.58662         115.274         18.4224 
        1.60235         114.164         17.9929 
        1.61809         111.572         17.5768 
        1.63369         109.643         17.1776 
        1.64941          108.53          16.788 
        1.66519         106.761         16.4091 
        1.68085         104.643         16.0447 
        1.69652          102.97         15.6912 
        1.71228         101.274         15.3463 
        1.72806         100.164         15.0116 
        1.74368         98.5264         14.6903 
        1.75933          97.393         14.3777 
        1.77505          95.631         14.0728 
        1.79081         93.5256         13.7762 
         1.8065         91.9457         13.4894 
        1.82218         90.4468         13.2111 
        1.83797         89.6654         12.9388 
        1.85367         88.3147         12.6756 
        1.86928         86.9808         12.4213 
        1.88497         85.5873         12.1727 
        1.90073         84.6718         11.9299 
        1.91647         83.0632          11.694 
        1.93218         81.9603          11.465 
        1.94787         80.2602         11.2425 
        1.96363         79.6748          11.025 
        1.97935         78.4571         10.8137 
        1.99499         77.5213         10.6091 
        2.01064         75.6629         10.4096 
         2.0264         74.8648         10.2139 
        2.04216         73.4553         10.0234 
        2.05781         72.4829         9.83897 
        2.07353          71.482         9.65851 
        2.08928         70.4819         9.48218 
        2.10499         69.5453         9.31074 
        2.12065          68.739         9.14405 
        2.13633         67.7664         8.98131 
        2.15211         66.5821         8.82148 
        2.16785         65.5117         8.66599 
        2.18349         64.4768         8.51523 
        2.19916         63.7296         8.36775 
        2.21489         62.9339         8.22327 
        2.23063         61.7044         8.08211 
         2.2463         61.0489          7.9449 
        2.26194         60.2849         7.81123 
        2.27765         59.2583         7.67994 
        2.29341         58.4362         7.55134 
        2.30914         57.6374         7.42595 
        2.32486         56.5331         7.30348 
        2.34061          56.132         7.18357 
        2.35635         55.1686         7.06646 
        2.37203         54.2323         6.95237 
        2.38768         53.6206         6.84103 
        2.40339         53.1727         6.73174 
        2.41914         52.0852         6.62458 
        2.43483         51.5998         6.52013 
         2.4505         50.8137         6.41811 
        2.46622         50.2316         6.31793 
        2.48195         49.4668         6.21988 
        2.49759         48.7458         6.12443 
        2.51328         47.9579         6.03075 
        2.52906         47.1823         5.93843 
        2.54479         46.7669         5.84838 
        2.56049         46.0489         5.76038 
        2.57618         45.3951         5.67427 
        2.59189         44.9417         5.58979 
        2.60758         44.0259         5.50717 
        2.62325         43.6788         5.42631 
        2.63898         43.1699          5.3468 
        2.65468         42.6379         5.26905 
        2.67044         42.0519         5.19252 
        2.68618         41.5742         5.11768 
        2.70184         40.9096         5.04462 
        2.71755         40.3691          4.9728 
        2.73329         39.7857         4.90227 
        2.74897         39.4826         4.83334 
        2.76462         38.9324         4.76588 
        2.78034         38.4942         4.69944 
        2.79607         37.8896         4.63419 
        2.81179         37.5227         4.57026 
        2.82749         37.0591         4.50761 
        2.84321         36.6557         4.44606 
        2.85893         36.1571         4.38568 
        2.87462         35.6489         4.32653 
        2.89033         35.2072         4.26841 
        2.90605         34.7346         4.21131 
        2.92176          34.395         4.15528 
        2.93747         33.9434         4.10031 
        2.95318         33.5537         4.04631 
        2.96891         33.0777         3.99326 
        2.98456         32.7265          3.9414 
        3.00023         32.1973         3.89039 
        3.01596          31.884         3.84012 
        3.03164         31.5826         3.79088 
        3.04738         31.1308         3.74236 
         3.0631         30.6358         3.69471 
        3.07883         30.3639         3.64789 
        3.09456         29.9534         3.60188 
        3.11026         29.6524         3.55674 
        3.12596         29.3073         3.51238 
        3.14163          28.893         3.46887 
        3.15734         28.5467         3.42601 
        3.17308         28.2119         3.38376 
        3.18879         27.9449         3.34234 
        3.20447         27.7026         3.30167 
         3.2202         27.2255         3.26156 
         3.2359         26.9463         3.22218 
        3.25157         26.6965         3.18355 
        3.26729         26.3225         3.14543 
        3.28304         26.0773         3.10787 
        3.29877         25.7495         3.07096 
        3.31446         25.5086         3.03474 
        3.33014         25.2491         2.99913 
        3.34585         24.8298         2.96404 
        3.36158         24.5688         2.92946 
        3.37727         24.3369         2.89554 
        3.39294          24.067         2.86218 
        3.40867         23.8414         2.82923 
        3.42439         23.4844         2.79682 
        3.44008         23.1757         2.76498 
        3.45578         22.9657         2.73361 
        3.47153         22.6987         2.70266 
        3.48724         22.4085         2.67224 
        3.50292          22.195         2.64237 
        3.51859         22.0563         2.61296 
        3.53431         21.7631         2.58391 
        3.55007         21.4732         2.55523 
        3.56577         21.3783         2.52709 
        3.58146         21.0271          2.4994 
        3.59719         20.8371         2.47205 
        3.61292         20.6699         2.44512 
        3.62859          20.407          2.4187 
        3.64429         20.2376         2.39261 
        3.66003         19.9859         2.36683 
        3.67578         19.7592         2.34144 
        3.69146         19.5638         2.31652 
        3.70712         19.3228           2.292 
        3.72284         19.1523         2.26775 
        3.73853         19.0148          2.2439 
        3.75422         18.7507         2.22037 
        3.76993         18.5677         2.19717 
        3.78564         18.4242          2.1743 
        3.80137         18.1868         2.15172 
        3.81707         18.0276         2.12951 
        3.83279          17.816          2.1076 
        3.84853         17.5946         2.08596 
        3.86424         17.4265         2.06466 
        3.87992         17.2652          2.0437 
        3.89561         17.1335         2.02302 
        3.91134         16.9072         2.00259 
        3.92704         16.7146         1.98246 
        3.94273          16.576         1.96263 
        3.95845         16.4349         1.94303 
        3.97418         16.2106          1.9237 
        3.98988         16.0512         1.90466 
        4.00554         15.8994         1.88592 
        4.02125         15.7943         1.86739 
        4.03698         15.5845         1.84907 
        4.05268         15.4241         1.83105 
        4.06839         15.2867         1.81325 
         4.0841         15.1489         1.79569 
        4.09983          14.979         1.77834 
        4.11555         14.7858         1.76122 
        4.13124         14.7093         1.74438 
        4.14693         14.5481         1.72774 
        4.16266         14.3974         1.71128 
        4.17839         14.3157         1.69505 
        4.19408         14.1309         1.67906 
        4.20977         14.0129         1.66328 
        4.22551         13.8636         1.64765 
        4.24123         13.7356         1.63225 
        4.25691         13.5935         1.61708 
        4.27259          13.492          1.6021 
        4.28831          13.367         1.58728 
        4.30404         13.2385         1.57264 
        4.31974         13.0909         1.55821 
        4.33543         12.9896         1.54397 
        4.35116         12.8455         1.52987 
        4.36688         12.7406         1.51596 
        4.38255         12.6134         1.50227 
        4.39825         12.4962         1.48871 
        4.41398         12.3901          1.4753 
         4.4297         12.2648         1.46207 
        4.44541         12.1373         1.44901 
        4.46111         12.0265         1.43611 
        4.47683         11.9126         1.42336 
        4.49251         11.8475         1.41079 
        4.50819         11.7292         1.39837 
         4.5239         11.6398         1.38609 
        4.53962         11.5163         1.37394 
        4.55535         11.3959         1.36193 
        4.57106         11.3067         1.35008 
        4.58678         11.2077         1.33837 
         4.6025         11.0898         1.32679 
        4.61821         10.9877         1.31536 
        4.63391         10.8885         1.30407 
         4.6496         10.8154         1.29292 
        4.66532         10.7041         1.28188 
        4.68103         10.6041         1.27098 
        4.69673         10.5578         1.26021 
        4.71241         10.4535         1.24958 
        4.72811         10.3502         1.23906 
        4.74384          10.264         1.22864 
        4.75955         10.1892         1.21836 
        4.77525         10.0865          1.2082 
        4.79096         10.0002         1.19814 
        4.80669         9.89573          1.1882 
         4.8224         9.81703         1.17837 
        4.83809         9.74334         1.16867 
        4.85379         9.65922         1.15908 
         4.8695         9.56366         1.14958 
        4.88521         9.47462         1.14019 
        4.90093         9.42716         1.13091 
        4.91663         9.32319         1.12174 
        4.93234         9.24907         1.11266 
        4.94807         9.17698         1.10367 
        4.96377         9.11316          1.0948 
        4.97943         9.01729         1.08605 
        4.99514          8.9447         1.07737 
        5.01086         8.85836         1.06877 
        5.02654         8.80022          1.0603 
        5.04227         8.73479         1.05189 
          5.058         8.65227         1.04357 
        5.07371         8.58689         1.03535 
        5.08942         8.52299         1.02722 
        5.10513         8.45242         1.01918 
        5.12084         8.37513         1.01122 
        5.13656          8.2973         1.00334 
        5.15225         8.23401        0.995566 
        5.16796         8.17205         0.98786 
        5.18369         8.10177        0.980227 
         5.1994         8.05541        0.972689 
        5.21509         7.97225        0.965238 
        5.23079         7.92491        0.957855 
        5.24649         7.85323        0.950555 
        5.26217         7.77889        0.943337 
        5.27788         7.71683        0.936183 
        5.29359         7.67011        0.929102 
        5.30933         7.60935        0.922084 
        5.32504         7.54488         0.91515 
        5.34073         7.50835        0.908295 
        5.35646         7.44182        0.901497 
        5.37218         7.35818        0.894766 
        5.38789         7.32763        0.888116 
        5.40357         7.25613         0.88154 
        5.41929         7.20374        0.875017 
        5.43502         7.13379        0.868558 
         5.4507         7.08579         0.86218 
        5.46639         7.03818        0.855866 
        5.48212         6.98859          0.8496 
        5.49786         6.92328        0.843389 
        5.51353           6.871         0.83727 
        5.52921         6.82013        0.831207 
        5.54495         6.77155        0.825185 
        5.56066         6.72681         0.81923 
        5.57637         6.67485        0.813334 
        5.59207          6.6193        0.807502 
        5.60778         6.56055        0.801724 
        5.62346         6.54018        0.796011 
        5.63916         6.48294        0.790349 
        5.65487         6.42996        0.784738 
         5.6706         6.38203        0.779175 
        5.68633         6.33806        0.773664 
        5.70203         6.27636        0.768218 
        5.71773         6.24663        0.762825 
        5.73344         6.18738        0.757481 
        5.74916         6.15846        0.752183 
        5.76486         6.10795        0.746943 
        5.78054          6.0612        0.741761 
        5.79626         6.01836        0.736614 
          5.812          5.9735         0.73151 
         5.8277         5.91427        0.726469 
        5.84339         5.88066        0.721476 
        5.85911         5.84331        0.716521 
        5.87484          5.7998        0.711612 
        5.89053          5.7555         0.70676 
        5.90623         5.70855         0.70195 
        5.92195         5.67076        0.697177 
        5.93767         5.63418        0.692451 
        5.95336         5.59751        0.687776 
        5.96905          5.5552        0.683146 
        5.98476         5.52324        0.678552 
        6.00048         5.48556        0.673999 
        6.01617         5.44484        0.669494 
        6.03185         5.39807        0.665036 
        6.04756         5.35636        0.660607 
        6.06331         5.31949        0.656209 
        6.07903         5.29127        0.651861 
        6.09473         5.26023        0.647555 
        6.11044         5.21178        0.643285 
        6.12616         5.18307        0.639054 
        6.14186         5.14082        0.634866 
        6.15755         5.11216        0.630715 
        6.17326         5.06851        0.626598 
        6.18898         5.04326        0.622515 
        6.20467          5.0069        0.618477 
        6.22036         4.97012        0.614474 
         6.2361         4.94623        0.610496 
         6.2518         4.90437         0.60656 
        6.26748         4.86549        0.602667 
        6.28319         4.84028        0.598798 
        6.29893         4.81661        0.594959 
        6.31463          4.7693         0.59116 
        6.33033         4.74699        0.587396 
        6.34604         4.71899        0.583662 
        6.36177         4.67754        0.579956 
        6.37747         4.65485         0.57629 
