# k  (h/Mpc)    Pcb(k)  (Mpc/h)^3    Pcb_linear(k) (Mpc/h)^3   ShotnoiseSubtracted = true
      0.0200456         28842.2         29453.1 
      0.0350414         21274.3         20528.8 
      0.0492313         13985.9         14350.1 
      0.0637834         11432.6         12099.4 
      0.0800726         9165.15         9924.35 
       0.096163         7332.75         7026.09 
       0.111083         5835.07         5426.99 
       0.126058         4865.47         4905.78 
       0.142273         4367.02         4309.73 
       0.158546         3557.78         3366.59 
        0.17375         3188.06         2752.37 
       0.188953         3066.62         2511.89 
       0.204907         2651.63         2295.43 
       0.220756          2418.5         1949.22 
        0.23588         2150.24         1659.31 
         0.2514         1964.28         1501.73 
       0.267535         1885.36         1388.21 
       0.283568         1700.84          1237.3 
       0.299022         1613.86         1091.16 
       0.314451         1686.83         990.613 
       0.330372         1523.54         918.302 
       0.346141         1401.25         842.452 
       0.361624         1340.54         764.315 
       0.377134         1297.36         699.799 
       0.392932         1221.34         649.818 
       0.408854         1182.81         603.654 
       0.424564         1156.61         557.725 
       0.440253         1087.27         516.102 
       0.455999         1037.67         481.356 
       0.471626         1047.25         450.927 
        0.48727         992.294         421.709 
       0.502856         971.821         394.466 
       0.518488         927.593         370.187 
       0.534347         902.298         348.262 
       0.550082         863.332         328.066 
       0.565732         843.158         309.192 
       0.581496         825.176         291.753 
       0.597222         814.721         275.936 
       0.612804         789.572         261.463 
       0.628434         760.198         247.896 
       0.644267         740.558         235.082 
       0.660051         730.945          223.29 
       0.675724         719.103         212.431 
       0.691403         689.892         202.293 
       0.707174          674.78         192.763 
       0.722871         674.079         183.888 
        0.73838         648.754          175.67 
       0.754018         640.915         167.896 
       0.769845         627.783         160.512 
        0.78569         613.647         153.569 
       0.801365         597.186         147.109 
       0.817031         587.432         141.031 
       0.832809         575.847         135.263 
       0.848511         563.943         129.849 
       0.864097         555.796         124.773 
       0.879701         557.542          119.97 
       0.895507         537.092         115.366 
       0.911279         532.016         111.018 
        0.92691         521.728         106.934 
       0.942635         511.751         103.036 
       0.958396         502.772         99.3271 
       0.974128         491.772         95.8107 
       0.989692         482.756          92.502 
        1.00528         473.162         89.3471 
        1.02113         464.476         86.2921 
        1.03692         458.157         83.3934 
        1.05264         453.145         80.6431 
        1.06832         443.049         78.0229 
        1.08405         439.658         75.5139 
        1.09979         427.842         73.1154 
        1.11537         419.461         70.8463 
        1.13105           413.1         68.6614 
        1.14679         406.848         66.5615 
        1.16256         403.114         64.5466 
        1.17828         396.434          62.623 
        1.19395         388.949         60.7853 
         1.2097         380.216         59.0132 
        1.22537         376.437         57.3213 
          1.241         368.208         55.7018 
        1.25666         363.279         54.1417 
        1.27241         361.867         52.6349 
        1.28819         351.549         51.1838 
        1.30392         348.396         49.7924 
        1.31957         341.456         48.4596 
        1.33529         337.256         47.1715 
        1.35108         336.612         45.9258 
        1.36674         327.526         44.7346 
         1.3824         320.283         43.5873 
        1.39811         316.852          42.477 
        1.41389         312.527         41.4017 
        1.42964         306.816          40.366 
        1.44531         302.259         39.3712 
        1.46101         294.182         38.4083 
        1.47667         293.497          37.481 
        1.49229         289.917         36.5871 
        1.50793         282.802         35.7218 
        1.52367         279.277         34.8793 
        1.53953         275.537         34.0586 
        1.55526         269.671         33.2713 
        1.57092         267.675         32.5124 
        1.58662         262.486         31.7758 
        1.60235         258.179         31.0608 
        1.61809         255.841         30.3677 
        1.63369         250.412         29.7023 
        1.64941         248.186         29.0522 
        1.66519         243.991         28.4196 
        1.68085          239.53         27.8105 
        1.69652         236.292         27.2193 
        1.71228         232.812         26.6422 
        1.72806         229.653         26.0815 
        1.74368         225.746         25.5428 
        1.75933         223.615         25.0185 
        1.77505         219.599         24.5066 
        1.79081         216.698         24.0083 
         1.8065         215.083         23.5262 
        1.82218         209.777         23.0579 
        1.83797         207.719         22.5993 
        1.85367         204.486         22.1559 
        1.86928         200.957         21.7271 
        1.88497         198.374         21.3076 
        1.90073         196.628         20.8977 
        1.91647         193.488          20.499 
        1.93218         190.261         20.1118 
        1.94787         186.873         19.7352 
        1.96363         185.761          19.367 
        1.97935         181.572         19.0089 
        1.99499         180.885         18.6621 
        2.01064         176.221         18.3236 
         2.0264         174.956         17.9914 
        2.04216         172.084         17.6677 
        2.05781         169.747         17.3541 
        2.07353         168.533         17.0471 
        2.08928         166.582         16.7469 
        2.10499         163.454         16.4549 
        2.12065         161.427         16.1708 
        2.13633         159.202         15.8932 
        2.15211         157.191         15.6205 
        2.16785         155.452         15.3549 
        2.18349          152.49         15.0973 
        2.19916         152.562         14.8452 
        2.21489          148.68          14.598 
        2.23063         146.849         14.3563 
         2.2463          145.06         14.1213 
        2.26194         143.752         13.8922 
        2.27765         141.641          13.667 
        2.29341         139.861         13.4463 
        2.30914         138.205          13.231 
        2.32486         136.433         13.0206 
        2.34061         134.074         12.8145 
        2.35635         132.182          12.613 
        2.37203         131.707         12.4167 
        2.38768         129.227          12.225 
        2.40339           127.7         12.0366 
        2.41914         126.108         11.8519 
        2.43483         124.464         11.6717 
         2.4505         123.301         11.4956 
        2.46622         121.449         11.3226 
        2.48195         119.511         11.1532 
        2.49759         118.073         10.9882 
        2.51328         116.738         10.8261 
        2.52906          115.38         10.6663 
        2.54479         114.165         10.5104 
        2.56049         112.368         10.3579 
        2.57618         111.566         10.2087 
        2.59189         110.166         10.0621 
        2.60758         109.323         9.91874 
        2.62325         107.306         9.77835 
        2.63898         105.454         9.64021 
        2.65468         104.555         9.50507 
        2.67044         103.465         9.37197 
        2.68618         102.336         9.24175 
        2.70184         101.282         9.11455 
        2.71755         99.3835         8.98946 
        2.73329         98.6567         8.86655 
        2.74897         97.0629         8.74636 
        2.76462         96.1374         8.62869 
        2.78034         95.2921         8.51273 
        2.79607         94.2215         8.39879 
        2.81179         93.1122          8.2871 
        2.82749         91.9956         8.17759 
        2.84321         90.6563         8.06995 
        2.85893         89.8512          7.9643 
        2.87462         88.3874         7.86075 
        2.89033         87.7115         7.75897 
        2.90605         86.5914         7.65891 
        2.92176          85.366          7.5607 
        2.93747         84.7583         7.46427 
        2.95318         83.8387         7.36952 
        2.96891          82.956          7.2764 
        2.98456         81.8107         7.18531 
        3.00023         81.0703         7.09567 
        3.01596         80.0753         7.00729 
        3.03164          79.304         6.92069 
        3.04738         78.4171         6.83531 
         3.0631         77.8228         6.75142 
        3.07883         76.7204         6.66895 
        3.09456          75.943         6.58788 
        3.11026         75.2106          6.5083 
        3.12596         74.3116         6.43006 
        3.14163         73.3115          6.3533 
        3.15734         72.7062         6.27762 
        3.17308         71.8079         6.20301 
        3.18879          71.134         6.12983 
        3.20447         70.2975         6.05795 
         3.2202         69.6071         5.98701 
         3.2359          69.138         5.91735 
        3.25157         68.3601         5.84897 
        3.26729          67.652         5.78148 
        3.28304          66.673         5.71493 
        3.29877         66.1207         5.64952 
        3.31446         65.5749          5.5853 
        3.33014          64.791         5.52214 
        3.34585          64.226         5.45987 
        3.36158         63.4909         5.39847 
        3.37727         62.7135         5.33823 
        3.39294         62.2456         5.27897 
        3.40867           61.57          5.2204 
        3.42439         60.6112         5.16276 
        3.44008         60.1272         5.10612 
        3.45578         59.7308         5.05029 
        3.47153         59.0695         4.99518 
        3.48724         58.4771           4.941 
        3.50292         58.0395         4.88776 
        3.51859         57.4415         4.83534 
        3.53431         56.6488         4.78353 
        3.55007         56.2357         4.73236 
        3.56577         55.7117         4.68215 
        3.58146         55.0075          4.6327 
        3.59719         54.7164         4.58386 
        3.61292         54.1729         4.53574 
        3.62859         53.5692          4.4885 
        3.64429         52.9821         4.44185 
        3.66003         52.6602         4.39573 
        3.67578         52.0743         4.35029 
        3.69146         51.5339         4.30567 
        3.70712         50.8975         4.26176 
        3.72284          50.432         4.21831 
        3.73853         50.0171         4.17554 
        3.75422         49.5719         4.13336 
        3.76993         49.0911         4.09173 
        3.78564         48.5411          4.0507 
        3.80137         48.1456         4.01017 
        3.81707         47.6305         3.97028 
        3.83279         47.1287         3.93091 
        3.84853         46.8152         3.89202 
        3.86424         46.4543         3.85373 
        3.87992         45.8468         3.81602 
        3.89561          45.586         3.77882 
        3.91134         45.0997         3.74204 
        3.92704         44.6544          3.7058 
        3.94273         44.1253         3.67008 
        3.95845          43.745         3.63478 
        3.97418         43.3579         3.59993 
        3.98988         42.8218         3.56559 
        4.00554         42.5701          3.5318 
        4.02125         42.0658         3.49835 
        4.03698         41.7819         3.46529 
        4.05268         41.3953         3.43274 
        4.06839         41.0799         3.40058 
         4.0841         40.7042         3.36885 
        4.09983          40.396         3.33749 
        4.11555         39.9326         3.30654 
        4.13124         39.6457         3.27607 
        4.14693         39.1857         3.24597 
        4.16266         39.0394         3.21618 
        4.17839         38.5691         3.18678 
        4.19408         38.2462         3.15782 
        4.20977         37.8562         3.12921 
        4.22551         37.5138         3.10089 
        4.24123          37.173         3.07296 
        4.25691         36.7906         3.04545 
        4.27259         36.5903         3.01827 
        4.28831         36.2336         2.99137 
        4.30404         35.9131         2.96477 
        4.31974         35.5343         2.93856 
        4.33543         35.2506         2.91269 
        4.35116         34.9985         2.88707 
        4.36688         34.6912         2.86177 
        4.38255         34.4309         2.83687 
        4.39825          34.121         2.81221 
        4.41398         33.8601          2.7878 
         4.4297         33.4529         2.76371 
        4.44541         33.2149         2.73991 
        4.46111         33.0256         2.71642 
        4.47683         32.7281         2.69318 
        4.49251         32.4237         2.67027 
        4.50819         32.1631         2.64763 
         4.5239         31.8579         2.62523 
        4.53962         31.6204         2.60305 
        4.55535          31.339         2.58113 
        4.57106         31.0496         2.55949 
        4.58678         30.7599          2.5381 
         4.6025         30.4586         2.51695 
        4.61821         30.2022         2.49605 
        4.63391         30.0471         2.47542 
         4.6496         29.7559         2.45503 
        4.66532         29.5843         2.43484 
        4.68103         29.2658         2.41488 
        4.69673         29.0165         2.39518 
        4.71241         28.8119         2.37571 
        4.72811         28.6076         2.35643 
        4.74384         28.3029         2.33734 
        4.75955         28.1352          2.3185 
        4.77525         27.9157         2.29987 
        4.79096         27.6687         2.28143 
        4.80669         27.4149         2.26319 
         4.8224         27.2326         2.24516 
        4.83809         26.9508         2.22736 
        4.85379           26.72         2.20973 
         4.8695         26.5287         2.19229 
        4.88521         26.2686         2.17504 
        4.90093         26.0978         2.15798 
        4.91663         25.9199         2.14112 
        4.93234         25.6738         2.12443 
        4.94807         25.4972          2.1079 
        4.96377         25.3206         2.09158 
        4.97943         25.0842         2.07547 
        4.99514         24.8983         2.05949 
        5.01086         24.6517         2.04366 
        5.02654         24.4223         2.02805 
        5.04227         24.3019         2.01255 
          5.058         24.1719         1.99721 
        5.07371         23.9029         1.98206 
        5.08942         23.7863         1.96707 
        5.10513         23.5365         1.95224 
        5.12084         23.4258         1.93755 
        5.13656         23.2482         1.92301 
        5.15225         23.0499         1.90865 
        5.16796         22.8046         1.89442 
        5.18369         22.6867         1.88032 
         5.1994         22.4966         1.86639 
        5.21509          22.293         1.85262 
        5.23079         22.1546         1.83897 
        5.24649         21.9519         1.82547 
        5.26217         21.8114         1.81211 
        5.27788         21.6309         1.79887 
        5.29359         21.4156         1.78577 
        5.30933         21.3158         1.77277 
        5.32504         21.1562         1.75993 
        5.34073         21.0137         1.74723 
        5.35646         20.8854         1.73464 
        5.37218         20.6834         1.72216 
        5.38789         20.5509         1.70983 
        5.40357         20.3223         1.69763 
        5.41929          20.239         1.68553 
        5.43502         20.0787         1.67355 
         5.4507         19.9608         1.66171 
        5.46639          19.745         1.64999 
        5.48212         19.6118         1.63835 
        5.49786           19.46         1.62681 
        5.51353         19.3456         1.61544 
        5.52921         19.1726         1.60417 
        5.54495          19.042         1.59298 
        5.56066         18.9146         1.58191 
        5.57637         18.7875         1.57094 
        5.59207         18.6465         1.56009 
        5.60778         18.5673         1.54934 
        5.62346         18.3476          1.5387 
        5.63916         18.2257         1.52816 
        5.65487         18.0748         1.51771 
         5.6706         17.9357         1.50734 
        5.68633         17.7881         1.49707 
        5.70203         17.7213         1.48692 
        5.71773         17.5898         1.47687 
        5.73344         17.4602          1.4669 
        5.74916         17.3209         1.45702 
        5.76486         17.1906         1.44724 
        5.78054         17.0732         1.43757 
        5.79626         16.9569         1.42796 
          5.812         16.8682         1.41843 
         5.8277         16.7629         1.40902 
        5.84339         16.5962         1.39969 
        5.85911         16.4924         1.39043 
        5.87484         16.3648         1.38125 
        5.89053         16.2498         1.37218 
        5.90623         16.1383         1.36318 
        5.92195         16.0524         1.35426 
        5.93767         15.9039         1.34541 
        5.95336         15.8119         1.33666 
        5.96905         15.6996           1.328 
        5.98476         15.5549          1.3194 
        6.00048         15.4634         1.31087 
        6.01617          15.343         1.30243 
        6.03185         15.2915         1.29407 
        6.04756         15.1383         1.28577 
        6.06331         15.0492         1.27753 
        6.07903         14.9501         1.26937 
        6.09473          14.814          1.2613 
        6.11044         14.7242         1.25329 
        6.12616         14.6424         1.24535 
        6.14186         14.5102         1.23748 
        6.15755         14.4548         1.22969 
        6.17326         14.3524         1.22196 
        6.18898         14.2384         1.21429 
        6.20467         14.1164          1.2067 
        6.22036         14.0616         1.19918 
         6.2361         13.9412          1.1917 
         6.2518         13.8411          1.1843 
        6.26748         13.7514         1.17698 
        6.28319          13.645          1.1697 
        6.29893          13.566         1.16248 
        6.31463          13.485         1.15533 
        6.33033          13.392         1.14824 
        6.34604         13.2972         1.14121 
        6.36177         13.2033         1.13423 
        6.37747         13.1224         1.12733 
