# k  (h/Mpc)    Pcb(k)  (Mpc/h)^3    Pcb_linear(k) (Mpc/h)^3   ShotnoiseSubtracted = true
      0.0200456         4639.34         4720.62 
      0.0350414         3239.98         3290.27 
      0.0492313         2302.94         2299.97 
      0.0637834          1974.4         1939.24 
      0.0800726          1606.5         1590.63 
       0.096163         1113.81         1126.11 
       0.111083         859.256         869.816 
       0.126058         795.531         786.278 
       0.142273         703.868         690.746 
       0.158546         564.094         539.583 
        0.17375         448.787         441.139 
       0.188953         424.548         402.595 
       0.204907         403.147         367.903 
       0.220756         337.862         312.413 
        0.23588         291.417         265.947 
         0.2514         257.642         240.691 
       0.267535          244.47         222.496 
       0.283568         221.632          198.31 
       0.299022         201.789         174.887 
       0.314451         182.143         158.771 
       0.330372          170.07         147.182 
       0.346141         154.118         135.025 
       0.361624         145.104         122.501 
       0.377134         136.333         112.161 
       0.392932         122.733          104.15 
       0.408854         118.352         96.7511 
       0.424564         113.044         89.3899 
       0.440253         105.143         82.7187 
       0.455999         98.9731         77.1498 
       0.471626         92.0273         72.2728 
        0.48727         88.8969         67.5899 
       0.502856         84.3535         63.2234 
       0.518488         81.1693          59.332 
       0.534347          78.076          55.818 
       0.550082         71.8344         52.5811 
       0.565732         68.1697         49.5561 
       0.581496         66.1207          46.761 
       0.597222         63.9898         44.2258 
       0.612804         60.3302         41.9063 
       0.628434         58.7293         39.7318 
       0.644267         57.0374          37.678 
       0.660051         54.8545          35.788 
       0.675724         52.3305         34.0476 
       0.691403         50.7819         32.4227 
       0.707174         49.2789         30.8952 
       0.722871         47.5535         29.4727 
        0.73838         46.2185         28.1557 
       0.754018         44.0943         26.9097 
       0.769845         43.0882         25.7261 
        0.78569         41.8658         24.6133 
       0.801365          40.366         23.5781 
       0.817031         39.4956         22.6038 
       0.832809         38.7793         21.6793 
       0.848511         36.5813         20.8116 
       0.864097         35.9758         19.9982 
       0.879701         35.3023         19.2282 
       0.895507         34.6685         18.4904 
       0.911279         33.5712         17.7935 
        0.92691         32.7931         17.1389 
       0.942635         31.5711         16.5142 
       0.958396          31.236         15.9197 
       0.974128         30.3032         15.3562 
       0.989692         29.9466         14.8258 
        1.00528         29.2586         14.3202 
        1.02113         28.2135         13.8305 
        1.03692         27.6684         13.3659 
        1.05264         27.2637         12.9251 
        1.06832           26.57         12.5052 
        1.08405         26.0114         12.1031 
        1.09979          25.507         11.7186 
        1.11537         24.9364          11.355 
        1.13105         24.6755         11.0048 
        1.14679         24.3266         10.6682 
        1.16256         23.4746         10.3453 
        1.17828         23.3419          10.037 
        1.19395         22.7068         9.74243 
         1.2097         22.5341         9.45839 
        1.22537         22.0293         9.18722 
          1.241         21.6342         8.92765 
        1.25666         21.0857         8.67761 
        1.27241         20.7633         8.43611 
        1.28819         20.3241         8.20352 
        1.30392         20.1804         7.98052 
        1.31957         19.9506         7.76691 
        1.33529         19.6568         7.56045 
        1.35108         19.1904         7.36079 
        1.36674         18.9454         7.16987 
         1.3824         18.5321         6.98599 
        1.39811         18.2931         6.80804 
        1.41389         18.1298          6.6357 
        1.42964         17.8223         6.46969 
        1.44531         17.7139         6.31026 
        1.46101         17.1949         6.15593 
        1.47667         17.0049         6.00729 
        1.49229          16.824         5.86403 
        1.50793         16.5914         5.72534 
        1.52367         16.3713         5.59031 
        1.53953         16.1692         5.45878 
        1.55526         15.8962         5.33259 
        1.57092         15.6474         5.21096 
        1.58662         15.5185         5.09289 
        1.60235          15.272          4.9783 
        1.61809         15.1106         4.86722 
        1.63369         14.8995         4.76056 
        1.64941         14.6375         4.65637 
        1.66519          14.565         4.55497 
        1.68085         14.3403         4.45735 
        1.69652         14.1496          4.3626 
        1.71228         13.9799          4.2701 
        1.72806          13.874         4.18024 
        1.74368         13.6519          4.0939 
        1.75933         13.5058         4.00986 
        1.77505         13.3347         3.92782 
        1.79081         13.1296         3.84795 
         1.8065         13.0575         3.77068 
        1.82218          12.824         3.69562 
        1.83797         12.6987         3.62212 
        1.85367         12.5455         3.55105 
        1.86928         12.5033         3.48234 
        1.88497         12.2572         3.41509 
        1.90073         12.2314         3.34939 
        1.91647         12.0735          3.2855 
        1.93218         11.9637         3.22344 
        1.94787         11.8019         3.16308 
        1.96363         11.7106         3.10406 
        1.97935         11.5381         3.04668 
        1.99499         11.3797         2.99109 
        2.01064         11.2865         2.93683 
         2.0264         11.1882         2.88358 
        2.04216         11.0601          2.8317 
        2.05781         10.8914         2.78144 
        2.07353         10.8414         2.73224 
        2.08928         10.7208         2.68413 
        2.10499         10.6581         2.63732 
        2.12065         10.4843         2.59179 
        2.13633         10.4665          2.5473 
        2.15211         10.3015         2.50358 
        2.16785          10.255         2.46103 
        2.18349         10.1734         2.41974 
        2.19916         10.0406         2.37932 
        2.21489         9.93586          2.3397 
        2.23063         9.83754         2.30097 
         2.2463         9.72133          2.2633 
        2.26194         9.63504         2.22658 
        2.27765         9.59375         2.19049 
        2.29341         9.48515         2.15512 
        2.30914         9.33946         2.12061 
        2.32486         9.29231         2.08689 
        2.34061          9.2159         2.05385 
        2.35635         9.14901         2.02157 
        2.37203         9.06959          1.9901 
        2.38768         8.91876         1.95937 
        2.40339         8.87809         1.92918 
        2.41914         8.76488         1.89957 
        2.43483         8.74214          1.8707 
         2.4505         8.66338         1.84247 
        2.46622         8.56846         1.81474 
        2.48195         8.50054         1.78759 
        2.49759         8.43293         1.76114 
        2.51328          8.3416         1.73517 
        2.52906         8.29921         1.70956 
        2.54479         8.21123         1.68457 
        2.56049         8.15738         1.66013 
        2.57618          8.0984          1.6362 
        2.59189         7.98539         1.61272 
        2.60758         7.97274         1.58973 
        2.62325         7.89023         1.56723 
        2.63898         7.77211         1.54509 
        2.65468         7.70087         1.52343 
        2.67044         7.67837          1.5021 
        2.68618         7.61022         1.48123 
        2.70184         7.54919         1.46084 
        2.71755         7.47446         1.44079 
        2.73329         7.41635         1.42109 
        2.74897         7.37697         1.40183 
        2.76462         7.32897         1.38297 
        2.78034         7.23611         1.36438 
        2.79607         7.18895         1.34612 
        2.81179         7.14863         1.32822 
        2.82749         7.08412         1.31067 
        2.84321          7.0693         1.29342 
        2.85893           6.995         1.27649 
        2.87462         6.90972         1.25989 
        2.89033         6.86155         1.24358 
        2.90605         6.80198         1.22754 
        2.92176         6.74712          1.2118 
        2.93747          6.6938         1.19634 
        2.95318         6.68015         1.18116 
        2.96891         6.60034         1.16623 
        2.98456         6.54518         1.15163 
        3.00023         6.48565         1.13726 
        3.01596         6.45877          1.1231 
        3.03164         6.42357         1.10922 
        3.04738         6.38104         1.09554 
         3.0631         6.30685         1.08209 
        3.07883          6.2558         1.06887 
        3.09456          6.2167         1.05588 
        3.11026         6.18044         1.04312 
        3.12596         6.14233         1.03058 
        3.14163         6.07394         1.01828 
        3.15734         6.03052         1.00615 
        3.17308         5.99409        0.994193 
        3.18879         5.93817        0.982464 
        3.20447         5.92451        0.970943 
         3.2202         5.84141        0.959574 
         3.2359         5.83005        0.948408 
        3.25157         5.77479        0.937449 
        3.26729         5.75558        0.926631 
        3.28304         5.69379        0.915965 
        3.29877         5.64655        0.905483 
        3.31446         5.60692        0.895189 
        3.33014         5.57861        0.885066 
        3.34585          5.5461        0.875085 
        3.36158          5.4965        0.865245 
        3.37727         5.47018        0.855589 
        3.39294         5.44493        0.846091 
        3.40867         5.37794        0.836704 
        3.42439         5.36401        0.827467 
        3.44008          5.3101        0.818388 
        3.45578         5.27064         0.80944 
        3.47153         5.23933        0.800608 
        3.48724         5.20876        0.791924 
        3.50292         5.16913        0.783391 
        3.51859         5.13177        0.774989 
        3.53431         5.08513        0.766685 
        3.55007         5.06889        0.758484 
        3.56577         5.03875        0.750436 
        3.58146         5.00981         0.74251 
        3.59719         4.96962        0.734682 
        3.61292         4.94156         0.72697 
        3.62859         4.89355        0.719399 
        3.64429          4.8667        0.711922 
        3.66003         4.83555         0.70453 
        3.67578         4.80616        0.697247 
        3.69146         4.74431        0.690095 
        3.70712         4.74005        0.683057 
        3.72284         4.71033        0.676093 
        3.73853         4.67486        0.669239 
        3.75422         4.64286        0.662478 
        3.76993         4.61283        0.655806 
        3.78564         4.57854        0.649229 
        3.80137         4.56143        0.642733 
        3.81707          4.5255         0.63634 
        3.83279         4.49039         0.63003 
        3.84853         4.44718        0.623796 
        3.86424         4.42445         0.61766 
        3.87992         4.40271        0.611616 
        3.89561         4.38792        0.605654 
        3.91134         4.33756        0.599759 
        3.92704         4.31034        0.593951 
        3.94273         4.29175        0.588226 
        3.95845         4.26747        0.582567 
        3.97418          4.2374        0.576982 
        3.98988         4.21375        0.571478 
        4.00554         4.18593        0.566062 
        4.02125         4.14987        0.560702 
        4.03698         4.11569        0.555403 
        4.05268         4.09006        0.550185 
        4.06839         4.07489        0.545032 
         4.0841         4.03528        0.539946 
        4.09983         4.00633        0.534919 
        4.11555         3.97325        0.529959 
        4.13124         3.95438        0.525076 
        4.14693         3.92727        0.520251 
        4.16266         3.90739        0.515476 
        4.17839         3.87913        0.510764 
        4.19408         3.84508        0.506122 
        4.20977          3.8264        0.501537 
        4.22551         3.78951        0.496998 
        4.24123         3.77621        0.492521 
        4.25691         3.75098        0.488112 
        4.27259          3.7378        0.483755 
        4.28831         3.70214        0.479444 
        4.30404         3.67792        0.475182 
        4.31974         3.65511        0.470981 
        4.33543         3.62193        0.466834 
        4.35116         3.59668        0.462727 
        4.36688          3.5868        0.458672 
        4.38255         3.56035        0.454681 
        4.39825         3.54385         0.45073 
        4.41398         3.52961        0.446817 
         4.4297         3.49793        0.442956 
        4.44541         3.47771        0.439142 
        4.46111         3.46029        0.435376 
        4.47683         3.42182        0.431652 
        4.49251         3.41084         0.42798 
        4.50819         3.38998        0.424352 
         4.5239         3.37418        0.420761 
        4.53962         3.35275        0.417207 
        4.55535         3.33025        0.413693 
        4.57106         3.30694        0.410225 
        4.58678         3.28428        0.406797 
         4.6025         3.26759        0.403407 
        4.61821         3.25415        0.400057 
        4.63391         3.23396         0.39675 
         4.6496         3.21401        0.393482 
        4.66532         3.18084        0.390245 
        4.68103         3.16136        0.387048 
        4.69673         3.14749        0.383889 
        4.71241         3.12219        0.380769 
        4.72811         3.10847        0.377679 
        4.74384         3.09529         0.37462 
        4.75955         3.07982        0.371599 
        4.77525         3.05943        0.368614 
        4.79096         3.03506        0.365658 
        4.80669         3.02128        0.362734 
         4.8224         3.01107        0.359845 
        4.83809         2.98551        0.356992 
        4.85379         2.96941        0.354167 
         4.8695         2.95812        0.351371 
        4.88521         2.93593        0.348607 
        4.90093         2.92082        0.345873 
        4.91663         2.90159         0.34317 
        4.93234         2.88351        0.340494 
        4.94807         2.87179        0.337845 
        4.96377         2.84908         0.33523 
        4.97943         2.83598        0.332647 
        4.99514         2.81268        0.330086 
        5.01086         2.79787         0.32755 
        5.02654         2.78373        0.325047 
        5.04227         2.77351        0.322564 
          5.058         2.76107        0.320105 
        5.07371         2.73634        0.317677 
        5.08942         2.72764        0.315274 
        5.10513          2.7098        0.312896 
        5.12084         2.69361        0.310542 
        5.13656          2.6833        0.308213 
        5.15225         2.65974        0.305911 
        5.16796          2.6435         0.30363 
        5.18369         2.62924         0.30137 
         5.1994         2.61916        0.299138 
        5.21509         2.60641         0.29693 
        5.23079         2.59012        0.294742 
        5.24649         2.57635        0.292578 
        5.26217          2.5649        0.290438 
        5.27788         2.54195        0.288316 
        5.29359         2.52995        0.286216 
        5.30933         2.52111        0.284133 
        5.32504         2.50163        0.282075 
        5.34073         2.48961        0.280039 
        5.35646         2.47643         0.27802 
        5.37218         2.45619        0.276021 
        5.38789         2.45499        0.274044 
        5.40357         2.44029         0.27209 
        5.41929         2.42426         0.27015 
        5.43502         2.40887        0.268229 
         5.4507         2.39816        0.266332 
        5.46639         2.38677        0.264453 
        5.48212         2.37732        0.262588 
        5.49786         2.36569        0.260739 
        5.51353         2.34499        0.258917 
        5.52921         2.33737        0.257111 
        5.54495         2.32392        0.255316 
        5.56066         2.31347        0.253541 
        5.57637         2.30055        0.251784 
        5.59207         2.28831        0.250045 
        5.60778         2.28083        0.248321 
        5.62346         2.26586        0.246617 
        5.63916         2.25082        0.244927 
        5.65487         2.24302        0.243252 
         5.6706         2.22852        0.241591 
        5.68633         2.21955        0.239945 
        5.70203         2.20649        0.238318 
        5.71773         2.19898        0.236706 
        5.73344         2.18467        0.235109 
        5.74916         2.17193        0.233525 
        5.76486         2.16722        0.231958 
        5.78054         2.15702        0.230408 
        5.79626         2.14587        0.228868 
          5.812         2.12954         0.22734 
         5.8277         2.11739        0.225831 
        5.84339         2.10862        0.224336 
        5.85911         2.10151        0.222852 
        5.87484         2.09125        0.221381 
        5.89053         2.07932        0.219927 
        5.90623         2.07169        0.218486 
        5.92195         2.05889        0.217055 
        5.93767         2.05235        0.215637 
        5.95336         2.03448        0.214235 
        5.96905         2.02877        0.212846 
        5.98476         2.01581        0.211467 
        6.00048         2.00521        0.210101 
        6.01617          2.0017        0.208748 
        6.03185         1.99135        0.207409 
        6.04756         1.97786        0.206078 
        6.06331         1.96823        0.204757 
        6.07903         1.95782         0.20345 
        6.09473           1.956        0.202156 
        6.11044         1.94304        0.200872 
        6.12616         1.93179        0.199599 
        6.14186         1.92556        0.198339 
        6.15755         1.91509         0.19709 
        6.17326         1.90439        0.195851 
        6.18898          1.8974        0.194622 
        6.20467         1.88827        0.193405 
        6.22036         1.87981          0.1922 
         6.2361         1.86839        0.191001 
         6.2518         1.86075        0.189815 
        6.26748         1.85341        0.188642 
        6.28319         1.84621        0.187475 
        6.29893         1.84103        0.186317 
        6.31463         1.82969        0.185172 
        6.33033         1.81719        0.184036 
        6.34604         1.81034        0.182909 
        6.36177         1.80588         0.18179 
        6.37747         1.79563        0.180684 
