# k  (h/Mpc)    Pcb(k)  (Mpc/h)^3    Pcb_linear(k) (Mpc/h)^3   ShotnoiseSubtracted = true
      0.0200456         30477.3         31135.1 
      0.0350414         22500.9         21701.2 
      0.0492313         14760.8         15169.6 
      0.0637834         12064.7         12790.4 
      0.0800726         9665.98         10491.1 
       0.096163         7756.81         7427.33 
       0.111083         6173.76         5736.92 
       0.126058          5147.7         5185.93 
       0.142273          4623.7         4555.85 
       0.158546         3765.88         3558.84 
        0.17375         3387.31         2909.55 
       0.188953         3268.11         2655.33 
       0.204907         2824.28         2426.52 
       0.220756         2580.44         2060.54 
        0.23588          2295.2         1754.07 
         0.2514         2100.91         1587.49 
       0.267535         2013.08         1467.49 
       0.283568          1821.3         1307.96 
       0.299022          1726.8         1153.47 
       0.314451         1804.07         1047.18 
       0.330372         1638.69         970.744 
       0.346141         1510.16         890.563 
       0.361624         1442.46         807.963 
       0.377134         1399.72         739.763 
       0.392932         1313.67         686.927 
       0.408854         1275.44         638.127 
       0.424564         1246.45         589.575 
       0.440253         1177.27         545.575 
       0.455999         1122.86         508.845 
       0.471626         1128.94         476.679 
        0.48727         1072.33         445.792 
       0.502856         1054.58         416.993 
       0.518488         1003.94         391.327 
       0.534347         977.994          368.15 
       0.550082         939.047         346.801 
       0.565732         914.415         326.849 
       0.581496         894.935         308.414 
       0.597222         885.244         291.693 
       0.612804         856.556         276.395 
       0.628434         826.085         262.053 
       0.644267         805.735         248.507 
       0.660051          793.52         236.042 
       0.675724         782.074         224.563 
       0.691403         748.703         213.845 
       0.707174         733.618         203.771 
       0.722871         733.493         194.389 
        0.73838           703.7         185.702 
       0.754018         697.511         177.484 
       0.769845         681.272         169.678 
        0.78569           665.9         162.338 
       0.801365         649.575          155.51 
       0.817031         637.788         149.085 
       0.832809         624.617         142.987 
       0.848511         608.853         137.264 
       0.864097         602.058         131.899 
       0.879701         602.985         126.821 
       0.895507         583.175         121.954 
       0.911279         577.393         117.358 
        0.92691         565.768          113.04 
       0.942635         553.908          108.92 
       0.958396         546.535         104.999 
       0.974128          532.76         101.282 
       0.989692         524.688         97.7846 
        1.00528         513.153         94.4495 
        1.02113         502.994           91.22 
        1.03692         496.155         88.1558 
        1.05264         490.581         85.2484 
        1.06832         481.159         82.4786 
        1.08405         475.845         79.8263 
        1.09979         463.314         77.2908 
        1.11537         453.937         74.8921 
        1.13105         447.176         72.5824 
        1.14679         441.058         70.3626 
        1.16256         436.058         68.2327 
        1.17828         428.744         66.1992 
        1.19395         421.445         64.2566 
         1.2097         411.087         62.3833 
        1.22537          406.87         60.5947 
          1.241         398.467         58.8828 
        1.25666          391.25         57.2336 
        1.27241         390.889         55.6408 
        1.28819         380.682         54.1067 
        1.30392         376.132         52.6359 
        1.31957         368.337          51.227 
        1.33529         364.709         49.8653 
        1.35108         364.109         48.5485 
        1.36674         354.378         47.2892 
         1.3824         346.686         46.0765 
        1.39811         343.174         44.9028 
        1.41389         339.149         43.7661 
        1.42964         331.622         42.6712 
        1.44531         327.705         41.6196 
        1.46101         318.456         40.6017 
        1.47667         317.156         39.6214 
        1.49229         313.915         38.6765 
        1.50793         305.334         37.7618 
        1.52367         302.812         36.8711 
        1.53953          297.79         36.0036 
        1.55526         291.356         35.1713 
        1.57092         289.291         34.3691 
        1.58662         284.529         33.5904 
        1.60235         279.599         32.8346 
        1.61809         276.164          32.102 
        1.63369         270.861         31.3985 
        1.64941          268.52         30.7113 
        1.66519          264.29         30.0425 
        1.68085         258.818         29.3987 
        1.69652         255.634         28.7737 
        1.71228         252.218         28.1636 
        1.72806         248.405          27.571 
        1.74368         244.605         27.0015 
        1.75933         242.677         26.4472 
        1.77505         238.194         25.9061 
        1.79081         234.841         25.3794 
         1.8065         232.427         24.8697 
        1.82218         227.125         24.3747 
        1.83797         224.841         23.8899 
        1.85367         221.336         23.4211 
        1.86928         217.736         22.9679 
        1.88497         214.684         22.5244 
        1.90073         212.558         22.0911 
        1.91647         209.107         21.6697 
        1.93218         205.788         21.2603 
        1.94787          202.67         20.8623 
        1.96363         201.396          20.473 
        1.97935         195.537         20.0945 
        1.99499         195.376         19.7279 
        2.01064         191.031           19.37 
         2.0264         189.113         19.0188 
        2.04216         186.037         18.6766 
        2.05781          183.35         18.3451 
        2.07353         181.916         18.0206 
        2.08928         179.521         17.7033 
        2.10499         176.931         17.3946 
        2.12065         174.302         17.0943 
        2.13633         171.906         16.8009 
        2.15211         169.883         16.5125 
        2.16785         167.849         16.2318 
        2.18349         164.397         15.9595 
        2.19916         164.251         15.6929 
        2.21489         160.876         15.4316 
        2.23063         158.487         15.1762 
         2.2463         156.528         14.9277 
        2.26194         154.826         14.6855 
        2.27765         153.258         14.4475 
        2.29341         150.961         14.2142 
        2.30914         149.396         13.9866 
        2.32486         147.133         13.7642 
        2.34061         144.493         13.5463 
        2.35635         142.567         13.3333 
        2.37203         142.545         13.1258 
        2.38768         139.656         12.9231 
        2.40339         137.325          12.724 
        2.41914         136.348         12.5287 
        2.43483         134.339         12.3383 
         2.4505         133.223         12.1521 
        2.46622         131.391         11.9692 
        2.48195         129.094         11.7901 
        2.49759         127.679         11.6157 
        2.51328         126.007         11.4444 
        2.52906         124.551         11.2755 
        2.54479         123.297         11.1106 
        2.56049         121.388         10.9495 
        2.57618         120.435         10.7917 
        2.59189          118.81         10.6368 
        2.60758         118.048         10.4852 
        2.62325         116.103         10.3368 
        2.63898         114.263         10.1907 
        2.65468         113.137         10.0479 
        2.67044         111.832         9.90718 
        2.68618         110.667         9.76952 
        2.70184         109.317         9.63506 
        2.71755         107.686         9.50282 
        2.73329         106.882         9.37289 
        2.74897         104.985         9.24584 
        2.76462          103.91         9.12145 
        2.78034         102.874         8.99887 
        2.79607         101.868         8.87843 
        2.81179          100.56         8.76036 
        2.82749         99.3176         8.64459 
        2.84321          97.996          8.5308 
        2.85893         97.3125         8.41913 
        2.87462          95.379         8.30966 
        2.89033         94.8253         8.20206 
        2.90605         93.5015          8.0963 
        2.92176         92.3317         7.99247 
        2.93747         91.5484         7.89054 
        2.95318         90.6103         7.79038 
        2.96891          89.453         7.69193 
        2.98456         88.5725         7.59565 
        3.00023         87.7064         7.50088 
        3.01596         86.3612         7.40746 
        3.03164         85.7971         7.31591 
        3.04738         84.8126         7.22566 
         3.0631         83.9279         7.13697 
        3.07883         82.9063         7.04979 
        3.09456         82.2423          6.9641 
        3.11026         81.1304         6.87997 
        3.12596          80.211         6.79726 
        3.14163         79.1627         6.71612 
        3.15734         78.3647         6.63612 
        3.17308         77.5592         6.55725 
        3.18879         76.7339         6.47989 
        3.20447         75.7946          6.4039 
         3.2202         75.1072         6.32892 
         3.2359          74.666         6.25527 
        3.25157          73.665         6.18299 
        3.26729         73.0122         6.11164 
        3.28304         72.0591         6.04129 
        3.29877         71.4864         5.97215 
        3.31446         70.6506         5.90426 
        3.33014         70.0523         5.83749 
        3.34585         69.3203         5.77167 
        3.36158         68.5805         5.70677 
        3.37727         67.7841         5.64308 
        3.39294         67.0289         5.58044 
        3.40867         66.4755         5.51852 
        3.42439         65.6277          5.4576 
        3.44008         64.9949         5.39772 
        3.45578         64.4455          5.3387 
        3.47153         63.7176         5.28045 
        3.48724         63.0052         5.22317 
        3.50292         62.6046         5.16689 
        3.51859          62.092         5.11148 
        3.53431         61.1221         5.05671 
        3.55007         60.6211         5.00262 
        3.56577         60.1933         4.94954 
        3.58146         59.3896         4.89726 
        3.59719         59.0458         4.84563 
        3.61292         58.4317         4.79476 
        3.62859         57.8168         4.74483 
        3.64429         57.1393         4.69552 
        3.66003         56.7303         4.64676 
        3.67578         56.1371         4.59872 
        3.69146          55.593         4.55155 
        3.70712         55.1531         4.50514 
        3.72284         54.5095          4.4592 
        3.73853         53.9916           4.414 
        3.75422          53.572         4.36941 
        3.76993         53.1034          4.3254 
        3.78564         52.5058         4.28202 
        3.80137         52.1057         4.23918 
        3.81707         51.5532         4.19701 
        3.83279         50.9672          4.1554 
        3.84853         50.6267         4.11428 
        3.86424         50.2407         4.07381 
        3.87992         49.7104         4.03394 
        3.89561         49.3045         3.99462 
        3.91134         48.7766         3.95574 
        3.92704          48.356         3.91743 
        3.94273         47.7649         3.87967 
        3.95845         47.4623         3.84235 
        3.97418         46.8932         3.80551 
        3.98988         46.4415         3.76921 
        4.00554         46.1356         3.73349 
        4.02125         45.5989         3.69814 
        4.03698         45.2543         3.66319 
        4.05268         44.9012         3.62877 
        4.06839         44.5006         3.59478 
         4.0841         44.0178         3.56124 
        4.09983         43.6877         3.52809 
        4.11555         43.1945         3.49537 
        4.13124         42.9226         3.46316 
        4.14693         42.2572         3.43134 
        4.16266         42.2478         3.39984 
        4.17839         41.7757         3.36877 
        4.19408         41.3921         3.33816 
        4.20977         41.0392         3.30791 
        4.22551         40.5965         3.27798 
        4.24123         40.1885         3.24845 
        4.25691         39.8956         3.21936 
        4.27259         39.5865         3.19063 
        4.28831         39.2682          3.1622 
        4.30404         38.9108         3.13408 
        4.31974         38.5923         3.10638 
        4.33543         38.1752         3.07902 
        4.35116         37.9053         3.05194 
        4.36688         37.5424         3.02519 
        4.38255         37.3636         2.99887 
        4.39825         36.9194         2.97281 
        4.41398         36.6746         2.94701 
         4.4297         36.2421         2.92154 
        4.44541          35.962         2.89638 
        4.46111         35.7628         2.87155 
        4.47683         35.4062         2.84698 
        4.49251         35.1406         2.82276 
        4.50819         34.8307         2.79883 
         4.5239         34.6079         2.77515 
        4.53962         34.3935         2.75171 
        4.55535         34.0381         2.72853 
        4.57106         33.7056         2.70566 
        4.58678         33.4008         2.68305 
         4.6025         33.0141         2.66069 
        4.61821         32.7195          2.6386 
        4.63391         32.5384         2.61678 
         4.6496         32.3246         2.59523 
        4.66532         32.0787         2.57388 
        4.68103         31.7408         2.55279 
        4.69673         31.4326         2.53196 
        4.71241         31.2562         2.51138 
        4.72811          31.031           2.491 
        4.74384         30.6772         2.47082 
        4.75955         30.5605          2.4509 
        4.77525         30.2595         2.43121 
        4.79096          30.039         2.41172 
        4.80669         29.7182         2.39243 
         4.8224         29.5234         2.37338 
        4.83809         29.2546         2.35456 
        4.85379         29.0923         2.33593 
         4.8695         28.8168         2.31749 
        4.88521         28.5553         2.29926 
        4.90093         28.3462         2.28122 
        4.91663         28.0941          2.2634 
        4.93234         27.9222         2.24575 
        4.94807         27.7043         2.22827 
        4.96377         27.5385         2.21102 
        4.97943         27.2351         2.19399 
        4.99514         27.0042          2.1771 
        5.01086         26.7993         2.16037 
        5.02654         26.5568         2.14387 
        5.04227         26.3466         2.12748 
          5.058         26.1759         2.11127 
        5.07371         25.9855         2.09526 
        5.08942         25.7433         2.07941 
        5.10513         25.5142         2.06372 
        5.12084         25.4162          2.0482 
        5.13656         25.1909         2.03283 
        5.15225         25.0299         2.01765 
        5.16796         24.7622         2.00261 
        5.18369           24.59          1.9877 
         5.1994         24.4014         1.97298 
        5.21509         24.1972         1.95842 
        5.23079         24.0684         1.94399 
        5.24649         23.8257         1.92972 
        5.26217         23.6351          1.9156 
        5.27788         23.4152          1.9016 
        5.29359         23.2445         1.88775 
        5.30933         23.1433         1.87401 
        5.32504         22.9604         1.86044 
        5.34073         22.8088         1.84701 
        5.35646         22.6099          1.8337 
        5.37218          22.408         1.82051 
        5.38789         22.2606         1.80747 
        5.40357         22.0967         1.79458 
        5.41929         21.9318         1.78179 
        5.43502         21.7231         1.76912 
         5.4507         21.6034         1.75661 
        5.46639         21.4076         1.74421 
        5.48212         21.2691         1.73191 
        5.49786         21.0653         1.71972 
        5.51353         20.9468          1.7077 
        5.52921         20.8172         1.69579 
        5.54495         20.5993         1.68395 
        5.56066         20.4956         1.67225 
        5.57637         20.3686         1.66065 
        5.59207         20.2305         1.64918 
        5.60778         20.0727         1.63782 
        5.62346         19.9184         1.62657 
        5.63916         19.7852         1.61543 
        5.65487         19.6055         1.60438 
         5.6706         19.4513         1.59342 
        5.68633         19.2786         1.58257 
        5.70203         19.1992         1.57184 
        5.71773         19.0602         1.56121 
        5.73344         18.8955         1.55067 
        5.74916         18.7926         1.54023 
        5.76486         18.6268         1.52989 
        5.78054         18.4842         1.51967 
        5.79626         18.3729         1.50951 
          5.812         18.2224         1.49943 
         5.8277          18.122         1.48948 
        5.84339         17.9697         1.47962 
        5.85911         17.8439         1.46983 
        5.87484         17.7104         1.46013 
        5.89053         17.6176         1.45054 
        5.90623         17.4659         1.44103 
        5.92195         17.3789         1.43159 
        5.93767         17.2127         1.42225 
        5.95336         17.0769           1.413 
        5.96905         17.0096         1.40384 
        5.98476         16.8579         1.39474 
        6.00048          16.725         1.38573 
        6.01617         16.6257         1.37681 
        6.03185         16.5025         1.36797 
        6.04756          16.385          1.3592 
        6.06331         16.2968         1.35048 
        6.07903         16.1955         1.34186 
        6.09473         16.0339         1.33333 
        6.11044         15.9208         1.32486 
        6.12616         15.8612         1.31647 
        6.14186         15.7272         1.30815 
        6.15755         15.6143         1.29992 
        6.17326         15.5059         1.29174 
        6.18898         15.4137         1.28364 
        6.20467         15.2859         1.27561 
        6.22036         15.2158         1.26766 
         6.2361         15.0938         1.25976 
         6.2518         14.9867         1.25194 
        6.26748         14.8576          1.2442 
        6.28319         14.7803          1.2365 
        6.29893         14.7047         1.22887 
        6.31463         14.6048         1.22131 
        6.33033         14.4566         1.21382 
        6.34604         14.3811         1.20638 
        6.36177         14.3189         1.19901 
        6.37747         14.2054         1.19171 
