# k  (h/Mpc)    Pcb(k)  (Mpc/h)^3    Pcb_linear(k) (Mpc/h)^3   ShotnoiseSubtracted = true
      0.0200456         25425.9         25942.7 
      0.0350414         18717.2           18082 
      0.0492313         12361.8         12639.7 
      0.0637834         10108.9         10657.3 
      0.0800726         8115.33          8741.5 
       0.096163         6449.88         6188.67 
       0.111083         5129.58         4780.17 
       0.126058         4279.95         4321.07 
       0.142273         3834.08         3796.07 
       0.158546         3125.33         2965.33 
        0.17375         2777.96         2424.33 
       0.188953         2655.26          2212.5 
       0.204907         2298.02         2021.85 
       0.220756         2088.68          1716.9 
        0.23588         1855.18         1461.54 
         0.2514         1686.66         1322.74 
       0.267535         1625.47         1222.75 
       0.283568          1457.1         1089.83 
       0.299022         1385.01         961.108 
       0.314451         1446.49         872.545 
       0.330372         1289.86         808.853 
       0.346141         1183.87         742.043 
       0.361624         1135.01         673.219 
       0.377134         1093.09         616.392 
       0.392932         1035.65         572.368 
       0.408854         997.669         531.706 
       0.424564         975.729         491.252 
       0.440253         908.732          454.59 
       0.455999         867.909         423.985 
       0.471626         882.035         397.183 
        0.48727         832.338         371.447 
       0.502856         806.471         347.451 
       0.518488         775.383         326.065 
       0.534347         749.698         306.754 
       0.550082         713.887         288.965 
       0.565732         701.454         272.341 
       0.581496          686.88          256.98 
       0.597222          674.39         243.048 
       0.612804         655.734           230.3 
       0.628434         629.472          218.35 
       0.644267         612.238         207.063 
       0.660051          605.59         196.677 
       0.675724         593.154         187.113 
       0.691403         573.576         178.182 
       0.707174         557.958         169.788 
       0.722871         554.999         161.971 
        0.73838         538.249         154.733 
       0.754018         527.665         147.885 
       0.769845          519.38         141.381 
        0.78569          507.89         135.265 
       0.801365         491.559         129.576 
       0.817031         486.028         124.222 
       0.832809         477.587         119.141 
       0.848511         470.065         114.372 
       0.864097          459.73         109.902 
       0.879701          459.89         105.671 
       0.895507         441.307         101.616 
       0.911279         435.944         97.7861 
        0.92691         429.869         94.1887 
       0.942635         423.022         90.7554 
       0.958396         411.347         87.4887 
       0.974128         404.339         84.3914 
       0.989692         394.279          81.477 
        1.00528          388.53         78.6982 
        1.02113         382.128         76.0072 
        1.03692         376.346          73.454 
        1.05264         371.771         71.0315 
        1.06832          362.21         68.7237 
        1.08405         360.963         66.5137 
        1.09979         351.916          64.401 
        1.11537         343.293         62.4024 
        1.13105         338.817         60.4778 
        1.14679          332.95         58.6282 
        1.16256         330.969         56.8535 
        1.17828         325.185         55.1591 
        1.19395         317.501         53.5406 
         1.2097         313.549         51.9796 
        1.22537         309.479         50.4893 
          1.241         301.893         49.0629 
        1.25666         299.047         47.6887 
        1.27241         295.573         46.3615 
        1.28819         287.143         45.0834 
        1.30392         287.052         43.8578 
        1.31957         279.636         42.6839 
        1.33529          275.32         41.5493 
        1.35108         274.203          40.452 
        1.36674         266.706         39.4028 
         1.3824         262.661         38.3923 
        1.39811         259.245         37.4143 
        1.41389         254.353         36.4672 
        1.42964         250.357         35.5549 
        1.44531         247.539         34.6787 
        1.46101         242.013         33.8306 
        1.47667         239.901         33.0137 
        1.49229         236.827         32.2264 
        1.50793         232.532         31.4642 
        1.52367         228.519         30.7221 
        1.53953         225.284         29.9993 
        1.55526         221.808         29.3058 
        1.57092         219.827         28.6374 
        1.58662         214.964         27.9885 
        1.60235         212.309         27.3588 
        1.61809         210.097         26.7483 
        1.63369         205.921         26.1621 
        1.64941         203.149         25.5896 
        1.66519         200.185         25.0323 
        1.68085         196.689         24.4958 
        1.69652         194.014         23.9751 
        1.71228         191.237         23.4668 
        1.72806         189.003         22.9729 
        1.74368         186.351         22.4985 
        1.75933         184.546         22.0366 
        1.77505         181.731         21.5857 
        1.79081         178.837         21.1468 
         1.8065          178.16         20.7222 
        1.82218         172.876         20.3097 
        1.83797         171.633         19.9058 
        1.85367         168.964         19.5152 
        1.86928         166.396         19.1376 
        1.88497         164.263          18.768 
        1.90073         163.006         18.4069 
        1.91647         160.067         18.0558 
        1.93218          157.01         17.7147 
        1.94787         155.145         17.3831 
        1.96363         153.956         17.0587 
        1.97935          152.11         16.7433 
        1.99499         149.677         16.4379 
        2.01064         146.476         16.1396 
         2.0264          145.86          15.847 
        2.04216         143.003         15.5619 
        2.05781         140.781         15.2857 
        2.07353         140.129         15.0153 
        2.08928         138.132         14.7509 
        2.10499         136.093         14.4937 
        2.12065         134.712         14.2435 
        2.13633         132.687          13.999 
        2.15211         130.572         13.7587 
        2.16785          129.28         13.5248 
        2.18349         127.723         13.2979 
        2.19916         126.215         13.0758 
        2.21489         123.853         12.8581 
        2.23063         122.619         12.6452 
         2.2463         120.841         12.4382 
        2.26194         119.843         12.2364 
        2.27765         117.814         12.0381 
        2.29341         116.864         11.8437 
        2.30914         115.108         11.6541 
        2.32486         113.738         11.4687 
        2.34061          112.01         11.2872 
        2.35635         110.924         11.1097 
        2.37203         109.132         10.9368 
        2.38768         108.291         10.7679 
        2.40339         106.458          10.602 
        2.41914         105.262         10.4393 
        2.43483         104.157         10.2806 
         2.4505         103.148         10.1255 
        2.46622         101.197         9.97312 
        2.48195          100.14         9.82389 
        2.49759         98.5441         9.67855 
        2.51328         97.6633          9.5358 
        2.52906          96.738         9.39506 
        2.54479         95.4561         9.25771 
        2.56049         94.0411         9.12341 
        2.57618         93.0158         8.99193 
        2.59189         92.3923         8.86286 
        2.60758         90.7857         8.73656 
        2.62325         89.8938          8.6129 
        2.63898         88.6159         8.49123 
        2.65468         88.0373         8.37219 
        2.67044          87.046         8.25495 
        2.68618          85.739         8.14026 
        2.70184         84.6678         8.02822 
        2.71755         83.8631         7.91804 
        2.73329         82.5587         7.80977 
        2.74897          81.823         7.70391 
        2.76462         81.3041         7.60027 
        2.78034         80.1612         7.49812 
        2.79607         78.9137         7.39777 
        2.81179         78.1467         7.29939 
        2.82749          77.446         7.20293 
        2.84321         76.2678         7.10812 
        2.85893         75.0741         7.01507 
        2.87462           74.72         6.92386 
        2.89033         73.7127          6.8342 
        2.90605         72.9384         6.74607 
        2.92176         72.3357         6.65956 
        2.93747         71.4365         6.57463 
        2.95318         70.3493         6.49118 
        2.96891         69.9248         6.40915 
        2.98456         68.7154         6.32892 
        3.00023         68.1161         6.24996 
        3.01596         67.6551         6.17212 
        3.03164           66.67         6.09583 
        3.04738          66.276         6.02063 
         3.0631         65.3006         5.94674 
        3.07883         64.6262          5.8741 
        3.09456         63.7307         5.80269 
        3.11026         63.4546          5.7326 
        3.12596         62.5504         5.66368 
        3.14163         61.9004         5.59607 
        3.15734         60.9546         5.52941 
        3.17308         60.6332          5.4637 
        3.18879         59.9485         5.39924 
        3.20447         59.4099         5.33592 
         3.2202         58.4495         5.27344 
         3.2359         57.9377         5.21208 
        3.25157         57.4425         5.15185 
        3.26729          56.608          5.0924 
        3.28304          56.022         5.03379 
        3.29877         55.6583         4.97618 
        3.31446         54.8023         4.91961 
        3.33014         54.2828         4.86397 
        3.34585         53.7571         4.80912 
        3.36158          53.324         4.75505 
        3.37727         52.8215         4.70198 
        3.39294         52.2206         4.64978 
        3.40867         51.7782          4.5982 
        3.42439         51.0858         4.54743 
        3.44008         50.5842         4.49754 
        3.45578         50.0578         4.44837 
        3.47153         49.6025         4.39983 
        3.48724         49.0595          4.3521 
        3.50292         48.7007         4.30521 
        3.51859         48.1654         4.25903 
        3.53431         47.6584          4.2134 
        3.55007         47.0314         4.16833 
        3.56577         46.6148          4.1241 
        3.58146         46.1323         4.08055 
        3.59719         45.7792         4.03752 
        3.61292         45.2312         3.99514 
        3.62859         44.9093         3.95353 
        3.64429         44.4439         3.91244 
        3.66003         44.0025         3.87182 
        3.67578         43.5385         3.83179 
        3.69146         43.1628         3.79249 
        3.70712         42.6866         3.75382 
        3.72284         42.2771         3.71554 
        3.73853         41.9153         3.67787 
        3.75422         41.5367         3.64072 
        3.76993         41.1442         3.60405 
        3.78564         40.7259         3.56791 
        3.80137         40.3751         3.53221 
        3.81707         39.9093         3.49708 
        3.83279         39.4893          3.4624 
        3.84853         39.1565         3.42814 
        3.86424         38.8351         3.39442 
        3.87992         38.3434          3.3612 
        3.89561         38.1619         3.32843 
        3.91134         37.7028         3.29604 
        3.92704         37.3984         3.26412 
        3.94273         37.0495         3.23266 
        3.95845         36.6526         3.20156 
        3.97418         36.3171         3.17087 
        3.98988         36.0177         3.14062 
        4.00554         35.6643         3.11086 
        4.02125         35.3216          3.0814 
        4.03698         35.0276         3.05228 
        4.05268         34.7035          3.0236 
        4.06839         34.3639         2.99528 
         4.0841         34.1014         2.96733 
        4.09983         33.7712         2.93971 
        4.11555         33.5499         2.91245 
        4.13124         33.0634         2.88561 
        4.14693         32.8285         2.85909 
        4.16266         32.5337         2.83285 
        4.17839         32.1805         2.80696 
        4.19408         31.9417         2.78145 
        4.20977         31.6717         2.75625 
        4.22551         31.3805         2.73131 
        4.24123         31.0755          2.7067 
        4.25691          30.795         2.68247 
        4.27259         30.5083         2.65853 
        4.28831         30.3261         2.63484 
        4.30404         30.0625         2.61141 
        4.31974         29.7765         2.58833 
        4.33543           29.49         2.56554 
        4.35116         29.2701         2.54297 
        4.36688         29.0007         2.52068 
        4.38255         28.7826         2.49875 
        4.39825         28.5763         2.47703 
        4.41398         28.3122         2.45553 
         4.4297         28.0105         2.43432 
        4.44541         27.8219         2.41335 
        4.46111         27.5244         2.39266 
        4.47683         27.3719         2.37219 
        4.49251          27.128         2.35201 
        4.50819         26.8607         2.33207 
         4.5239         26.6009         2.31234 
        4.53962         26.3788         2.29281 
        4.55535         26.2005          2.2735 
        4.57106         25.8855         2.25444 
        4.58678         25.7306          2.2356 
         4.6025         25.5354         2.21697 
        4.61821         25.2934         2.19856 
        4.63391         25.1187         2.18038 
         4.6496         24.8983         2.16242 
        4.66532         24.6563         2.14464 
        4.68103         24.4434         2.12706 
        4.69673         24.2993          2.1097 
        4.71241         24.0409         2.09256 
        4.72811         23.8979         2.07558 
        4.74384         23.7228         2.05876 
        4.75955         23.5796         2.04216 
        4.77525         23.3313         2.02576 
        4.79096         23.1456         2.00952 
        4.80669         22.9305         1.99344 
         4.8224         22.7194         1.97757 
        4.83809         22.5265         1.96189 
        4.85379         22.3729         1.94636 
         4.8695         22.1686           1.931 
        4.88521         22.0125         1.91581 
        4.90093         21.8089         1.90078 
        4.91663         21.6622         1.88593 
        4.93234         21.5086         1.87122 
        4.94807         21.3203         1.85666 
        4.96377         21.1383         1.84229 
        4.97943         20.9885          1.8281 
        4.99514         20.8329         1.81402 
        5.01086          20.662         1.80009 
        5.02654         20.4955         1.78633 
        5.04227         20.2842         1.77268 
          5.058         20.0932         1.75917 
        5.07371         20.0056         1.74583 
        5.08942         19.8506         1.73262 
        5.10513         19.6894         1.71956 
        5.12084         19.5526         1.70662 
        5.13656         19.4087         1.69382 
        5.15225         19.2398         1.68117 
        5.16796         19.0982         1.66863 
        5.18369          18.941         1.65621 
         5.1994         18.7647         1.64394 
        5.21509          18.634         1.63181 
        5.23079         18.5299         1.61979 
        5.24649         18.4047          1.6079 
        5.26217         18.2376         1.59613 
        5.27788         18.1272         1.58447 
        5.29359         17.9345         1.57293 
        5.30933         17.7673         1.56148 
        5.32504         17.6738         1.55017 
        5.34073         17.5358         1.53899 
        5.35646         17.3938         1.52789 
        5.37218         17.2557          1.5169 
        5.38789         17.1584         1.50604 
        5.40357         17.0434          1.4953 
        5.41929         16.8856         1.48464 
        5.43502         16.7831         1.47408 
         5.4507         16.6545         1.46366 
        5.46639         16.5364         1.45333 
        5.48212         16.4246         1.44308 
        5.49786         16.2901         1.43292 
        5.51353         16.1403         1.42291 
        5.52921         16.0228         1.41298 
        5.54495         15.9423         1.40312 
        5.56066         15.7776         1.39336 
        5.57637         15.6438         1.38371 
        5.59207         15.5425         1.37415 
        5.60778         15.4824         1.36468 
        5.62346         15.3211         1.35531 
        5.63916         15.2368         1.34602 
        5.65487         15.1041         1.33682 
         5.6706         15.0241         1.32769 
        5.68633         14.9008         1.31864 
        5.70203         14.8296          1.3097 
        5.71773         14.7027         1.30085 
        5.73344          14.599         1.29207 
        5.74916         14.4737         1.28336 
        5.76486         14.3896         1.27475 
        5.78054         14.2598         1.26623 
        5.79626         14.2044         1.25777 
          5.812         14.0816         1.24937 
         5.8277         13.9524         1.24108 
        5.84339         13.8811         1.23286 
        5.85911         13.7816         1.22471 
        5.87484         13.6709         1.21663 
        5.89053         13.5622         1.20863 
        5.90623         13.4935         1.20071 
        5.92195         13.3543         1.19285 
        5.93767         13.2851         1.18506 
        5.95336         13.2051         1.17735 
        5.96905         13.1089         1.16972 
        5.98476         13.0185         1.16214 
        6.00048         12.9059         1.15463 
        6.01617         12.8507          1.1472 
        6.03185         12.7531         1.13984 
        6.04756         12.6729         1.13253 
        6.06331          12.591         1.12526 
        6.07903         12.4665         1.11808 
        6.09473         12.3875         1.11097 
        6.11044         12.3103         1.10391 
        6.12616         12.2273         1.09692 
        6.14186         12.1346         1.08999 
        6.15755         12.0591         1.08313 
        6.17326         11.9835         1.07632 
        6.18898          11.896         1.06956 
        6.20467         11.7935         1.06288 
        6.22036         11.7189         1.05625 
         6.2361         11.6466         1.04967 
         6.2518         11.5608         1.04315 
        6.26748         11.5074          1.0367 
        6.28319         11.4261         1.03029 
        6.29893         11.3441         1.02393 
        6.31463         11.2678         1.01763 
        6.33033         11.1776         1.01139 
        6.34604         11.1217          1.0052 
        6.36177         11.0464        0.999049 
        6.37747         10.9817        0.992966 
