# k  (h/Mpc)    Pcb(k)  (Mpc/h)^3    Pcb_linear(k) (Mpc/h)^3   ShotnoiseSubtracted = true
      0.0200456         7188.37         7322.65 
      0.0350414         4996.83         5103.89 
      0.0492313         3562.13         3567.73 
      0.0637834          3069.7         3008.17 
      0.0800726         2495.47          2467.4 
       0.096163         1720.56         1746.83 
       0.111083         1329.31         1349.26 
       0.126058         1236.71         1219.68 
       0.142273         1095.92         1071.49 
       0.158546         889.963         837.003 
        0.17375         704.197         684.297 
       0.188953         673.821         624.507 
       0.204907         641.789         570.692 
       0.220756         540.532         484.617 
        0.23588         468.773         412.538 
         0.2514         411.772         373.361 
       0.267535         395.977         345.137 
       0.283568         360.092         307.619 
       0.299022          330.93         271.285 
       0.314451         303.509         246.287 
       0.330372         282.106         228.309 
       0.346141         254.558         209.451 
       0.361624         242.941         190.025 
       0.377134         227.526         173.985 
       0.392932          209.06         161.558 
       0.408854         200.868         150.081 
       0.424564         192.598         138.662 
       0.440253         181.823         128.314 
       0.455999         171.037         119.675 
       0.471626         158.459          112.11 
        0.48727         153.798         104.846 
       0.502856         147.413         98.0725 
       0.518488         143.565         92.0361 
       0.534347          137.16         86.5852 
       0.550082         127.062         81.5641 
       0.565732         122.604         76.8716 
       0.581496         117.712         72.5359 
       0.597222         113.936         68.6033 
       0.612804         108.605         65.0052 
       0.628434         106.263         61.6321 
       0.644267         102.612         58.4462 
       0.660051         100.245         55.5146 
       0.675724         96.7639         52.8149 
       0.691403         93.8805         50.2943 
       0.707174         90.4598         47.9248 
       0.722871         88.6534         45.7183 
        0.73838         86.8522         43.6752 
       0.754018         82.5797         41.7425 
       0.769845         81.0307         39.9065 
        0.78569         78.9994         38.1803 
       0.801365         76.4919         36.5744 
       0.817031         74.0943         35.0632 
       0.832809          73.275         33.6291 
       0.848511         70.0936         32.2831 
       0.864097         68.4534         31.0213 
       0.879701         67.5696         29.8269 
       0.895507         66.3263         28.6824 
       0.911279         65.0203         27.6014 
        0.92691         63.3772          26.586 
       0.942635         61.2815         25.6169 
       0.958396          61.054         24.6948 
       0.974128         59.4607         23.8205 
       0.989692         58.2845         22.9979 
        1.00528         57.0537         22.2136 
        1.02113         55.6958          21.454 
        1.03692         54.3325         20.7333 
        1.05264         54.0437         20.0496 
        1.06832         52.5078         19.3981 
        1.08405         51.8897         18.7743 
        1.09979         51.2055          18.178 
        1.11537         49.3229         17.6139 
        1.13105          49.649         17.0706 
        1.14679         48.5881         16.5486 
        1.16256         47.5847         16.0476 
        1.17828         46.4889         15.5694 
        1.19395         45.9705         15.1125 
         1.2097         45.1744         14.6719 
        1.22537         44.9285         14.2513 
          1.241         43.7595         13.8486 
        1.25666         42.8775         13.4608 
        1.27241         42.5031         13.0861 
        1.28819         41.3873         12.7254 
        1.30392         40.9238         12.3794 
        1.31957         40.6183         12.0481 
        1.33529         40.1386         11.7278 
        1.35108         39.5629         11.4181 
        1.36674         38.8775         11.1219 
         1.3824         37.8982         10.8367 
        1.39811         37.8268         10.5607 
        1.41389         37.2545         10.2933 
        1.42964         36.5785         10.0358 
        1.44531         36.2539          9.7885 
        1.46101         35.3692         9.54911 
        1.47667         35.2859         9.31855 
        1.49229          34.932         9.09632 
        1.50793         34.2942         8.88118 
        1.52367          33.944         8.67171 
        1.53953         33.6811         8.46768 
        1.55526         32.9969         8.27194 
        1.57092         32.6653         8.08327 
        1.58662         32.2086         7.90012 
        1.60235         31.8744         7.72236 
        1.61809         31.3879         7.55005 
        1.63369         31.0028          7.3846 
        1.64941         30.5208         7.22299 
        1.66519         30.2849         7.06569 
        1.68085         29.9223         6.91426 
        1.69652         29.5915         6.76728 
        1.71228         29.3476         6.62379 
        1.72806         28.8713         6.48441 
        1.74368         28.4642         6.35048 
        1.75933         28.1317         6.22012 
        1.77505         28.0081         6.09285 
        1.79081         27.5296         5.96897 
         1.8065          27.265          5.8491 
        1.82218          27.023         5.73267 
        1.83797         26.6286         5.61866 
        1.85367         26.2938         5.50841 
        1.86928         26.0568         5.40182 
        1.88497         25.6605         5.29751 
        1.90073         25.6562         5.19559 
        1.91647         25.1771         5.09649 
        1.93218         24.9985         5.00021 
        1.94787          24.718         4.90659 
        1.96363          24.579         4.81503 
        1.97935         24.2646         4.72602 
        1.99499         23.9609         4.63979 
        2.01064         23.7814         4.55562 
         2.0264         23.3424         4.47303 
        2.04216         23.1481         4.39255 
        2.05781         22.9308         4.31459 
        2.07353         22.7036         4.23826 
        2.08928         22.6567         4.16364 
        2.10499         22.3432         4.09103 
        2.12065         21.9508          4.0204 
        2.13633         21.9055         3.95139 
        2.15211         21.4878         3.88357 
        2.16785         21.4079         3.81756 
        2.18349         21.1985         3.75351 
        2.19916         20.9856         3.69081 
        2.21489         20.7461         3.62936 
        2.23063         20.5726         3.56928 
         2.2463         20.3974         3.51085 
        2.26194         20.2646         3.45388 
        2.27765         19.9481         3.39791 
        2.29341         19.7128         3.34304 
        2.30914         19.6272         3.28951 
        2.32486         19.4534          3.2372 
        2.34061         19.2418         3.18595 
        2.35635         18.9574         3.13587 
        2.37203         18.8551         3.08705 
        2.38768          18.694         3.03938 
        2.40339         18.5077         2.99256 
        2.41914          18.318         2.94663 
        2.43483         18.1503         2.90183 
         2.4505         17.9318         2.85805 
        2.46622         17.7815         2.81504 
        2.48195         17.6291         2.77292 
        2.49759         17.4191         2.73189 
        2.51328         17.2852          2.6916 
        2.52906         17.1862         2.65187 
        2.54479         16.9957         2.61311 
        2.56049         16.8457          2.5752 
        2.57618         16.7094         2.53809 
        2.59189         16.5724         2.50166 
        2.60758         16.4296         2.46601 
        2.62325         16.2881          2.4311 
        2.63898         16.1293         2.39676 
        2.65468         16.0234         2.36316 
        2.67044         15.8224         2.33007 
        2.68618          15.711         2.29769 
        2.70184         15.5755         2.26607 
        2.71755         15.3859         2.23497 
        2.73329         15.2973         2.20441 
        2.74897         15.1022         2.17453 
        2.76462         15.1336         2.14527 
        2.78034         14.8777         2.11644 
        2.79607           14.73         2.08812 
        2.81179         14.6281         2.06035 
        2.82749         14.5092         2.03312 
        2.84321         14.3467         2.00636 
        2.85893         14.2464         1.98009 
        2.87462         14.1355         1.95435 
        2.89033           13.95         1.92904 
        2.90605         13.9019         1.90417 
        2.92176         13.7433         1.87975 
        2.93747         13.6653         1.85577 
        2.95318         13.4866         1.83222 
        2.96891         13.3634         1.80906 
        2.98456         13.2923         1.78642 
        3.00023         13.1812         1.76413 
        3.01596         13.0827         1.74216 
        3.03164         12.9599         1.72063 
        3.04738         12.8242          1.6994 
         3.0631         12.7381         1.67854 
        3.07883         12.5873         1.65804 
        3.09456         12.5211         1.63788 
        3.11026         12.3651          1.6181 
        3.12596         12.3089         1.59865 
        3.14163         12.2055         1.57956 
        3.15734         12.0786         1.56075 
        3.17308         11.9817          1.5422 
        3.18879         11.9409           1.524 
        3.20447         11.7842         1.50613 
         3.2202         11.6869          1.4885 
         3.2359          11.629         1.47118 
        3.25157         11.5375         1.45418 
        3.26729         11.3999          1.4374 
        3.28304         11.3122         1.42085 
        3.29877         11.2076         1.40459 
        3.31446         11.1401         1.38862 
        3.33014         11.0326         1.37292 
        3.34585         10.9708         1.35744 
        3.36158         10.9065         1.34217 
        3.37727         10.7656         1.32719 
        3.39294         10.6883         1.31246 
        3.40867         10.5888          1.2979 
        3.42439         10.5025         1.28357 
        3.44008         10.4325         1.26949 
        3.45578         10.3505         1.25561 
        3.47153         10.2964         1.24191 
        3.48724         10.2025         1.22844 
        3.50292         10.1027          1.2152 
        3.51859         10.0592         1.20217 
        3.53431         9.94698         1.18929 
        3.55007         9.87225         1.17656 
        3.56577          9.8112         1.16408 
        3.58146         9.73605         1.15179 
        3.59719         9.63508         1.13964 
        3.61292         9.54948         1.12768 
        3.62859         9.46442         1.11593 
        3.64429         9.43666         1.10434 
        3.66003          9.3201         1.09287 
        3.67578         9.22696         1.08157 
        3.69146          9.1894         1.07048 
        3.70712         9.12403         1.05956 
        3.72284          9.0542         1.04876 
        3.73853         8.97463         1.03813 
        3.75422          8.9259         1.02764 
        3.76993         8.83786         1.01729 
        3.78564         8.75634         1.00709 
        3.80137         8.69727        0.997011 
        3.81707         8.61636        0.987095 
        3.83279          8.5676        0.977306 
        3.84853         8.49394        0.967636 
        3.86424         8.42728        0.958118 
        3.87992         8.34125        0.948742 
        3.89561         8.30916        0.939493 
        3.91134         8.24984         0.93035 
        3.92704         8.16184         0.92134 
        3.94273         8.12324        0.912459 
        3.95845         8.06393        0.903681 
        3.97418         7.96676        0.895017 
        3.98988         7.91908         0.88648 
        4.00554         7.86356        0.878079 
        4.02125          7.8051        0.869763 
        4.03698         7.75362        0.861544 
        4.05268         7.69582         0.85345 
        4.06839         7.61161        0.845456 
         4.0841         7.56558        0.837567 
        4.09983         7.52934         0.82977 
        4.11555         7.46428        0.822075 
        4.13124         7.41234          0.8145 
        4.14693         7.33607        0.807015 
        4.16266         7.28313        0.799608 
        4.17839         7.23653          0.7923 
        4.19408         7.16826          0.7851 
        4.20977         7.11982        0.777987 
        4.22551         7.06792        0.770947 
        4.24123          7.0042        0.764001 
        4.25691         6.95292        0.757162 
        4.27259         6.91094        0.750404 
        4.28831         6.85136        0.743716 
        4.30404         6.80218        0.737104 
        4.31974         6.74468        0.730588 
        4.33543         6.69897        0.724155 
        4.35116         6.63956        0.717785 
        4.36688         6.59231        0.711494 
        4.38255         6.54823        0.705304 
        4.39825          6.4811        0.699174 
        4.41398         6.45829        0.693106 
         4.4297         6.41239        0.687116 
        4.44541         6.35125          0.6812 
        4.46111          6.3292        0.675358 
        4.47683          6.2553        0.669581 
        4.49251         6.23622        0.663885 
        4.50819           6.169        0.658256 
         4.5239         6.12559        0.652686 
        4.53962         6.09691        0.647174 
        4.55535          6.0372        0.641723 
        4.57106         5.99213        0.636344 
        4.58678         5.95321        0.631025 
         4.6025         5.90479        0.625767 
        4.61821         5.85859        0.620571 
        4.63391         5.82631         0.61544 
         4.6496         5.77687        0.610371 
        4.66532         5.75907        0.605351 
        4.68103         5.68897         0.60039 
        4.69673         5.67431         0.59549 
        4.71241         5.61646        0.590651 
        4.72811         5.57435        0.585858 
        4.74384         5.53298        0.581112 
        4.75955         5.49021        0.576427 
        4.77525         5.46609        0.571796 
        4.79096         5.42504        0.567211 
        4.80669         5.39264        0.562675 
         4.8224         5.35727        0.558194 
        4.83809         5.30687        0.553767 
        4.85379         5.25567        0.549386 
         4.8695         5.23915        0.545049 
        4.88521         5.20162        0.540761 
        4.90093         5.14727         0.53652 
        4.91663         5.12703        0.532328 
        4.93234         5.10062        0.528176 
        4.94807          5.0502        0.524067 
        4.96377         5.01402         0.52001 
        4.97943         4.97654        0.516004 
        4.99514         4.93572        0.512031 
        5.01086         4.90733        0.508097 
        5.02654           4.885        0.504215 
        5.04227         4.84757        0.500362 
          5.058         4.81016        0.496549 
        5.07371         4.78478        0.492783 
        5.08942         4.74659        0.489055 
        5.10513         4.72003        0.485367 
        5.12084         4.69307        0.481715 
        5.13656         4.65791        0.478101 
        5.15225          4.6307        0.474531 
        5.16796         4.59462        0.470993 
        5.18369         4.55888        0.467487 
         5.1994         4.53592        0.464024 
        5.21509         4.49715        0.460599 
        5.23079         4.47883        0.457206 
        5.24649         4.44178        0.453849 
        5.26217         4.41122        0.450529 
        5.27788         4.37668        0.447238 
        5.29359         4.34396        0.443979 
        5.30933         4.32573        0.440748 
        5.32504         4.29358        0.437556 
        5.34073         4.26299        0.434399 
        5.35646         4.23282        0.431266 
        5.37218         4.20623        0.428165 
        5.38789         4.18284        0.425099 
        5.40357           4.155        0.422067 
        5.41929         4.12273        0.419058 
        5.43502         4.10448        0.416079 
         5.4507         4.07017        0.413136 
        5.46639         4.04425        0.410221 
        5.48212         4.02092        0.407328 
        5.49786         3.99709         0.40446 
        5.51353         3.96822        0.401633 
        5.52921         3.94372        0.398831 
        5.54495         3.91487        0.396048 
        5.56066         3.89735        0.393295 
        5.57637          3.8685        0.390568 
        5.59207         3.83957        0.387871 
        5.60778         3.81955        0.385197 
        5.62346          3.7892        0.382553 
        5.63916         3.77285        0.379932 
        5.65487         3.74295        0.377334 
         5.6706         3.72044        0.374757 
        5.68633         3.70251        0.372204 
        5.70203         3.67335         0.36968 
        5.71773         3.65744         0.36718 
        5.73344         3.63493        0.364702 
        5.74916         3.60945        0.362245 
        5.76486         3.58947        0.359814 
        5.78054         3.56608         0.35741 
        5.79626         3.54224        0.355021 
          5.812         3.52326        0.352651 
         5.8277         3.50525        0.350311 
        5.84339         3.47553        0.347992 
        5.85911         3.46249        0.345689 
        5.87484         3.43958        0.343408 
        5.89053         3.41967        0.341152 
        5.90623          3.3972        0.338916 
        5.92195         3.37545        0.336696 
        5.93767         3.36261        0.334498 
        5.95336         3.33894        0.332322 
        5.96905          3.3161        0.330168 
        5.98476         3.29525        0.328029 
        6.00048         3.27052        0.325909 
        6.01617          3.2572        0.323811 
        6.03185         3.23224        0.321734 
        6.04756         3.22388         0.31967 
        6.06331          3.1934         0.31762 
        6.07903         3.17845        0.315593 
        6.09473         3.16461        0.313585 
        6.11044         3.14111        0.311593 
        6.12616         3.12523        0.309619 
        6.14186         3.10955        0.307664 
        6.15755         3.08552        0.305727 
        6.17326         3.07072        0.303805 
        6.18898         3.04947        0.301898 
        6.20467         3.03595        0.300011 
        6.22036         3.01231        0.298141 
         6.2361         2.99908        0.296282 
         6.2518         2.97983        0.294442 
        6.26748         2.96343        0.292622 
        6.28319         2.94232        0.290812 
        6.29893         2.92855        0.289017 
        6.31463         2.91376        0.287239 
        6.33033         2.90438        0.285477 
        6.34604          2.8801        0.283729 
        6.36177         2.85894        0.281994 
        6.37747         2.84578        0.280277 
