# k  (h/Mpc)    Pcb(k)  (Mpc/h)^3    Pcb_linear(k) (Mpc/h)^3   ShotnoiseSubtracted = true
      0.0200456         27157.2         27721.1 
      0.0350414         20012.2         19321.6 
      0.0492313         13185.8         13506.2 
      0.0637834         10780.3         11387.9 
      0.0800726            8648         9340.73 
       0.096163         6896.82         6612.91 
       0.111083         5486.76         5107.85 
       0.126058         4576.01         4617.29 
       0.142273         4103.62         4056.29 
       0.158546         3344.12         3168.61 
        0.17375         2984.74         2590.52 
       0.188953         2862.11         2364.17 
       0.204907         2476.03         2160.45 
       0.220756          2254.4          1834.6 
        0.23588         2003.39         1561.73 
         0.2514         1825.99         1413.42 
       0.267535         1756.01         1306.57 
       0.283568         1579.25         1164.54 
       0.299022         1499.79         1026.99 
       0.314451         1567.49         932.358 
       0.330372         1407.01           864.3 
       0.346141         1292.27         792.911 
       0.361624         1237.84         719.368 
       0.377134            1195         658.646 
       0.392932         1128.54         611.604 
       0.408854         1090.07         568.155 
       0.424564         1066.25         524.927 
       0.440253         997.569         485.752 
       0.455999         952.509         453.049 
       0.471626         964.833          424.41 
        0.48727         912.131          396.91 
       0.502856         888.926         371.269 
       0.518488         851.241         348.417 
       0.534347         826.003         327.782 
       0.550082         788.082         308.774 
       0.565732         772.001          291.01 
       0.581496         755.713         274.596 
       0.597222         744.255         259.709 
       0.612804         722.436         246.088 
       0.628434         694.492         233.318 
       0.644267         675.989         221.258 
       0.660051         668.245         210.159 
       0.675724          655.96         199.939 
       0.691403          631.49         190.397 
       0.707174         616.141         181.427 
       0.722871         614.496         173.074 
        0.73838         593.638          165.34 
       0.754018         584.283         158.023 
       0.769845         573.784         151.072 
        0.78569         560.893         144.538 
       0.801365         544.472         138.458 
       0.817031         536.899         132.737 
       0.832809         526.985         127.308 
       0.848511         517.844         122.213 
       0.864097         508.452         117.436 
       0.879701         509.685         112.915 
       0.895507         489.704         108.582 
       0.911279         484.603         104.489 
        0.92691         476.337         100.645 
       0.942635         468.005         96.9767 
       0.958396         457.584         93.4861 
       0.974128         448.688         90.1764 
       0.989692         439.038         87.0623 
        1.00528         431.307          84.093 
        1.02113         423.941         81.2176 
        1.03692         417.929         78.4893 
        1.05264          413.24         75.9008 
        1.06832           402.9         73.4347 
        1.08405         401.037         71.0732 
        1.09979         390.388         68.8157 
        1.11537          382.05         66.6801 
        1.13105         376.574         64.6236 
        1.14679         370.256         62.6472 
        1.16256         367.573         60.7508 
        1.17828         361.465         58.9403 
        1.19395         353.613         57.2108 
         1.2097         347.188         55.5428 
        1.22537         343.414         53.9504 
          1.241         335.511         52.4261 
        1.25666          332.02         50.9578 
        1.27241         329.306         49.5396 
        1.28819         319.574         48.1738 
        1.30392         318.057         46.8643 
        1.31957         311.231         45.6099 
        1.33529         306.557         44.3975 
        1.35108         305.726          43.225 
        1.36674         297.454         42.1039 
         1.3824         291.569         41.0241 
        1.39811         287.844         39.9791 
        1.41389         283.419          38.967 
        1.42964         278.732         37.9922 
        1.44531         274.624         37.0559 
        1.46101         268.012         36.1497 
        1.47667         266.767         35.2768 
        1.49229         263.289         34.4356 
        1.50793         257.609         33.6211 
        1.52367         253.551         32.8281 
        1.53953         250.453         32.0558 
        1.55526         245.607         31.3147 
        1.57092         243.502         30.6005 
        1.58662         238.343         29.9071 
        1.60235         234.868         29.2342 
        1.61809         232.835         28.5819 
        1.63369         228.014         27.9556 
        1.64941          225.49         27.3438 
        1.66519         221.727         26.7483 
        1.68085         217.896          26.175 
        1.69652         214.706         25.6186 
        1.71228         211.552         25.0754 
        1.72806         208.914         24.5478 
        1.74368          205.58         24.0408 
        1.75933         203.469         23.5473 
        1.77505         200.125         23.0655 
        1.79081         197.539         22.5965 
         1.8065         196.569         22.1427 
        1.82218         191.058         21.7019 
        1.83797         189.392         21.2703 
        1.85367         186.652          20.853 
        1.86928         183.417         20.4494 
        1.88497         181.118         20.0545 
        1.90073         179.611         19.6687 
        1.91647         176.728         19.2936 
        1.93218          173.51         18.9291 
        1.94787         170.723         18.5747 
        1.96363         169.558         18.2281 
        1.97935         166.878         17.8911 
        1.99499         165.209         17.5647 
        2.01064         161.176          17.246 
         2.0264         160.302         16.9334 
        2.04216         157.503         16.6287 
        2.05781         155.323         16.3336 
        2.07353         154.421         16.0446 
        2.08928         152.396         15.7621 
        2.10499         149.465         15.4873 
        2.12065          147.94         15.2198 
        2.13633         145.839         14.9586 
        2.15211         143.799         14.7019 
        2.16785         142.283          14.452 
        2.18349         140.132         14.2095 
        2.19916         139.293         13.9722 
        2.21489         136.049         13.7395 
        2.23063         134.555         13.5121 
         2.2463         132.739         13.2909 
        2.26194         131.767         13.0752 
        2.27765         129.535         12.8633 
        2.29341          128.26         12.6556 
        2.30914          126.34          12.453 
        2.32486         125.083         12.2549 
        2.34061         122.933         12.0609 
        2.35635         121.371         11.8713 
        2.37203          120.18         11.6865 
        2.38768          118.64         11.5061 
        2.40339         117.207         11.3288 
        2.41914         115.391         11.1549 
        2.43483         114.104         10.9853 
         2.4505         113.208         10.8196 
        2.46622         111.145         10.6568 
        2.48195         109.762         10.4973 
        2.49759         108.093          10.342 
        2.51328          107.08         10.1895 
        2.52906         105.914         10.0391 
        2.54479         104.671         9.89233 
        2.56049         103.146         9.74883 
        2.57618         102.175         9.60833 
        2.59189         101.335         9.47041 
        2.60758         99.8578         9.33545 
        2.62325         98.3132         9.20332 
        2.63898         96.7685         9.07331 
        2.65468          96.148         8.94611 
        2.67044         95.1202         8.82083 
        2.68618         93.8748         8.69827 
        2.70184         92.9077         8.57856 
        2.71755         91.3428         8.46082 
        2.73329         90.3719         8.34514 
        2.74897         89.4447         8.23202 
        2.76462         88.6589         8.12127 
        2.78034         87.8439         8.01212 
        2.79607         86.5026         7.90489 
        2.81179         85.6075         7.79977 
        2.82749         84.7838         7.69669 
        2.84321         83.4169         7.59538 
        2.85893         82.5032         7.49595 
        2.87462         81.5772         7.39849 
        2.89033         80.6801         7.30269 
        2.90605          79.798         7.20852 
        2.92176         78.9666         7.11608 
        2.93747         78.1853         7.02532 
        2.95318         77.1637         6.93615 
        2.96891         76.6138          6.8485 
        2.98456         75.2716         6.76277 
        3.00023         74.6038          6.6784 
        3.01596         74.1129         6.59522 
        3.03164         73.0259         6.51371 
        3.04738         72.4526         6.43335 
         3.0631         71.7817         6.35439 
        3.07883         70.9095         6.27677 
        3.09456         69.9876         6.20047 
        3.11026         69.4882         6.12557 
        3.12596         68.6178         6.05193 
        3.14163          67.871         5.97968 
        3.15734         67.0332         5.90846 
        3.17308         66.4703         5.83824 
        3.18879         65.6519         5.76936 
        3.20447         65.1997          5.7017 
         3.2202         64.2218         5.63494 
         3.2359         63.7942         5.56937 
        3.25157         63.0313         5.50501 
        3.26729         62.3267         5.44149 
        3.28304         61.5529         5.37885 
        3.29877         61.0629          5.3173 
        3.31446         60.3956         5.25685 
        3.33014         59.7058          5.1974 
        3.34585         59.1366         5.13879 
        3.36158         58.5688         5.08101 
        3.37727         57.8897         5.02431 
        3.39294         57.4532         4.96853 
        3.40867         56.9061         4.91341 
        3.42439         56.0296         4.85916 
        3.44008         55.5309         4.80585 
        3.45578         55.1423          4.7533 
        3.47153         54.6061         4.70144 
        3.48724          53.917         4.65044 
        3.50292         53.5381         4.60033 
        3.51859         52.9012         4.55099 
        3.53431         52.3058         4.50223 
        3.55007         51.7671         4.45407 
        3.56577         51.2646         4.40681 
        3.58146          50.716         4.36027 
        3.59719         50.3963          4.3143 
        3.61292         49.8621         4.26901 
        3.62859         49.3893         4.22455 
        3.64429         48.9034         4.18064 
        3.66003         48.3907         4.13724 
        3.67578         47.8955         4.09447 
        3.69146         47.4358         4.05247 
        3.70712         46.8765         4.01114 
        3.72284         46.3513         3.97024 
        3.73853         46.1274         3.92999 
        3.75422         45.6722         3.89029 
        3.76993         45.2546         3.85111 
        3.78564         44.7262         3.81249 
        3.80137         44.2638         3.77434 
        3.81707          43.897          3.7368 
        3.83279         43.4601         3.69975 
        3.84853         43.0437         3.66314 
        3.86424         42.7001         3.62711 
        3.87992         42.1507         3.59161 
        3.89561         42.0125          3.5566 
        3.91134         41.4736         3.52199 
        3.92704         41.1768         3.48788 
        3.94273         40.7241         3.45426 
        3.95845         40.2495         3.42103 
        3.97418          39.973         3.38823 
        3.98988         39.5047         3.35591 
        4.00554         39.2438         3.32411 
        4.02125         38.8052         3.29263 
        4.03698         38.5666         3.26151 
        4.05268          38.206         3.23087 
        4.06839         37.8715         3.20061 
         4.0841         37.5604         3.17074 
        4.09983         37.2354         3.14122 
        4.11555         36.9308          3.1121 
        4.13124         36.4969         3.08342 
        4.14693         36.1747         3.05509 
        4.16266         35.8529         3.02704 
        4.17839         35.4472         2.99938 
        4.19408         35.2795         2.97212 
        4.20977         34.8482         2.94519 
        4.22551         34.5417         2.91854 
        4.24123         34.2584         2.89225 
        4.25691         33.9448         2.86636 
        4.27259         33.6514         2.84077 
        4.28831         33.3289         2.81546 
        4.30404         33.0962         2.79043 
        4.31974         32.7306         2.76576 
        4.33543         32.4294          2.7414 
        4.35116         32.1811         2.71729 
        4.36688         31.9189         2.69348 
        4.38255         31.6705         2.67004 
        4.39825         31.4141         2.64683 
        4.41398         31.0928         2.62386 
         4.4297         30.8215         2.60119 
        4.44541         30.6364         2.57879 
        4.46111          30.394         2.55668 
        4.47683         30.1382         2.53481 
        4.49251          29.849         2.51324 
        4.50819         29.5658         2.49193 
         4.5239         29.2691         2.47085 
        4.53962         29.0801         2.44998 
        4.55535         28.7998         2.42934 
        4.57106         28.5732         2.40898 
        4.58678         28.3355         2.38885 
         4.6025         28.1109         2.36894 
        4.61821          27.884         2.34927 
        4.63391         27.6265         2.32985 
         4.6496         27.4162         2.31065 
        4.66532          27.191         2.29165 
        4.68103         26.9188         2.27287 
        4.69673         26.7001         2.25432 
        4.71241         26.4506           2.236 
        4.72811         26.2811         2.21786 
        4.74384         26.0806         2.19989 
        4.75955         25.9204         2.18215 
        4.77525         25.6807         2.16463 
        4.79096         25.5145         2.14727 
        4.80669         25.2595          2.1301 
         4.8224         25.0297         2.11313 
        4.83809         24.8095         2.09637 
        4.85379          24.587         2.07979 
         4.8695         24.4195         2.06337 
        4.88521         24.2228         2.04714 
        4.90093         23.9805         2.03108 
        4.91663          23.855         2.01521 
        4.93234         23.6827          1.9995 
        4.94807          23.501         1.98394 
        4.96377         23.2664         1.96858 
        4.97943         23.1152         1.95342 
        4.99514         22.9571         1.93838 
        5.01086         22.7615         1.92348 
        5.02654         22.5653         1.90879 
        5.04227         22.3971          1.8942 
          5.058         22.2529         1.87976 
        5.07371         22.0431         1.86551 
        5.08942         21.8885          1.8514 
        5.10513         21.6853         1.83743 
        5.12084         21.4991         1.82361 
        5.13656         21.4077         1.80993 
        5.15225         21.1741         1.79641 
        5.16796          21.007         1.78302 
        5.18369         20.8851         1.76975 
         5.1994         20.7094         1.75664 
        5.21509         20.5181         1.74367 
        5.23079         20.3725         1.73082 
        5.24649         20.2183         1.71812 
        5.26217         20.0926         1.70555 
        5.27788         19.9508         1.69309 
        5.29359         19.7914         1.68075 
        5.30933          19.576         1.66852 
        5.32504         19.4651         1.65644 
        5.34073         19.3172         1.64448 
        5.35646         19.1965         1.63263 
        5.37218         19.0055         1.62089 
        5.38789          18.883         1.60928 
        5.40357         18.7198          1.5978 
        5.41929         18.6181         1.58641 
        5.43502         18.4614         1.57513 
         5.4507         18.3622         1.56399 
        5.46639         18.1727         1.55296 
        5.48212         18.0439           1.542 
        5.49786         17.9217         1.53115 
        5.51353         17.7939         1.52045 
        5.52921         17.6434         1.50984 
        5.54495         17.5316          1.4993 
        5.56066         17.3893         1.48888 
        5.57637         17.2273         1.47856 
        5.59207         17.1237         1.46835 
        5.60778         17.0213         1.45823 
        5.62346         16.8645         1.44822 
        5.63916         16.7692         1.43829 
        5.65487         16.6355         1.42846 
         5.6706         16.5343          1.4187 
        5.68633         16.3834         1.40904 
        5.70203         16.2768         1.39948 
        5.71773         16.1566         1.39002 
        5.73344         16.0582         1.38064 
        5.74916           15.94         1.37134 
        5.76486         15.8476         1.36213 
        5.78054          15.731         1.35303 
        5.79626         15.6158         1.34399 
          5.812         15.5088         1.33502 
         5.8277         15.3745         1.32616 
        5.84339         15.2707         1.31738 
        5.85911         15.1485         1.30866 
        5.87484           15.02         1.30003 
        5.89053         14.9344         1.29149 
        5.90623         14.8216         1.28302 
        5.92195         14.7255         1.27462 
        5.93767         14.6306         1.26629 
        5.95336          14.524         1.25806 
        5.96905         14.4134          1.2499 
        5.98476         14.3136         1.24181 
        6.00048         14.2133         1.23378 
        6.01617         14.1154         1.22584 
        6.03185         14.0387         1.21797 
        6.04756          13.911         1.21016 
        6.06331          13.827          1.2024 
        6.07903         13.7391         1.19473 
        6.09473         13.6381         1.18713 
        6.11044          13.537         1.17959 
        6.12616         13.4689         1.17211 
        6.14186         13.3434         1.16471 
        6.15755         13.2876         1.15738 
        6.17326         13.1984          1.1501 
        6.18898          13.118         1.14288 
        6.20467         13.0097         1.13574 
        6.22036         12.9058         1.12866 
         6.2361          12.827         1.12162 
         6.2518         12.7322         1.11466 
        6.26748         12.6712         1.10777 
        6.28319         12.5588         1.10092 
        6.29893         12.4975         1.09412 
        6.31463         12.4068         1.08739 
        6.33033         12.3319         1.08072 
        6.34604         12.2467          1.0741 
        6.36177         12.1796         1.06753 
        6.37747         12.0641         1.06103 
