# k  (h/Mpc)    Pcb(k)  (Mpc/h)^3    Pcb_linear(k) (Mpc/h)^3   ShotnoiseSubtracted = true
      0.0200456         11861.9         12107.6 
      0.0350414         8188.35         8438.97 
      0.0492313         5858.22         5899.02 
      0.0637834         5085.37         4973.82 
      0.0800726         4126.16          4079.7 
       0.096163         2826.63         2888.28 
       0.111083         2193.09         2230.93 
       0.126058         2047.39         2016.66 
       0.142273         1814.99         1771.64 
       0.158546         1508.69         1383.93 
        0.17375          1187.9         1131.44 
       0.188953         1151.76         1032.59 
       0.204907         1097.14         943.605 
       0.220756         934.007         801.285 
        0.23588         817.555         682.107 
         0.2514          712.05          617.33 
       0.267535         698.114         570.664 
       0.283568          635.18          508.63 
       0.299022         591.198         448.554 
       0.314451         554.516         407.221 
       0.330372         512.277         377.495 
       0.346141         465.556         346.315 
       0.361624          448.86         314.194 
       0.377134         416.976         287.673 
       0.392932         394.983         267.127 
       0.408854         379.477          248.15 
       0.424564         360.499         229.269 
       0.440253         348.745         212.159 
       0.455999         327.859         197.876 
       0.471626         306.589         185.367 
        0.48727         297.201         173.356 
       0.502856         287.351         162.157 
       0.518488         284.041         152.176 
       0.534347         267.431         143.163 
       0.550082          251.34         134.861 
       0.565732         247.535         127.103 
       0.581496         234.829         119.934 
       0.597222         229.034         113.431 
       0.612804         221.074         107.482 
       0.628434          213.38         101.905 
       0.644267          206.34         96.6374 
       0.660051         203.941           91.79 
       0.675724         199.231         87.3262 
       0.691403         193.564         83.1585 
       0.707174         185.521         79.2407 
       0.722871         183.636         75.5924 
        0.73838         179.882         72.2144 
       0.754018         174.419         69.0187 
       0.769845          169.21          65.983 
        0.78569         167.049         63.1289 
       0.801365         161.972         60.4736 
       0.817031         156.745         57.9749 
       0.832809         154.654         55.6037 
       0.848511         150.391         53.3781 
       0.864097         148.097         51.2918 
       0.879701         144.694          49.317 
       0.895507         140.843         47.4246 
       0.911279         138.076         45.6372 
        0.92691         136.959         43.9583 
       0.942635         133.485         42.3559 
       0.958396         133.167         40.8314 
       0.974128         129.254         39.3858 
       0.989692          126.11         38.0257 
        1.00528         123.668         36.7288 
        1.02113         122.885         35.4729 
        1.03692         118.263         34.2813 
        1.05264         117.352         33.1507 
        1.06832         114.736         32.0736 
        1.08405         113.077         31.0422 
        1.09979         112.475         30.0562 
        1.11537         108.798         29.1235 
        1.13105         108.364         28.2253 
        1.14679         107.302         27.3621 
        1.16256         105.573         26.5338 
        1.17828         103.183          25.743 
        1.19395         101.551         24.9876 
         1.2097         99.5022         24.2591 
        1.22537         99.3714         23.5636 
          1.241         97.0497         22.8979 
        1.25666         95.1747         22.2565 
        1.27241         93.7604         21.6371 
        1.28819         92.3942         21.0406 
        1.30392          91.289         20.4686 
        1.31957         90.0679         19.9208 
        1.33529         88.2585         19.3912 
        1.35108         87.2562         18.8791 
        1.36674         86.3873         18.3895 
         1.3824         84.6146         17.9178 
        1.39811         83.7343         17.4614 
        1.41389         82.5387         17.0194 
        1.42964         81.3332         16.5936 
        1.44531         79.6427         16.1847 
        1.46101          78.653         15.7889 
        1.47667         78.4239         15.4077 
        1.49229         76.7898         15.0402 
        1.50793         76.2922         14.6845 
        1.52367         75.0359         14.3382 
        1.53953         73.9057         14.0008 
        1.55526          73.191         13.6772 
        1.57092         72.8896         13.3652 
        1.58662         71.1529         13.0624 
        1.60235         70.7262         12.7685 
        1.61809         69.6328         12.4836 
        1.63369         68.6304           12.21 
        1.64941         68.0126         11.9428 
        1.66519         66.4999         11.6827 
        1.68085          66.119         11.4323 
        1.69652         64.8974         11.1893 
        1.71228         64.5712          10.952 
        1.72806         63.7664         10.7216 
        1.74368         62.9932         10.5001 
        1.75933         62.0684         10.2846 
        1.77505          61.566         10.0742 
        1.79081         60.6338         9.86933 
         1.8065         60.0202         9.67114 
        1.82218         59.2119         9.47863 
        1.83797         58.5583         9.29011 
        1.85367         57.9359         9.10782 
        1.86928         57.3427         8.93158 
        1.88497         56.6013         8.75911 
        1.90073         55.7352          8.5906 
        1.91647         55.4297         8.42674 
        1.93218         54.6933         8.26755 
        1.94787         54.0198         8.11276 
        1.96363         53.3624         7.96136 
        1.97935         52.9139         7.81419 
        1.99499         52.1014         7.67162 
        2.01064         51.8571         7.53244 
         2.0264         50.6418         7.39589 
        2.04216         50.3734         7.26282 
        2.05781         49.6867         7.13391 
        2.07353         49.1627         7.00771 
        2.08928         48.5889         6.88433 
        2.10499         48.2018         6.76428 
        2.12065         47.5593         6.64748 
        2.13633         47.2514         6.53338 
        2.15211         46.9541         6.42125 
        2.16785         46.0274          6.3121 
        2.18349         45.5963          6.2062 
        2.19916          45.171         6.10254 
        2.21489         44.6926         6.00093 
        2.23063         44.0684         5.90159 
         2.2463         43.6396         5.80498 
        2.26194         42.9144         5.71079 
        2.27765         42.5325         5.61823 
        2.29341         41.9888         5.52751 
        2.30914         41.4986         5.43901 
        2.32486         40.9017         5.35251 
        2.34061         40.6877         5.26777 
        2.35635         40.1306         5.18496 
        2.37203         39.7001         5.10425 
        2.38768         39.2753         5.02543 
        2.40339         38.9839         4.94802 
        2.41914         38.6322         4.87207 
        2.43483         38.0159         4.79801 
         2.4505         37.6924         4.72562 
        2.46622         37.2786          4.6545 
        2.48195         36.9124         4.58485 
        2.49759         36.4613         4.51702 
        2.51328         35.9731          4.4504 
        2.52906         35.7341         4.38472 
        2.54479         35.1519         4.32062 
        2.56049         34.7984         4.25794 
        2.57618         34.5363         4.19657 
        2.59189         34.1408         4.13634 
        2.60758         33.9368         4.07739 
        2.62325         33.4525         4.01968 
        2.63898         33.1007          3.9629 
        2.65468         32.7173         3.90734 
        2.67044         32.3141         3.85262 
        2.68618         32.1276         3.79909 
        2.70184         31.7535         3.74681 
        2.71755         31.5573         3.69538 
        2.73329         31.1464         3.64486 
        2.74897         30.7824         3.59545 
        2.76462         30.3707         3.54708 
        2.78034         30.2573         3.49941 
        2.79607         29.9024         3.45257 
        2.81179         29.6185         3.40666 
        2.82749         29.2851         3.36164 
        2.84321         28.9383         3.31739 
        2.85893         28.6583         3.27396 
        2.87462         28.3596         3.23139 
        2.89033         28.0791         3.18955 
        2.90605         27.9072         3.14842 
        2.92176         27.6723         3.10805 
        2.93747           27.32         3.06841 
        2.95318         26.9369         3.02946 
        2.96891         26.7503         2.99118 
        2.98456         26.3961         2.95373 
        3.00023         26.1572         2.91688 
        3.01596         25.8915         2.88055 
        3.03164         25.7433         2.84495 
        3.04738         25.4592         2.80986 
         3.0631         25.2223         2.77537 
        3.07883         24.9593         2.74147 
        3.09456         24.6554         2.70814 
        3.11026         24.4482         2.67543 
        3.12596         24.2524         2.64327 
        3.14163         23.9483         2.61171 
        3.15734         23.7297          2.5806 
        3.17308         23.4669         2.54993 
        3.18879         23.3332         2.51985 
        3.20447         23.0322          2.4903 
         3.2202         22.8073         2.46114 
         3.2359         22.5755          2.4325 
        3.25157         22.5077         2.40439 
        3.26729         22.2344         2.37665 
        3.28304         21.9817         2.34929 
        3.29877         21.7539          2.3224 
        3.31446         21.5088           2.296 
        3.33014         21.3082         2.27004 
        3.34585         21.1819         2.24444 
        3.36158         20.9092          2.2192 
        3.37727          20.699         2.19444 
        3.39294         20.6025         2.17008 
        3.40867         20.3543           2.146 
        3.42439         20.1666         2.12231 
        3.44008         19.9972         2.09902 
        3.45578         19.8042         2.07607 
        3.47153         19.5485         2.05342 
        3.48724         19.4161         2.03115 
        3.50292         19.2625         2.00926 
        3.51859         19.0359         1.98771 
        3.53431         18.8532         1.96641 
        3.55007         18.6788         1.94538 
        3.56577         18.4879         1.92474 
        3.58146         18.3582         1.90441 
        3.59719         18.1219         1.88433 
        3.61292         18.0176         1.86455 
        3.62859         17.8324         1.84513 
        3.64429         17.6941         1.82596 
        3.66003         17.5563           1.807 
        3.67578         17.3365         1.78832 
        3.69146         17.2496         1.76997 
        3.70712         17.0624         1.75192 
        3.72284         16.9289         1.73406 
        3.73853         16.7621         1.71648 
        3.75422         16.5513         1.69914 
        3.76993         16.4392         1.68203 
        3.78564         16.2852         1.66516 
        3.80137         16.1513          1.6485 
        3.81707         15.9833          1.6321 
        3.83279         15.8592         1.61592 
        3.84853         15.6939         1.59993 
        3.86424           15.57         1.58419 
        3.87992         15.4403         1.56869 
        3.89561         15.2649          1.5534 
        3.91134         15.1852         1.53828 
        3.92704         15.0323         1.52338 
        3.94273         14.8919          1.5087 
        3.95845         14.7257         1.49418 
        3.97418         14.6547         1.47986 
        3.98988         14.4933         1.46574 
        4.00554         14.3698         1.45185 
        4.02125         14.2568          1.4381 
        4.03698         14.1815         1.42451 
        4.05268         13.9946         1.41113 
        4.06839         13.8704         1.39791 
         4.0841         13.7922         1.38487 
        4.09983          13.621         1.37197 
        4.11555         13.5328         1.35925 
        4.13124         13.4278         1.34673 
        4.14693         13.3024         1.33435 
        4.16266         13.1768          1.3221 
        4.17839         13.0591         1.31002 
        4.19408         12.9282         1.29812 
        4.20977         12.8756         1.28636 
        4.22551         12.7119         1.27471 
        4.24123          12.625         1.26323 
        4.25691         12.5446         1.25192 
        4.27259         12.3935         1.24075 
        4.28831         12.2777         1.22969 
        4.30404         12.1962         1.21876 
        4.31974         12.0791         1.20798 
        4.33543         12.0092         1.19735 
        4.35116          11.891         1.18681 
        4.36688         11.7869         1.17641 
        4.38255         11.6746         1.16618 
        4.39825         11.5912         1.15604 
        4.41398         11.5272         1.14601 
         4.4297         11.3791         1.13611 
        4.44541         11.2952         1.12632 
        4.46111         11.1929         1.11666 
        4.47683         11.1426         1.10711 
        4.49251          11.036         1.09769 
        4.50819         10.9631         1.08839 
         4.5239         10.8612         1.07918 
        4.53962         10.7815         1.07006 
        4.55535         10.6672         1.06105 
        4.57106         10.5686         1.05216 
        4.58678         10.4976         1.04336 
         4.6025         10.4096         1.03467 
        4.61821         10.3363         1.02608 
        4.63391         10.2445         1.01759 
         4.6496         10.1633         1.00921 
        4.66532          10.078         1.00091 
        4.68103         10.0056        0.992709 
        4.69673         9.92694        0.984608 
        4.71241         9.81955        0.976606 
        4.72811          9.7556         0.96868 
        4.74384         9.70562        0.960834 
        4.75955         9.60237        0.953087 
        4.77525         9.52831        0.945431 
        4.79096          9.4632         0.93785 
        4.80669         9.39031        0.930349 
         4.8224         9.32791         0.92294 
        4.83809         9.24086        0.915621 
        4.85379         9.15772        0.908377 
         4.8695         9.14205        0.901206 
        4.88521         9.01579        0.894117 
        4.90093         8.94472        0.887103 
        4.91663         8.88665        0.880172 
        4.93234         8.82851        0.873308 
        4.94807         8.74652        0.866514 
        4.96377          8.6832        0.859805 
        4.97943         8.60594        0.853182 
        4.99514         8.56473        0.846613 
        5.01086         8.49369        0.840108 
        5.02654          8.4194        0.833689 
        5.04227         8.36823        0.827319 
          5.058         8.28066        0.821013 
        5.07371         8.23809        0.814786 
        5.08942         8.17932        0.808624 
        5.10513         8.10721        0.802525 
        5.12084         8.04608        0.796486 
        5.13656         7.97802        0.790512 
        5.15225         7.92716        0.784609 
        5.16796         7.87713        0.778758 
        5.18369         7.81524        0.772962 
         5.1994         7.73346        0.767236 
        5.21509         7.69908        0.761573 
        5.23079         7.63464        0.755962 
        5.24649         7.58538        0.750412 
        5.26217         7.52336        0.744923 
        5.27788          7.4638        0.739481 
        5.29359         7.42352        0.734093 
        5.30933         7.35083        0.728751 
        5.32504         7.29517        0.723472 
        5.34073         7.26626        0.718252 
        5.35646         7.19238        0.713073 
        5.37218         7.14969        0.707945 
        5.38789         7.09118        0.702876 
        5.40357         7.05224        0.697863 
        5.41929         6.99444        0.692888 
        5.43502         6.94613        0.687962 
         5.4507         6.89878        0.683095 
        5.46639         6.86237        0.678276 
        5.48212         6.80492        0.673492 
        5.49786         6.76568        0.668749 
        5.51353         6.70099        0.664076 
        5.52921         6.65946        0.659444 
        5.54495         6.61294        0.654842 
        5.56066         6.56344        0.650289 
        5.57637         6.50591        0.645782 
        5.59207         6.47446        0.641321 
        5.60778         6.41802        0.636901 
        5.62346         6.37693        0.632529 
        5.63916         6.33474        0.628194 
        5.65487          6.2954        0.623899 
         5.6706         6.23952        0.619638 
        5.68633           6.206        0.615417 
        5.70203         6.16745        0.611244 
        5.71773         6.11753         0.60711 
        5.73344         6.08173        0.603013 
        5.74916         6.03822        0.598951 
        5.76486         6.00323        0.594932 
        5.78054         5.95105        0.590956 
        5.79626         5.91448        0.587006 
          5.812         5.88502        0.583088 
         5.8277         5.84327        0.579218 
        5.84339         5.79058        0.575383 
        5.85911         5.75861        0.571576 
        5.87484         5.71624        0.567805 
        5.89053         5.68292        0.564075 
        5.90623         5.64235        0.560377 
        5.92195         5.59523        0.556707 
        5.93767          5.5639        0.553072 
        5.95336         5.52457        0.549475 
        5.96905          5.4956        0.545912 
        5.98476         5.45313        0.542376 
        6.00048         5.43458        0.538871 
        6.01617         5.37979        0.535401 
        6.03185         5.34881        0.531967 
        6.04756         5.31207        0.528555 
        6.06331         5.28388        0.525166 
        6.07903         5.24763        0.521813 
        6.09473         5.20927        0.518494 
        6.11044         5.17488        0.515201 
        6.12616         5.14326        0.511937 
        6.14186         5.11273        0.508705 
        6.15755         5.07536        0.505501 
        6.17326         5.03882        0.502323 
        6.18898         5.00028         0.49917 
        6.20467         4.97509        0.496051 
        6.22036         4.95581        0.492959 
         6.2361         4.90736        0.489885 
         6.2518         4.88617        0.486843 
        6.26748         4.85487        0.483833 
        6.28319         4.81614        0.480841 
        6.29893         4.78623        0.477872 
        6.31463          4.7631        0.474933 
        6.33033         4.72887         0.47202 
        6.34604         4.70632        0.469129 
        6.36177         4.67668        0.466261 
        6.37747         4.64194        0.463422 
