# k  (h/Mpc)    Pcb(k)  (Mpc/h)^3    Pcb_linear(k) (Mpc/h)^3   ShotnoiseSubtracted = true
      0.0200456         12980.2         13140.6 
      0.0350414         8774.09         8476.54 
      0.0492313         5883.23         5915.84 
      0.0637834         4644.15         4796.86 
      0.0800726         3427.62          3537.7 
       0.096163         2602.56         2462.13 
       0.111083         2138.11         2009.37 
       0.126058         1764.11         1758.11 
       0.142273         1445.76          1388.6 
       0.158546         1168.51         1078.82 
        0.17375         1035.41         941.755 
       0.188953          950.97          840.54 
       0.204907         786.239         703.308 
       0.220756         698.796         589.125 
        0.23588         624.287         526.768 
         0.2514         553.751         474.837 
       0.267535         528.193         413.128 
       0.283568           457.1         360.833 
       0.299022         434.433         326.422 
       0.314451         434.956         297.232 
       0.330372         369.791         266.179 
       0.346141         340.538         239.267 
       0.361624         322.805         218.751 
       0.377134         299.934          200.92 
       0.392932          288.38         183.398 
       0.408854         273.609          167.57 
       0.424564         262.658         154.501 
       0.440253         236.421         142.966 
       0.455999          223.81         132.154 
       0.471626         222.597         122.417 
        0.48727         210.204         113.857 
       0.502856         192.052         106.186 
       0.518488         191.791         99.0948 
       0.534347         177.906         92.5058 
       0.550082         172.233         86.6151 
       0.565732         170.611         81.2802 
       0.581496         158.919         76.3311 
       0.597222         154.561         71.7799 
       0.612804         148.717         67.6496 
       0.628434         144.338         63.8388 
       0.644267         136.646         60.2724 
       0.660051         133.864         56.9836 
       0.675724         131.272         53.9568 
       0.691403          127.86         51.1457 
       0.707174           122.8         48.5175 
       0.722871         120.429          46.083 
        0.73838         118.806         43.8401 
       0.754018         111.786         41.7283 
       0.769845         111.464         39.7317 
        0.78569         107.811         37.8629 
       0.801365         103.989         36.1316 
       0.817031         101.516         34.5088 
       0.832809         99.3409         32.9746 
       0.848511         96.6588         31.5397 
       0.864097         94.5224         30.1994 
       0.879701          93.216          28.935 
       0.895507         90.3268         27.7275 
       0.911279         87.7259         26.5909 
        0.92691         85.7651         25.5268 
       0.942635         83.7743         24.5147 
       0.958396         83.1244         23.5548 
       0.974128         81.2031         22.6476 
       0.989692         78.7086         21.7968 
        1.00528         77.7002         20.9881 
        1.02113         75.6607         20.2075 
        1.03692         75.1439         19.4692 
        1.05264         74.0249         18.7709 
        1.06832         71.7962         18.1077 
        1.08405         70.5855         17.4745 
        1.09979         69.9911          16.871 
        1.11537         68.0125         16.3017 
        1.13105         66.9331         15.7552 
        1.14679          65.886         15.2314 
        1.16256         64.3861         14.7302 
        1.17828         63.8194          14.253 
        1.19395         62.3769         13.7984 
         1.2097         61.6084         13.3612 
        1.22537         60.4119         12.9449 
          1.241         60.0654         12.5474 
        1.25666         57.9661         12.1655 
        1.27241         57.4629         11.7976 
        1.28819         56.8496         11.4442 
        1.30392         55.7328         11.1061 
        1.31957         55.2032         10.7831 
        1.33529         54.2102         10.4716 
        1.35108         53.7538         10.1711 
        1.36674         52.7364         9.88443 
         1.3824         52.1655         9.60898 
        1.39811         50.9456         9.34303 
        1.41389         50.2004         9.08604 
        1.42964         49.4854         8.83906 
        1.44531         48.9563         8.60239 
        1.46101         48.4473         8.37381 
        1.47667         47.7432         8.15413 
        1.49229         46.8782         7.94286 
        1.50793         46.2779         7.73877 
        1.52367          46.017         7.54047 
        1.53953         45.2724         7.34774 
        1.55526         44.2383         7.16322 
        1.57092         44.0918         6.98573 
        1.58662         43.5145         6.81379 
        1.60235         43.0186         6.64725 
        1.61809         42.0562         6.48614 
        1.63369          41.644         6.33175 
        1.64941         41.2282         6.18124 
        1.66519         40.3499         6.03504 
        1.68085         39.8239         5.89456 
        1.69652         39.2542         5.75847 
        1.71228         38.8462         5.62587 
        1.72806          38.606          5.4973 
        1.74368         37.9054         5.37399 
        1.75933         37.6357         5.25419 
        1.77505          37.072         5.13745 
        1.79081         36.6059         5.02402 
         1.8065         36.3465         4.91446 
        1.82218         35.5022         4.80824 
        1.83797          35.041          4.7044 
        1.85367          34.725         4.60417 
        1.86928         34.3854         4.50743 
        1.88497         33.8766         4.41292 
        1.90073         33.3859         4.32075 
        1.91647         33.3068         4.23127 
        1.93218         32.8125         4.14448 
        1.94787         32.4523         4.06023 
        1.96363         32.0119         3.97797 
        1.97935         31.5567         3.89814 
        1.99499         31.2556         3.82093 
        2.01064         30.7106         3.74567 
         2.0264         30.6669         3.67195 
        2.04216         30.1449         3.60023 
        2.05781         29.7942         3.53087 
        2.07353         29.3205         3.46306 
        2.08928          29.276         3.39687 
        2.10499         28.8324         3.33257 
        2.12065         28.5368         3.27011 
        2.13633         28.2823         3.20918 
        2.15211          27.936         3.14939 
        2.16785         27.4169         3.09128 
        2.18349         27.1858         3.03499 
        2.19916          26.934         2.97996 
        2.21489         26.7269         2.92611 
        2.23063         26.3991         2.87353 
         2.2463         26.0588         2.82247 
        2.26194          25.811         2.77277 
        2.27765         25.4759         2.72399 
        2.29341          25.153         2.67625 
        2.30914          24.855         2.62975 
        2.32486         24.6431         2.58436 
        2.34061         24.3749         2.53995 
        2.35635         24.0987         2.49662 
        2.37203         23.8232         2.45444 
        2.38768         23.7164         2.41331 
        2.40339         23.3558         2.37297 
        2.41914         23.2674         2.33344 
        2.43483         22.8957         2.29495 
         2.4505         22.7677         2.25738 
        2.46622         22.4149         2.22051 
        2.48195         22.1995         2.18445 
        2.49759         21.9847         2.14938 
        2.51328         21.7625         2.11498 
        2.52906         21.4819         2.08111 
        2.54479         21.3778          2.0481 
        2.56049         21.0256         2.01586 
        2.57618         20.8498         1.98433 
        2.59189         20.7252         1.95343 
        2.60758         20.3411         1.92322 
        2.62325          20.305         1.89369 
        2.63898         20.0767         1.86466 
        2.65468         19.7713          1.8363 
        2.67044         19.6871          1.8084 
        2.68618         19.4113         1.78114 
        2.70184         19.2278         1.75454 
        2.71755         19.0374         1.72842 
        2.73329         18.8704         1.70278 
        2.74897         18.6284         1.67774 
        2.76462         18.4358         1.65325 
        2.78034         18.2825         1.62914 
        2.79607         18.1017         1.60549 
        2.81179         17.9133         1.58233 
        2.82749         17.7643         1.55964 
        2.84321         17.5587         1.53737 
        2.85893         17.3696         1.51554 
        2.87462         17.1991         1.49416 
        2.89033         17.0249         1.47317 
        2.90605         16.8877         1.45257 
        2.92176         16.7476         1.43236 
        2.93747         16.5481         1.41254 
        2.95318         16.4365         1.39309 
        2.96891         16.2576           1.374 
        2.98456         16.1145         1.35534 
        3.00023         15.8731           1.337 
        3.01596         15.6883         1.31893 
        3.03164         15.6138         1.30125 
        3.04738         15.4486         1.28384 
         3.0631         15.3187         1.26675 
        3.07883         15.1286         1.24996 
        3.09456         14.9677         1.23348 
        3.11026         14.8316         1.21732 
        3.12596         14.7048         1.20145 
        3.14163         14.5672         1.18589 
        3.15734         14.4943         1.17057 
        3.17308          14.254         1.15548 
        3.18879         14.1542          1.1407 
        3.20447         14.0507         1.12619 
         3.2202         13.8602         1.11189 
         3.2359         13.7109         1.09786 
        3.25157         13.6055          1.0841 
        3.26729         13.5045         1.07053 
        3.28304         13.3621         1.05716 
        3.29877         13.2489         1.04404 
        3.31446         13.1388         1.03117 
        3.33014         12.9743         1.01852 
        3.34585         12.8685         1.00607 
        3.36158         12.7596        0.993801 
        3.37727         12.6529        0.981773 
        3.39294         12.5395        0.969954 
        3.40867         12.4527        0.958284 
        3.42439         12.2688        0.946811 
        3.44008         12.1666        0.935545 
        3.45578         12.1137        0.924453 
        3.47153         11.9623        0.913514 
        3.48724         11.8787        0.902769 
        3.50292         11.7215        0.892221 
        3.51859         11.6379        0.881844 
        3.53431         11.5511        0.871598 
        3.55007         11.4579        0.861488 
        3.56577         11.3092        0.851577 
        3.58146         11.2217        0.841824 
        3.59719         11.1421          0.8322 
        3.61292         11.0746        0.822727 
        3.62859         10.9195        0.813437 
        3.64429         10.8189         0.80427 
        3.66003         10.7467        0.795215 
        3.67578         10.6678        0.786301 
        3.69146         10.5849        0.777556 
        3.70712         10.4451        0.768959 
        3.72284         10.3492        0.760458 
        3.73853         10.2905        0.752099 
        3.75422         10.1745        0.743861 
        3.76993         10.1055        0.735738 
        3.78564         10.0461        0.727738 
        3.80137         9.93362        0.719843 
        3.81707         9.80774        0.712081 
        3.83279         9.78743        0.704425 
        3.84853         9.66096        0.696868 
        3.86424         9.59045        0.689436 
        3.87992           9.522        0.682122 
        3.89561         9.42232        0.674912 
        3.91134         9.35991        0.667791 
        3.92704         9.28056        0.660779 
        3.94273         9.17049        0.653875 
        3.95845         9.10302        0.647055 
        3.97418         9.03669        0.640329 
        3.98988         8.96647        0.633708 
        4.00554         8.84466        0.627197 
        4.02125         8.81403        0.620758 
        4.03698         8.71129        0.614398 
        4.05268         8.66425        0.608141 
        4.06839         8.57415        0.601965 
         4.0841         8.50592        0.595877 
        4.09983          8.4293        0.589863 
        4.11555         8.35567        0.583933 
        4.13124         8.27451          0.5781 
        4.14693         8.23085        0.572341 
        4.16266         8.17801        0.566647 
        4.17839         8.08133        0.561032 
        4.19408         8.01649        0.555506 
        4.20977            7.95         0.55005 
        4.22551         7.87862        0.544654 
        4.24123          7.8108        0.539336 
        4.25691         7.75975        0.534102 
        4.27259         7.67637        0.528934 
        4.28831         7.64406        0.523825 
        4.30404         7.54396        0.518777 
        4.31974         7.50599        0.513805 
        4.33543         7.43623        0.508901 
        4.35116         7.38312        0.504049 
        4.36688         7.31859        0.499261 
        4.38255         7.25023        0.494552 
        4.39825         7.20559        0.489893 
        4.41398         7.14836        0.485285 
         4.4297         7.07491        0.480739 
        4.44541         7.02553        0.476253 
        4.46111         6.96118        0.471826 
        4.47683         6.90111        0.467451 
        4.49251          6.8408        0.463141 
        4.50819          6.8093        0.458885 
         4.5239         6.74083        0.454676 
        4.53962         6.69456        0.450514 
        4.55535         6.63184        0.446402 
        4.57106          6.5963        0.442346 
        4.58678         6.52527        0.438339 
         4.6025         6.48377         0.43438 
        4.61821         6.44557        0.430471 
        4.63391         6.38272        0.426614 
         4.6496         6.32336        0.422805 
        4.66532         6.28284        0.419036 
        4.68103         6.23049        0.415315 
        4.69673         6.16881        0.411641 
        4.71241         6.14435        0.408015 
        4.72811         6.08658        0.404427 
        4.74384         6.03561        0.400876 
        4.75955         5.98914        0.397373 
        4.77525         5.95082        0.393914 
        4.79096         5.90464        0.390491 
        4.80669          5.8545        0.387106 
         4.8224         5.80988        0.383765 
        4.83809         5.78071        0.380467 
        4.85379         5.72858        0.377205 
         4.8695          5.6786        0.373978 
        4.88521         5.64532        0.370789 
        4.90093          5.6131        0.367637 
        4.91663         5.55855        0.364525 
        4.93234         5.51714        0.361444 
        4.94807         5.46816        0.358396 
        4.96377         5.42026        0.355389 
        4.97943         5.38838        0.352423 
        4.99514         5.35092        0.349482 
        5.01086         5.30741        0.346572 
        5.02654         5.26452        0.343703 
        5.04227         5.23528        0.340857 
          5.058         5.19546        0.338042 
        5.07371         5.15235        0.335263 
        5.08942         5.11671        0.332515 
        5.10513         5.09392        0.329797 
        5.12084         5.02768        0.327108 
        5.13656         5.00859         0.32445 
        5.15225         4.96522        0.321824 
        5.16796         4.92983        0.319224 
        5.18369         4.89433        0.316649 
         5.1994         4.86442        0.314107 
        5.21509         4.83192        0.311595 
        5.23079         4.79304        0.309107 
        5.24649          4.7623        0.306648 
        5.26217         4.72792        0.304218 
        5.27788         4.69396        0.301809 
        5.29359         4.64889        0.299427 
        5.30933         4.62769        0.297066 
        5.32504         4.59071        0.294734 
        5.34073         4.55953         0.29243 
        5.35646         4.51555        0.290145 
        5.37218          4.5007        0.287884 
        5.38789         4.47415         0.28565 
        5.40357         4.43913        0.283443 
        5.41929         4.40259        0.281254 
        5.43502         4.37936        0.279087 
         5.4507         4.34876        0.276948 
        5.46639         4.30367        0.274831 
        5.48212         4.27857        0.272731 
        5.49786         4.24629         0.27065 
        5.51353         4.23035          0.2686 
        5.52921         4.19492         0.26657 
        5.54495         4.17019        0.264555 
        5.56066         4.14231        0.262562 
        5.57637         4.11149         0.26059 
        5.59207         4.08104         0.25864 
        5.60778         4.06295        0.256708 
        5.62346         4.02891        0.254799 
        5.63916         4.00498        0.252907 
        5.65487         3.98664        0.251033 
         5.6706         3.95108        0.249176 
        5.68633         3.92849        0.247337 
        5.70203          3.8905         0.24552 
        5.71773         3.86951        0.243721 
        5.73344         3.84848        0.241939 
        5.74916         3.81561        0.240173 
        5.76486         3.79644        0.238427 
        5.78054         3.77265        0.236701 
        5.79626         3.75259        0.234987 
          5.812         3.71492        0.233288 
         5.8277         3.69093         0.23161 
        5.84339         3.66888        0.229949 
        5.85911           3.643        0.228301 
        5.87484         3.61957        0.226669 
        5.89053         3.59897        0.225056 
        5.90623         3.57805        0.223457 
        5.92195          3.5558        0.221872 
        5.93767         3.53315        0.220302 
        5.95336         3.50444         0.21875 
        5.96905         3.47903        0.217213 
        5.98476         3.46135        0.215689 
        6.00048         3.43945        0.214179 
        6.01617         3.42074        0.212685 
        6.03185         3.40458        0.211207 
        6.04756         3.38609         0.20974 
        6.06331          3.3571        0.208283 
        6.07903         3.33472        0.206842 
        6.09473          3.3153        0.205417 
        6.11044         3.29495        0.204003 
        6.12616         3.26627        0.202603 
        6.14186         3.25617        0.201218 
        6.15755         3.23668        0.199845 
        6.17326         3.21032        0.198484 
        6.18898          3.1946        0.197135 
        6.20467         3.16848          0.1958 
        6.22036         3.14929        0.194478 
         6.2361         3.13687        0.193164 
         6.2518         3.11798        0.191865 
        6.26748         3.09332         0.19058 
        6.28319          3.0757        0.189303 
        6.29893         3.05773        0.188037 
        6.31463         3.04618        0.186784 
        6.33033         3.02629        0.185543 
        6.34604         3.00279        0.184313 
        6.36177         2.98618        0.183092 
        6.37747         2.97348        0.181884 
