# k  (h/Mpc)    Pcb(k)  (Mpc/h)^3    Pcb_linear(k) (Mpc/h)^3   ShotnoiseSubtracted = true
      0.0200456         2812.16         2841.83 
      0.0350414         1873.69         1833.17 
      0.0492313         1282.72         1279.38 
      0.0637834         1020.86         1037.39 
      0.0800726         754.202         765.077 
       0.096163          547.81         532.469 
       0.111083         447.791         434.554 
       0.126058         378.207         380.216 
       0.142273         301.332         300.305 
       0.158546         239.286         233.311 
        0.17375          210.33         203.668 
       0.188953          187.39         181.778 
       0.204907         153.038           152.1 
       0.220756         133.103         127.406 
        0.23588          118.53         113.921 
         0.2514         106.303          102.69 
       0.267535         95.5417         89.3446 
       0.283568         82.9561         78.0352 
       0.299022         76.3705         70.5932 
       0.314451          71.636         64.2806 
       0.330372         62.8851          57.565 
       0.346141         56.9758         51.7448 
       0.361624         52.3203         47.3079 
       0.377134         47.7137         43.4518 
       0.392932         45.5091         39.6624 
       0.408854         41.3401         36.2394 
       0.424564         39.2486         33.4131 
       0.440253         35.6842         30.9184 
       0.455999         32.3499         28.5801 
       0.471626         30.4885         26.4745 
        0.48727         29.3831         24.6232 
       0.502856         27.3611         22.9643 
       0.518488         25.4165         21.4306 
       0.534347         23.7874         20.0057 
       0.550082         22.7667         18.7317 
       0.565732         21.7643          17.578 
       0.581496          20.307         16.5077 
       0.597222         19.1611         15.5234 
       0.612804         18.0897         14.6302 
       0.628434           17.68          13.806 
       0.644267         16.6572         13.0347 
       0.660051         15.7371         12.3235 
       0.675724         14.9344         11.6689 
       0.691403         14.5271          11.061 
       0.707174         13.8257         10.4926 
       0.722871         13.3496         9.96609 
        0.73838         12.5912         9.48103 
       0.754018         11.8671         9.02434 
       0.769845         11.5217         8.59254 
        0.78569         11.1485         8.18838 
       0.801365         10.6493         7.81396 
       0.817031          10.209         7.46301 
       0.832809         9.84497         7.13122 
       0.848511         9.49623         6.82091 
       0.864097         9.14894         6.53104 
       0.879701         8.95297         6.25759 
       0.895507         8.58774         5.99646 
       0.911279         8.19715         5.75065 
        0.92691         7.99187         5.52053 
       0.942635         7.73166         5.30164 
       0.958396          7.4658         5.09405 
       0.974128          7.2564         4.89787 
       0.989692         6.88461         4.71386 
        1.00528         6.81019         4.53897 
        1.02113         6.55747         4.37016 
        1.03692         6.39197         4.21049 
        1.05264         6.20314         4.05947 
        1.06832         6.04709         3.91603 
        1.08405         5.86129          3.7791 
        1.09979         5.69258         3.64858 
        1.11537         5.52957         3.52548 
        1.13105         5.39929         3.40727 
        1.14679         5.26722         3.29399 
        1.16256         5.12458         3.18561 
        1.17828         5.00584         3.08241 
        1.19395         4.86272          2.9841 
         1.2097         4.69933         2.88955 
        1.22537         4.59221         2.79952 
          1.241         4.45745         2.71356 
        1.25666         4.42584         2.63097 
        1.27241         4.31991          2.5514 
        1.28819         4.13223         2.47496 
        1.30392          4.0814         2.40185 
        1.31957         3.97039         2.33199 
        1.33529         3.89146         2.26463 
        1.35108         3.80089         2.19964 
        1.36674         3.69147         2.13765 
         1.3824         3.64402         2.07808 
        1.39811         3.56527         2.02056 
        1.41389         3.46448         1.96498 
        1.42964         3.40392         1.91157 
        1.44531         3.32591         1.86039 
        1.46101         3.29138         1.81095 
        1.47667         3.20522         1.76345 
        1.49229         3.09986         1.71775 
        1.50793          3.0491         1.67362 
        1.52367         2.98449         1.63073 
        1.53953         2.92956         1.58905 
        1.55526         2.90515         1.54915 
        1.57092         2.82949         1.51076 
        1.58662         2.77823         1.47358 
        1.60235         2.73032         1.43756 
        1.61809         2.67639         1.40272 
        1.63369          2.6203         1.36933 
        1.64941          2.5676         1.33678 
        1.66519         2.53862         1.30516 
        1.68085         2.47989         1.27478 
        1.69652         2.43996         1.24535 
        1.71228         2.41111         1.21667 
        1.72806         2.36162         1.18887 
        1.74368         2.32215          1.1622 
        1.75933         2.28148         1.13629 
        1.77505          2.2354         1.11104 
        1.79081         2.20204         1.08651 
         1.8065         2.17379         1.06282 
        1.82218         2.12858         1.03985 
        1.83797         2.08605         1.01739 
        1.85367         2.05774        0.995715 
        1.86928         2.03091        0.974795 
        1.88497         1.98739        0.954356 
        1.90073         1.96433        0.934422 
        1.91647         1.92927         0.91507 
        1.93218         1.90003        0.896302 
        1.94787         1.87802        0.878082 
        1.96363         1.84927        0.860293 
        1.97935          1.8194        0.843027 
        1.99499          1.7931        0.826329 
        2.01064         1.76917        0.810054 
         2.0264         1.73985        0.794111 
        2.04216         1.71156        0.778601 
        2.05781         1.68998        0.763599 
        2.07353         1.67058        0.748935 
        2.08928         1.64241         0.73462 
        2.10499            1.61        0.720714 
        2.12065         1.60629        0.707206 
        2.13633         1.57899        0.694029 
        2.15211         1.54637          0.6811 
        2.16785         1.53159        0.668533 
        2.18349         1.50996        0.656359 
        2.19916         1.49638        0.644459 
        2.21489         1.48047        0.632812 
        2.23063         1.45015        0.621441 
         2.2463         1.42876        0.610399 
        2.26194          1.4133         0.59965 
        2.27765         1.38194        0.589102 
        2.29341         1.36981        0.578777 
        2.30914         1.35377        0.568719 
        2.32486         1.34597        0.558903 
        2.34061         1.32514          0.5493 
        2.35635         1.30788         0.53993 
        2.37203          1.3003        0.530807 
        2.38768         1.28005        0.521913 
        2.40339           1.256        0.513187 
        2.41914         1.24506        0.504639 
        2.43483         1.22967        0.496314 
         2.4505         1.21399        0.488189 
        2.46622         1.20017        0.480216 
        2.48195         1.18869        0.472418 
        2.49759         1.17076        0.464834 
        2.51328         1.16204        0.457394 
        2.52906         1.14735        0.450069 
        2.54479         1.13193         0.44293 
        2.56049         1.12207        0.435958 
        2.57618         1.10775         0.42914 
        2.59189         1.09793        0.422456 
        2.60758         1.08606        0.415924 
        2.62325         1.06753        0.409537 
        2.63898         1.05564         0.40326 
        2.65468         1.04226        0.397126 
        2.67044         1.03725        0.391092 
        2.68618         1.02714        0.385196 
        2.70184         1.01642        0.379444 
        2.71755         1.00309        0.373794 
        2.73329        0.989247        0.368249 
        2.74897        0.982087        0.362834 
        2.76462        0.972352        0.357538 
        2.78034        0.963862        0.352325 
        2.79607        0.950976        0.347209 
        2.81179        0.941199          0.3422 
        2.82749        0.930796        0.337294 
        2.84321        0.922477        0.332478 
        2.85893        0.911674        0.327756 
        2.87462        0.907189        0.323133 
        2.89033        0.897484        0.318594 
        2.90605        0.887519        0.314137 
        2.92176        0.879715        0.309767 
        2.93747        0.871019        0.305482 
        2.95318        0.861912        0.301276 
        2.96891         0.85587        0.297146 
        2.98456         0.84753        0.293111 
        3.00023         0.83807        0.289144 
        3.01596        0.826874        0.285238 
        3.03164        0.822038        0.281414 
        3.04738        0.814457        0.277648 
         3.0631        0.807333        0.273952 
        3.07883        0.798984        0.270322 
        3.09456         0.79158        0.266758 
        3.11026        0.786848        0.263263 
        3.12596         0.77717         0.25983 
        3.14163        0.772309        0.256466 
        3.15734        0.762864        0.253153 
        3.17308        0.757773        0.249889 
        3.18879        0.752699        0.246692 
        3.20447        0.743882        0.243554 
         3.2202        0.739539        0.240461 
         3.2359        0.733456        0.237426 
        3.25157        0.723564        0.234451 
        3.26729        0.720167        0.231517 
        3.28304        0.713668        0.228627 
        3.29877        0.706635        0.225789 
        3.31446         0.70261        0.223005 
        3.33014        0.695341         0.22027 
        3.34585        0.689784        0.217576 
        3.36158        0.685306        0.214923 
        3.37727         0.68222        0.212322 
        3.39294        0.673094        0.209766 
        3.40867        0.670647        0.207242 
        3.42439        0.663565        0.204761 
        3.44008        0.659916        0.202325 
        3.45578        0.653624        0.199926 
        3.47153        0.648712         0.19756 
        3.48724        0.644175        0.195236 
        3.50292        0.637216        0.192955 
        3.51859        0.635175        0.190711 
        3.53431        0.629237        0.188495 
        3.55007        0.625538        0.186309 
        3.56577        0.620764        0.184165 
        3.58146        0.616885        0.182056 
        3.59719        0.611659        0.179975 
        3.61292        0.607452        0.177926 
        3.62859        0.603416        0.175917 
        3.64429        0.598495        0.173935 
        3.66003        0.593921        0.171976 
        3.67578        0.589607        0.170049 
        3.69146        0.586794        0.168157 
        3.70712        0.581613        0.166298 
        3.72284        0.577418         0.16446 
        3.73853        0.572596        0.162652 
        3.75422        0.571378         0.16087 
        3.76993         0.56572        0.159114 
        3.78564        0.561009        0.157384 
        3.80137        0.557859        0.155676 
        3.81707        0.552513        0.153997 
        3.83279        0.550986        0.152342 
        3.84853         0.54605        0.150707 
        3.86424        0.542407          0.1491 
        3.87992        0.539724        0.147518 
        3.89561        0.535796        0.145959 
        3.91134        0.531945        0.144419 
        3.92704        0.528583        0.142903 
        3.94273        0.526003         0.14141 
        3.95845        0.520269        0.139935 
        3.97418        0.517276         0.13848 
        3.98988        0.514476        0.137048 
        4.00554        0.510646         0.13564 
        4.02125        0.506105        0.134248 
        4.03698        0.502905        0.132872 
        4.05268        0.498302        0.131519 
        4.06839        0.493786        0.130183 
         4.0841        0.491925        0.128867 
        4.09983         0.48839        0.127566 
        4.11555        0.483668        0.126284 
        4.13124         0.47902        0.125022 
        4.14693          0.4766        0.123777 
        4.16266        0.473377        0.122545 
        4.17839        0.468675        0.121331 
        4.19408        0.465313        0.120136 
        4.20977        0.462873        0.118956 
        4.22551        0.458991        0.117789 
        4.24123        0.455121        0.116639 
        4.25691        0.452814        0.115507 
        4.27259        0.449531        0.114389 
        4.28831        0.448224        0.113284 
        4.30404        0.444744        0.112193 
        4.31974        0.441369        0.111118 
        4.33543        0.438529        0.110057 
        4.35116        0.435882        0.109008 
        4.36688        0.433015        0.107972 
        4.38255         0.43119        0.106954 
        4.39825        0.428677        0.105946 
        4.41398         0.42645         0.10495 
         4.4297        0.424636        0.103967 
        4.44541        0.421371        0.102996 
        4.46111         0.41949        0.102039 
        4.47683        0.417531        0.101093 
        4.49251        0.415559        0.100161 
        4.50819        0.413717       0.0992403 
         4.5239        0.411831       0.0983301 
        4.53962        0.408915         0.09743 
        4.55535        0.407552       0.0965406 
        4.57106         0.40512       0.0956635 
        4.58678        0.405118       0.0947969 
         4.6025        0.402781       0.0939408 
        4.61821        0.402178       0.0930953 
        4.63391        0.400906       0.0922611 
         4.6496        0.397443       0.0914374 
        4.66532         0.39749       0.0906224 
        4.68103        0.395588       0.0898176 
        4.69673        0.394466       0.0890231 
        4.71241        0.393195        0.088239 
        4.72811        0.392167       0.0874629 
        4.74384        0.392297       0.0866951 
        4.75955        0.390019       0.0859376 
        4.77525        0.388969       0.0851894 
        4.79096        0.388956       0.0844491 
        4.80669        0.387905       0.0837171 
         4.8224        0.385699       0.0829946 
        4.83809        0.386334       0.0822813 
        4.85379        0.385021       0.0815758 
         4.8695        0.383893       0.0808779 
        4.88521        0.382991       0.0801884 
        4.90093        0.383144       0.0795067 
        4.91663         0.38211       0.0788335 
        4.93234        0.380718       0.0781673 
        4.94807        0.380219       0.0775082 
        4.96377        0.381653       0.0768579 
        4.97943        0.380958       0.0762164 
        4.99514        0.379689       0.0755804 
        5.01086        0.380055       0.0749511 
        5.02654        0.379987       0.0743305 
        5.04227        0.379377       0.0737151 
          5.058        0.380154       0.0731062 
        5.07371        0.379608       0.0725053 
        5.08942        0.379267        0.071911 
        5.10513         0.37968       0.0713233 
        5.12084        0.379111       0.0707417 
        5.13656        0.379527       0.0701667 
        5.15225        0.379582        0.069599 
        5.16796        0.380514       0.0690366 
        5.18369        0.380903       0.0684798 
         5.1994        0.380833       0.0679301 
        5.21509        0.381165       0.0673868 
        5.23079        0.381174       0.0668488 
        5.24649        0.382441        0.066317 
        5.26217        0.382693       0.0657913 
        5.27788        0.383405       0.0652705 
        5.29359        0.383909       0.0647552 
        5.30933        0.384876       0.0642446 
        5.32504        0.384421       0.0637404 
        5.34073        0.385444        0.063242 
        5.35646        0.385671       0.0627479 
        5.37218        0.386319       0.0622589 
        5.38789        0.386972       0.0617759 
        5.40357        0.388127       0.0612985 
        5.41929        0.389503        0.060825 
        5.43502        0.389792       0.0603564 
         5.4507        0.390041       0.0598938 
        5.46639        0.391298        0.059436 
        5.48212         0.39179       0.0589818 
        5.49786        0.394304       0.0585318 
        5.51353        0.395783       0.0580886 
        5.52921        0.394981       0.0576495 
        5.54495        0.396359       0.0572136 
        5.56066         0.39865       0.0567827 
        5.57637        0.399763       0.0563562 
        5.59207        0.400534       0.0559344 
        5.60778        0.401373       0.0555167 
        5.62346        0.403979       0.0551038 
        5.63916         0.40382       0.0546947 
        5.65487        0.404698       0.0542895 
         5.6706        0.404506       0.0538879 
        5.68633        0.408035       0.0534901 
        5.70203        0.409579       0.0530971 
        5.71773        0.410967       0.0527081 
        5.73344        0.411942       0.0523227 
        5.74916        0.412691       0.0519408 
        5.76486        0.413627       0.0515632 
        5.78054        0.416255       0.0511899 
        5.79626        0.417296       0.0508192 
          5.812        0.417405       0.0504517 
         5.8277         0.42001       0.0500889 
        5.84339        0.421876       0.0497297 
        5.85911        0.422163       0.0493732 
        5.87484        0.424996       0.0490202 
        5.89053        0.425956       0.0486714 
        5.90623        0.427274       0.0483258 
        5.92195        0.428811       0.0479828 
        5.93767        0.430824       0.0476434 
        5.95336        0.431906       0.0473078 
        5.96905        0.433272       0.0469754 
        5.98476        0.432872       0.0466458 
        6.00048        0.435984       0.0463192 
        6.01617        0.435816       0.0459961 
        6.03185        0.438419       0.0456765 
        6.04756         0.44056       0.0453591 
        6.06331        0.442427        0.045044 
        6.07903        0.442766       0.0447325 
        6.09473        0.444149       0.0444243 
        6.11044        0.446185       0.0441186 
        6.12616        0.447775       0.0438158 
        6.14186         0.44917       0.0435161 
        6.15755        0.451275       0.0432193 
        6.17326        0.451894       0.0429249 
        6.18898        0.453435       0.0426331 
        6.20467        0.455959       0.0423445 
        6.22036        0.456659       0.0420586 
         6.2361        0.458723       0.0417745 
         6.2518        0.458793       0.0414934 
        6.26748        0.459948       0.0412156 
        6.28319        0.463199       0.0409395 
        6.29893        0.463265       0.0406656 
        6.31463        0.465621       0.0403947 
        6.33033        0.464623       0.0401263 
        6.34604        0.467468       0.0398602 
        6.36177        0.468637       0.0395962 
        6.37747        0.471196        0.039335 
