# k  (h/Mpc)    Pcb(k)  (Mpc/h)^3    Pcb_linear(k) (Mpc/h)^3   ShotnoiseSubtracted = true
      0.0200456         18760.2         19015.7 
      0.0350414         12746.8         12266.4 
      0.0492313         8472.16         8560.82 
      0.0637834         6677.14         6941.54 
      0.0800726         4926.59         5119.41 
       0.096163         3801.36         3562.94 
       0.111083         3122.77         2907.76 
       0.126058         2563.67         2544.16 
       0.142273         2129.86         2009.45 
       0.158546         1723.19         1561.17 
        0.17375         1536.89         1362.81 
       0.188953          1430.5         1216.35 
       0.204907         1193.81         1017.76 
       0.220756         1067.12         852.523 
        0.23588         953.302         762.286 
         0.2514         848.516         687.138 
       0.267535         814.223         597.837 
       0.283568         711.316         522.162 
       0.299022          676.18         472.365 
       0.314451         693.491         430.125 
       0.330372         592.996         385.188 
       0.346141         544.676         346.243 
       0.361624         519.203         316.554 
       0.377134         490.925         290.752 
       0.392932         468.007         265.396 
       0.408854         446.534         242.491 
       0.424564         432.328         223.579 
       0.440253         392.458         206.886 
       0.455999         373.977          191.24 
       0.471626         378.108          177.15 
        0.48727         354.513         164.762 
       0.502856         331.182         153.662 
       0.518488         326.648           143.4 
       0.534347          307.41         133.865 
       0.550082         293.329         125.341 
       0.565732         290.837         117.621 
       0.581496         279.214         110.459 
       0.597222         270.689         103.873 
       0.612804         262.231         97.8958 
       0.628434         252.488         92.3811 
       0.644267         241.623         87.2202 
       0.660051         238.533         82.4611 
       0.675724         232.437          78.081 
       0.691403          227.39          74.013 
       0.707174         218.105         70.2098 
       0.722871         214.039         66.6867 
        0.73838          210.86          63.441 
       0.754018          202.28         60.3851 
       0.769845         201.753         57.4958 
        0.78569         194.848         54.7914 
       0.801365          188.69          52.286 
       0.817031         187.085         49.9377 
       0.832809         182.293         47.7176 
       0.848511         177.638         45.6412 
       0.864097         172.233         43.7015 
       0.879701         171.752         41.8718 
       0.895507         167.243         40.1245 
       0.911279         162.924         38.4797 
        0.92691         159.665         36.9399 
       0.942635         158.209         35.4752 
       0.958396          154.02         34.0861 
       0.974128         151.788         32.7734 
       0.989692          146.04         31.5422 
        1.00528         145.763         30.3719 
        1.02113         143.121         29.2423 
        1.03692         139.623         28.1739 
        1.05264         136.704         27.1634 
        1.06832          136.07         26.2036 
        1.08405         132.209         25.2873 
        1.09979         130.771          24.414 
        1.11537         128.888         23.5902 
        1.13105         126.192         22.7993 
        1.14679         124.808         22.0413 
        1.16256         121.809          21.316 
        1.17828           120.6         20.6255 
        1.19395         117.603         19.9677 
         1.2097         116.752          19.335 
        1.22537          115.56         18.7326 
          1.241         112.027         18.1574 
        1.25666         111.278         17.6047 
        1.27241         108.645         17.0723 
        1.28819         107.492         16.5608 
        1.30392         106.063         16.0716 
        1.31957         103.571         15.6042 
        1.33529          101.78         15.1534 
        1.35108           100.8         14.7186 
        1.36674         98.7522         14.3038 
         1.3824         97.8779         13.9052 
        1.39811         96.3349         13.5203 
        1.41389         94.4266         13.1484 
        1.42964         92.9162          12.791 
        1.44531         92.1279         12.4485 
        1.46101         90.1107         12.1177 
        1.47667         89.7429         11.7999 
        1.49229         88.5076         11.4941 
        1.50793         86.7199         11.1988 
        1.52367         85.4296         10.9118 
        1.53953         84.0565         10.6329 
        1.55526         83.2584         10.3659 
        1.57092         82.4275         10.1091 
        1.58662          80.986         9.86024 
        1.60235         79.8441         9.61924 
        1.61809         78.8477          9.3861 
        1.63369         77.4374         9.16268 
        1.64941         77.2805         8.94488 
        1.66519         75.8392         8.73331 
        1.68085         74.3308         8.53002 
        1.69652         73.5673         8.33309 
        1.71228         72.3434         8.14119 
        1.72806         72.0527         7.95514 
        1.74368          70.628         7.77671 
        1.75933         69.8589         7.60334 
        1.77505          69.085         7.43441 
        1.79081         67.8779         7.27026 
         1.8065          66.651         7.11172 
        1.82218         66.0924           6.958 
        1.83797         65.6902         6.80773 
        1.85367         64.3129         6.66269 
        1.86928         63.9828         6.52271 
        1.88497         62.8106         6.38594 
        1.90073         62.1725         6.25256 
        1.91647         61.2245         6.12307 
        1.93218         60.5322         5.99748 
        1.94787         59.4173         5.87557 
        1.96363          58.862         5.75653 
        1.97935         58.3622           5.641 
        1.99499         57.7405         5.52927 
        2.01064         56.4902         5.42037 
         2.0264         55.9377         5.31369 
        2.04216         55.0765          5.2099 
        2.05781         54.4416         5.10952 
        2.07353         53.8395         5.01139 
        2.08928         53.2527         4.91561 
        2.10499         52.4365         4.82256 
        2.12065         52.1518         4.73217 
        2.13633         51.2821           4.644 
        2.15211         50.5626         4.55749 
        2.16785         49.6863          4.4734 
        2.18349          49.333         4.39193 
        2.19916         48.7286         4.31231 
        2.21489         48.0272         4.23437 
        2.23063         47.2709         4.15829 
         2.2463         46.9292          4.0844 
        2.26194         46.5611         4.01247 
        2.27765         45.7979         3.94189 
        2.29341         45.2955         3.87281 
        2.30914         44.7156         3.80551 
        2.32486          44.304         3.73982 
        2.34061         43.5736         3.67557 
        2.35635         43.1529         3.61286 
        2.37203          42.487         3.55182 
        2.38768         42.0925         3.49231 
        2.40339         41.6494         3.43392 
        2.41914         40.8757         3.37673 
        2.43483         40.7467         3.32102 
         2.4505         40.2461         3.26665 
        2.46622         39.7311          3.2133 
        2.48195         39.1758         3.16112 
        2.49759         38.8245         3.11037 
        2.51328         38.3366         3.06059 
        2.52906         37.9341         3.01158 
        2.54479         37.3974          2.9638 
        2.56049         36.7452         2.91715 
        2.57618         36.4584         2.87153 
        2.59189         36.0795         2.82681 
        2.60758          35.579          2.7831 
        2.62325         35.3262         2.74036 
        2.63898         34.9947         2.69836 
        2.65468         34.5119         2.65731 
        2.67044         34.1313         2.61694 
        2.68618         33.7958         2.57749 
        2.70184         33.3356           2.539 
        2.71755         32.8367         2.50119 
        2.73329         32.6014         2.46409 
        2.74897         32.2601         2.42785 
        2.76462         31.9124         2.39242 
        2.78034          31.572         2.35753 
        2.79607         31.1249          2.3233 
        2.81179         30.7248         2.28978 
        2.82749         30.5284         2.25696 
        2.84321         30.2264         2.22473 
        2.85893          29.802         2.19313 
        2.87462         29.4212          2.1622 
        2.89033         29.0491         2.13183 
        2.90605         28.7482         2.10201 
        2.92176         28.5712         2.07277 
        2.93747         28.2345         2.04409 
        2.95318         27.9193         2.01595 
        2.96891          27.561         1.98831 
        2.98456         27.3796         1.96131 
        3.00023         27.0427         1.93477 
        3.01596         26.6943         1.90863 
        3.03164          26.432         1.88304 
        3.04738         26.1604         1.85785 
         3.0631         26.0194         1.83311 
        3.07883         25.6239         1.80882 
        3.09456         25.3752         1.78498 
        3.11026         24.9989         1.76159 
        3.12596         24.8396         1.73862 
        3.14163          24.551         1.71611 
        3.15734         24.2904         1.69394 
        3.17308         24.1049          1.6721 
        3.18879         23.8235          1.6507 
        3.20447         23.4924         1.62971 
         3.2202         23.3044         1.60901 
         3.2359         23.1214         1.58871 
        3.25157         22.8222          1.5688 
        3.26729         22.6135         1.54916 
        3.28304          22.352         1.52982 
        3.29877         22.0783         1.51084 
        3.31446         21.8475         1.49221 
        3.33014         21.6581         1.47391 
        3.34585         21.3986         1.45588 
        3.36158         21.2469         1.43813 
        3.37727         21.0068         1.42072 
        3.39294         20.7951         1.40362 
        3.40867         20.5983         1.38673 
        3.42439         20.4303         1.37013 
        3.44008         20.2269         1.35383 
        3.45578         20.0123         1.33778 
        3.47153         19.8579         1.32195 
        3.48724         19.5529          1.3064 
        3.50292         19.4254         1.29113 
        3.51859         19.2435         1.27612 
        3.53431         19.0129         1.26129 
        3.55007         18.7765         1.24666 
        3.56577         18.6296         1.23232 
        3.58146         18.4281          1.2182 
        3.59719         18.3069         1.20428 
        3.61292         18.1108         1.19057 
        3.62859         17.9121         1.17712 
        3.64429          17.774         1.16386 
        3.66003         17.5507         1.15076 
        3.67578         17.4109         1.13786 
        3.69146         17.2501          1.1252 
        3.70712         17.1265         1.11276 
        3.72284         16.9774         1.10046 
        3.73853         16.8144         1.08836 
        3.75422         16.6071         1.07644 
        3.76993         16.5034         1.06469 
        3.78564          16.301         1.05311 
        3.80137         16.1186         1.04169 
        3.81707          15.985         1.03045 
        3.83279         15.8243         1.01937 
        3.84853         15.7153         1.00844 
        3.86424          15.512        0.997683 
        3.87992         15.3882        0.987099 
        3.89561         15.2536        0.976666 
        3.91134         15.1288        0.966361 
        3.92704         14.9322        0.956214 
        3.94273         14.7963        0.946222 
        3.95845         14.6708        0.936353 
        3.97418         14.5668        0.926621 
        3.98988         14.3887        0.917039 
        4.00554         14.2668        0.907617 
        4.02125         14.1592        0.898299 
        4.03698         14.0089        0.889096 
        4.05268         13.8733        0.880041 
        4.06839         13.7565        0.871105 
         4.0841         13.6031        0.862294 
        4.09983         13.5471        0.853591 
        4.11555         13.3986         0.84501 
        4.13124         13.2623        0.836569 
        4.14693         13.1311        0.828236 
        4.16266         13.0512        0.819995 
        4.17839         12.9133         0.81187 
        4.19408         12.8098        0.803873 
        4.20977         12.7145        0.795978 
        4.22551         12.5767         0.78817 
        4.24123         12.4496        0.780473 
        4.25691         12.3612        0.772899 
        4.27259         12.2431        0.765421 
        4.28831         12.1313        0.758027 
        4.30404         12.0079        0.750722 
        4.31974         11.9039        0.743528 
        4.33543         11.8264        0.736432 
        4.35116         11.7125         0.72941 
        4.36688         11.6015        0.722481 
        4.38255         11.5234        0.715667 
        4.39825         11.4337        0.708925 
        4.41398         11.3094        0.702256 
         4.4297         11.2241        0.695678 
        4.44541         11.1234        0.689185 
        4.46111         11.0107        0.682779 
        4.47683         10.9349        0.676449 
        4.49251         10.8138        0.670211 
        4.50819         10.7421        0.664053 
         4.5239         10.6659        0.657962 
        4.53962         10.5425        0.651939 
        4.55535         10.4653        0.645988 
        4.57106         10.3778        0.640119 
        4.58678          10.284        0.634321 
         4.6025         10.2216        0.628592 
        4.61821         10.1205        0.622934 
        4.63391         10.0192        0.617353 
         4.6496         9.92542        0.611841 
        4.66532         9.85906        0.606387 
        4.68103         9.77897        0.601002 
        4.69673         9.69539        0.595686 
        4.71241           9.614        0.590439 
        4.72811         9.53564        0.585246 
        4.74384         9.47221        0.580108 
        4.75955         9.38119        0.575039 
        4.77525          9.2983        0.570033 
        4.79096         9.21735        0.565079 
        4.80669         9.13451        0.560182 
         4.8224         9.09734        0.555347 
        4.83809          9.0085        0.550574 
        4.85379          8.9381        0.545853 
         4.8695         8.86621        0.541183 
        4.88521         8.80685         0.53657 
        4.90093         8.72886        0.532008 
        4.91663         8.66133        0.527504 
        4.93234         8.60458        0.523046 
        4.94807         8.51774        0.518636 
        4.96377         8.45695        0.514284 
        4.97943         8.38076        0.509991 
        4.99514         8.30988        0.505736 
        5.01086         8.23001        0.501525 
        5.02654         8.20227        0.497373 
        5.04227         8.11127        0.493254 
          5.058         8.05418         0.48918 
        5.07371          7.9955        0.485159 
        5.08942         7.96529        0.481183 
        5.10513         7.87337         0.47725 
        5.12084         7.80847        0.473359 
        5.13656         7.74637        0.469511 
        5.15225         7.68959        0.465712 
        5.16796         7.64266        0.461949 
        5.18369         7.56516        0.458223 
         5.1994         7.52502        0.454545 
        5.21509         7.45126         0.45091 
        5.23079         7.40204         0.44731 
        5.24649         7.33348        0.443751 
        5.26217         7.28512        0.440234 
        5.27788         7.23169        0.436749 
        5.29359         7.15707          0.4333 
        5.30933         7.11893        0.429884 
        5.32504          7.0681         0.42651 
        5.34073         7.01033        0.423175 
        5.35646         6.95033        0.419869 
        5.37218          6.9138        0.416597 
        5.38789         6.84345        0.413365 
        5.40357         6.79654         0.41017 
        5.41929         6.75931        0.407002 
        5.43502         6.69819        0.403867 
         5.4507         6.65062        0.400771 
        5.46639         6.60707        0.397708 
        5.48212         6.55835        0.394669 
        5.49786         6.50536        0.391657 
        5.51353         6.46175        0.388692 
        5.52921         6.42905        0.385754 
        5.54495         6.37743        0.382837 
        5.56066          6.3288        0.379954 
        5.57637         6.28148          0.3771 
        5.59207         6.21284        0.374277 
        5.60778          6.1911        0.371483 
        5.62346         6.14846         0.36872 
        5.63916         6.09751        0.365982 
        5.65487         6.05097        0.363271 
         5.6706         6.00735        0.360583 
        5.68633         5.96308        0.357922 
        5.70203          5.9285        0.355292 
        5.71773         5.88468        0.352689 
        5.73344         5.83779         0.35011 
        5.74916          5.7963        0.347555 
        5.76486         5.76076        0.345028 
        5.78054         5.71914         0.34253 
        5.79626         5.67694        0.340049 
          5.812         5.63889        0.337591 
         5.8277         5.60059        0.335163 
        5.84339         5.57059        0.332759 
        5.85911         5.51648        0.330374 
        5.87484         5.48518        0.328012 
        5.89053         5.44631        0.325678 
        5.90623         5.41558        0.323365 
        5.92195         5.37176        0.321071 
        5.93767          5.3429        0.318799 
        5.95336         5.29635        0.316553 
        5.96905          5.2667         0.31433 
        5.98476         5.23701        0.312124 
        6.00048          5.1873        0.309939 
        6.01617         5.15656        0.307777 
        6.03185         5.12043        0.305638 
        6.04756         5.08256        0.303514 
        6.06331         5.05077        0.301406 
        6.07903         5.02425        0.299322 
        6.09473         4.97788        0.297259 
        6.11044         4.95672        0.295214 
        6.12616         4.92324        0.293188 
        6.14186         4.89236        0.291182 
        6.15755         4.86653        0.289196 
        6.17326         4.82339        0.287226 
        6.18898         4.79053        0.285273 
        6.20467         4.76144        0.283342 
        6.22036         4.72415        0.281429 
         6.2361         4.71098        0.279528 
         6.2518         4.67159        0.277648 
        6.26748         4.64002        0.275788 
        6.28319         4.60643        0.273941 
        6.29893          4.5775        0.272108 
        6.31463         4.54736        0.270296 
        6.33033         4.51541          0.2685 
        6.34604          4.4939        0.266719 
        6.36177         4.45951        0.264952 
        6.37747         4.42943        0.263205 
