# k  (h/Mpc)    Pcb(k)  (Mpc/h)^3    Pcb_linear(k) (Mpc/h)^3   ShotnoiseSubtracted = true
      0.0200456         22225.4         22758.6 
      0.0350414         15770.9         16544.7 
      0.0492313         11757.2         12021.1 
      0.0637834         10186.2            9993 
      0.0800726         8035.98          7931.2 
       0.096163         5568.87         5754.77 
       0.111083         4481.07         4590.16 
       0.126058         4125.51         4067.81 
       0.142273         3573.52         3446.33 
       0.158546         3136.37         2721.88 
        0.17375         2510.83         2293.18 
       0.188953         2457.09         2076.42 
       0.204907         2309.41         1837.21 
       0.220756         2004.09         1554.39 
        0.23588         1793.83         1352.19 
         0.2514         1563.15         1228.45 
       0.267535         1565.22         1111.53 
       0.283568         1420.03         980.224 
       0.299022          1344.9         873.329 
       0.314451         1282.81         798.163 
       0.330372         1177.12         732.225 
       0.346141         1130.69         664.606 
       0.361624         1087.34         604.036 
       0.377134         1013.63         555.808 
       0.392932         973.092         514.279 
       0.408854         956.401         474.066 
       0.424564         884.541         436.953 
       0.440253         869.269         405.106 
       0.455999         840.567         377.414 
       0.471626         810.448         351.965 
        0.48727         777.647         328.159 
       0.502856         755.986         306.773 
       0.518488         749.441         287.691 
       0.534347         703.228         269.952 
       0.550082         686.749         253.595 
       0.565732         683.399         238.631 
       0.581496         646.487         224.926 
       0.597222         634.162         212.356 
       0.612804         623.349         200.799 
       0.628434         606.185         190.026 
       0.644267         590.964         179.954 
       0.660051         574.117         170.672 
       0.675724         568.645           162.1 
       0.691403          550.16          154.11 
       0.707174          532.65         146.614 
       0.722871         526.505         139.646 
        0.73838         516.894         133.205 
       0.754018          506.23         127.122 
       0.769845         497.544         121.353 
        0.78569         488.461         115.937 
       0.801365         476.535         110.906 
       0.817031         463.995         106.177 
       0.832809         460.432         101.696 
       0.848511          450.55         97.4946 
       0.864097         437.246         93.5605 
       0.879701         431.765         89.8409 
       0.895507         429.492         86.2805 
       0.911279         417.357         82.9214 
        0.92691         411.772         79.7698 
       0.942635         401.779         76.7653 
       0.958396         391.987         73.9099 
       0.974128         386.578         71.2055 
       0.989692         384.349         68.6638 
        1.00528         373.647         66.2429 
        1.02113         372.227         63.9012 
        1.03692         361.397         61.6819 
        1.05264         359.429         59.5786 
        1.06832         349.691         57.5771 
        1.08405         345.478         55.6625 
        1.09979         339.892         53.8343 
        1.11537         333.581         52.1066 
        1.13105         328.352         50.4447 
        1.14679         320.458         48.8491 
        1.16256         314.575         47.3197 
        1.17828         314.069         45.8611 
        1.19395         306.259         44.4691 
         1.2097         302.019          43.128 
        1.22537         295.923         41.8489 
          1.241         293.502         40.6257 
        1.25666         288.469         39.4485 
        1.27241         284.483         38.3126 
        1.28819         280.151         37.2196 
        1.30392         273.909         36.1726 
        1.31957         273.453         35.1707 
        1.33529         268.185         34.2032 
        1.35108          262.52         33.2684 
        1.36674         258.813         32.3752 
         1.3824         257.543         31.5158 
        1.39811         253.159         30.6849 
        1.41389         250.232         29.8807 
        1.42964         247.493         29.1069 
        1.44531         243.688         28.3643 
        1.46101         239.605         27.6461 
        1.47667         236.818          26.955 
        1.49229          234.36         26.2894 
        1.50793         228.678         25.6456 
        1.52367         227.424         25.0193 
        1.53953         224.029         24.4097 
        1.55526         219.517         23.8254 
        1.57092         218.105         23.2627 
        1.58662         215.618         22.7168 
        1.60235         211.737         22.1874 
        1.61809         209.822         21.6747 
        1.63369         206.652         21.1828 
        1.64941           202.7         20.7026 
        1.66519         201.438         20.2357 
        1.68085         198.537         19.7865 
        1.69652         195.654         19.3508 
        1.71228         191.383         18.9258 
        1.72806         189.861         18.5133 
        1.74368         187.118         18.1172 
        1.75933         184.059         17.7319 
        1.77505         183.045         17.3561 
        1.79081         181.118         16.9905 
         1.8065         177.793          16.637 
        1.82218         176.009         16.2939 
        1.83797         174.482         15.9581 
        1.85367         171.582         15.6337 
        1.86928         168.741         15.3203 
        1.88497         166.826         15.0137 
        1.90073         165.196         14.7145 
        1.91647         163.532         14.4237 
        1.93218          161.55         14.1413 
        1.94787         158.163          13.867 
        1.96363         156.097         13.5988 
        1.97935         155.462         13.3383 
        1.99499         152.728         13.0861 
        2.01064          151.18         12.8401 
         2.0264         149.519         12.5988 
        2.04216         147.574         12.3639 
        2.05781         146.015         12.1365 
        2.07353         144.429          11.914 
        2.08928         141.933         11.6966 
        2.10499         140.702         11.4852 
        2.12065         138.256         11.2796 
        2.13633         137.278         11.0789 
        2.15211         134.754         10.8819 
        2.16785         133.531         10.6901 
        2.18349         132.391         10.5042 
        2.19916         130.533         10.3223 
        2.21489         129.335         10.1442 
        2.23063         127.007          9.9701 
         2.2463         125.788         9.80089 
        2.26194         123.825         9.63604 
        2.27765          122.82         9.47414 
        2.29341         121.348         9.31554 
        2.30914         120.299         9.16091 
        2.32486         118.426         9.00987 
        2.34061         117.205         8.86199 
        2.35635         115.889         8.71756 
        2.37203         114.553         8.57685 
        2.38768         113.033         8.43955 
        2.40339         111.956         8.30475 
        2.41914         110.402         8.17259 
        2.43483         109.365         8.04377 
         2.4505         108.216         7.91795 
        2.46622          107.08         7.79439 
        2.48195         105.556         7.67345 
        2.49759          104.16         7.55573 
        2.51328          103.72         7.44018 
        2.52906         102.063         7.32631 
        2.54479         101.129         7.21525 
        2.56049         99.9604         7.10671 
        2.57618         98.8053          7.0005 
        2.59189         97.7963          6.8963 
        2.60758         96.7133         6.79439 
        2.62325         95.4574         6.69466 
        2.63898         94.2395         6.59659 
        2.65468         93.2835         6.50068 
        2.67044         92.5706         6.40628 
        2.68618         91.3852         6.31397 
        2.70184         90.9287         6.22384 
        2.71755         89.3947         6.13525 
        2.73329         88.6697         6.04825 
        2.74897         87.7594         5.96322 
        2.76462         86.4979         5.88002 
        2.78034         85.9404         5.79806 
        2.79607          84.421         5.71758 
        2.81179         83.6838         5.63871 
        2.82749         82.8338         5.56142 
        2.84321         82.1693          5.4855 
        2.85893         81.2622         5.41102 
        2.87462         80.2559         5.33804 
        2.89033         79.2647         5.26635 
        2.90605         78.4613         5.19591 
        2.92176         77.5862         5.12679 
        2.93747         77.1449         5.05897 
        2.95318         75.9949         4.99236 
        2.96891         75.5533         4.92692 
        2.98456         74.7745         4.86295 
        3.00023         73.7904         4.80001 
        3.01596         73.0358           4.738 
        3.03164         72.2138         4.67725 
        3.04738         71.4588          4.6174 
         3.0631         70.7147         4.55861 
        3.07883         70.2538         4.50084 
        3.09456         69.5487         4.44409 
        3.11026         68.6355          4.3884 
        3.12596         67.9019         4.33367 
        3.14163         67.3838            4.28 
        3.15734         66.4986         4.22711 
        3.17308         65.7673         4.17499 
        3.18879         65.3713         4.12389 
        3.20447         64.4766         4.07372 
         3.2202         64.1011         4.02423 
         3.2359         63.2386         3.97565 
        3.25157          62.629         3.92799 
        3.26729         62.1816         3.88096 
        3.28304         61.7428         3.83461 
        3.29877         60.9855         3.78908 
        3.31446         60.0068         3.74439 
        3.33014         59.8114         3.70046 
        3.34585         58.9486         3.65716 
        3.36158         58.5557          3.6145 
        3.37727         58.0396         3.57264 
        3.39294          57.322         3.53149 
        3.40867         56.8306         3.49084 
        3.42439         56.3804         3.45085 
        3.44008          55.755         3.41157 
        3.45578          55.129         3.37287 
        3.47153         54.6658         3.33468 
        3.48724         54.1189         3.29715 
        3.50292         53.8191         3.26028 
        3.51859          53.129           3.224 
        3.53431         52.8042         3.18816 
        3.55007         52.1183         3.15277 
        3.56577         51.8305         3.11806 
        3.58146          51.195         3.08388 
        3.59719         50.7022         3.05014 
        3.61292         50.2144         3.01692 
        3.62859         49.7526         2.98432 
        3.64429          49.263         2.95213 
        3.66003         48.9451         2.92032 
        3.67578         48.3527           2.889 
        3.69146         48.0115         2.85824 
        3.70712         47.4085           2.828 
        3.72284         47.0049         2.79808 
        3.73853         46.5938         2.76864 
        3.75422          46.016         2.73961 
        3.76993         45.6852         2.71098 
        3.78564         45.2506         2.68277 
        3.80137         44.8856         2.65491 
        3.81707         44.4477         2.62751 
        3.83279         44.0805         2.60047 
        3.84853         43.7624         2.57376 
        3.86424          43.258         2.54749 
        3.87992         42.9937         2.52162 
        3.89561         42.6018         2.49611 
        3.91134         42.0959         2.47089 
        3.92704         41.8048         2.44606 
        3.94273         41.4156         2.42159 
        3.95845         41.2265         2.39741 
        3.97418         40.7882         2.37356 
        3.98988         40.4102         2.35006 
        4.00554         40.0309         2.32695 
        4.02125         39.7889         2.30408 
        4.03698         39.3416         2.28148 
        4.05268         39.0777         2.25923 
        4.06839         38.7078         2.23727 
         4.0841         38.2927          2.2156 
        4.09983         37.9955         2.19419 
        4.11555         37.7117         2.17308 
        4.13124         37.4096         2.15229 
        4.14693         37.0459         2.13176 
        4.16266         36.7509         2.11146 
        4.17839         36.3332         2.09143 
        4.19408         36.0476          2.0717 
        4.20977         35.7129         2.05222 
        4.22551         35.4007         2.03294 
        4.24123         35.1922         2.01393 
        4.25691         34.8952         1.99522 
        4.27259         34.5786         1.97673 
        4.28831         34.2389         1.95845 
        4.30404         34.0499         1.94038 
        4.31974         33.6679         1.92257 
        4.33543         33.3507           1.905 
        4.35116         33.1836         1.88761 
        4.36688         32.9107         1.87044 
        4.38255         32.5786         1.85354 
        4.39825         32.3245         1.83682 
        4.41398         32.1429         1.82027 
         4.4297         31.7213         1.80395 
        4.44541         31.5414         1.78782 
        4.46111         31.2262         1.77191 
        4.47683         31.0147         1.75618 
        4.49251         30.6956         1.74067 
        4.50819         30.5541         1.72535 
         4.5239         30.2844         1.71019 
        4.53962         30.0401          1.6952 
        4.55535         29.8491         1.68038 
        4.57106         29.5119         1.66576 
        4.58678         29.3388          1.6513 
         4.6025          28.982         1.63702 
        4.61821         28.8361         1.62291 
        4.63391          28.591         1.60898 
         4.6496         28.3547         1.59522 
        4.66532         28.1298          1.5816 
        4.68103         27.8991         1.56815 
        4.69673         27.6819         1.55486 
        4.71241         27.5478         1.54175 
        4.72811          27.214         1.52876 
        4.74384         27.0663          1.5159 
        4.75955         26.8612         1.50321 
        4.77525          26.578         1.49068 
        4.79096         26.4504         1.47827 
        4.80669         26.1841           1.466 
         4.8224         26.0433         1.45388 
        4.83809         25.8179         1.44191 
        4.85379          25.547         1.43006 
         4.8695         25.4013         1.41834 
        4.88521         25.1758         1.40676 
        4.90093         24.9619          1.3953 
        4.91663         24.7763         1.38399 
        4.93234         24.6374         1.37278 
        4.94807          24.391         1.36169 
        4.96377          24.224         1.35075 
        4.97943         24.0356         1.33995 
        4.99514         23.8831         1.32924 
        5.01086         23.7234         1.31863 
        5.02654         23.4774         1.30817 
        5.04227         23.3706          1.2978 
          5.058         23.1793         1.28753 
        5.07371         22.9858         1.27739 
        5.08942         22.7352         1.26736 
        5.10513          22.657         1.25743 
        5.12084         22.4742         1.24761 
        5.13656         22.2776         1.23789 
        5.15225         22.1062          1.2283 
        5.16796         21.9668         1.21879 
        5.18369         21.7653         1.20937 
         5.1994         21.6512         1.20007 
        5.21509         21.4287         1.19087 
        5.23079         21.3317         1.18176 
        5.24649         21.1445         1.17276 
        5.26217         21.0445         1.16385 
        5.27788         20.8506         1.15502 
        5.29359         20.6817         1.14628 
        5.30933         20.4733         1.13762 
        5.32504          20.372         1.12907 
        5.34073         20.2317         1.12061 
        5.35646         20.0666         1.11222 
        5.37218         19.9147         1.10391 
        5.38789         19.7902         1.09571 
        5.40357          19.644         1.08759 
        5.41929         19.4883         1.07954 
        5.43502         19.3524         1.07157 
         5.4507         19.2233          1.0637 
        5.46639         19.0639         1.05591 
        5.48212         18.9614         1.04818 
        5.49786         18.7537         1.04051 
        5.51353          18.647         1.03297 
        5.52921         18.5361         1.02548 
        5.54495         18.3991         1.01805 
        5.56066          18.269          1.0107 
        5.57637         18.1099         1.00343 
        5.59207         17.9754        0.996232 
        5.60778         17.8425        0.989103 
        5.62346         17.7657        0.982053 
        5.63916         17.6433        0.975065 
        5.65487         17.4904        0.968142 
         5.6706         17.3767        0.961278 
        5.68633         17.2534        0.954477 
        5.70203         17.1226        0.947757 
        5.71773         17.0124        0.941102 
        5.73344         16.8718        0.934508 
        5.74916         16.7812         0.92797 
        5.76486         16.6811        0.921504 
        5.78054         16.5512         0.91511 
        5.79626           16.43        0.908758 
          5.812         16.3308        0.902461 
         5.8277          16.205        0.896241 
        5.84339         16.0693         0.89008 
        5.85911         15.9593        0.883964 
        5.87484          15.835        0.877908 
        5.89053         15.7569         0.87192 
        5.90623          15.651        0.865985 
        5.92195         15.5297        0.860095 
        5.93767         15.4168        0.854263 
        5.95336         15.2985        0.848495 
        5.96905         15.2258        0.842782 
        5.98476         15.0995        0.837113 
        6.00048         14.9858        0.831495 
        6.01617         14.9026        0.825936 
        6.03185          14.795        0.820434 
        6.04756         14.6745        0.814969 
        6.06331         14.5968        0.809543 
        6.07903         14.5016        0.804177 
        6.09473         14.3771        0.798865 
        6.11044         14.3049        0.793595 
        6.12616         14.1967        0.788375 
        6.14186         14.0849        0.783206 
        6.15755         13.9906        0.778084 
        6.17326         13.9267        0.773004 
        6.18898         13.8325        0.767966 
        6.20467         13.7374        0.762983 
        6.22036         13.6246        0.758044 
         6.2361          13.543        0.753135 
         6.2518         13.4505        0.748278 
        6.26748         13.3738        0.743475 
        6.28319          13.288          0.7387 
        6.29893         13.1777        0.733963 
        6.31463          13.092        0.729276 
        6.33033         13.0076        0.724631 
        6.34604         12.9487        0.720023 
        6.36177         12.8339        0.715451 
        6.37747         12.7616        0.710927 
