# k  (h/Mpc)    Pcb(k)  (Mpc/h)^3    Pcb_linear(k) (Mpc/h)^3   ShotnoiseSubtracted = true
      0.0200456         18544.8         18874.1 
      0.0350414         11725.7           12129 
      0.0492313          8213.7         8278.91 
      0.0637834          6910.2         6703.36 
      0.0800726         5248.57         5077.17 
       0.096163         3487.02         3502.36 
       0.111083         2768.25         2764.95 
       0.126058         2533.57         2444.16 
       0.142273         2150.26         1998.23 
       0.158546         1797.32         1529.15 
        0.17375         1427.69         1292.27 
       0.188953         1385.04         1168.95 
       0.204907         1281.05         1007.73 
       0.220756         1086.37         834.163 
        0.23588         961.733         727.132 
         0.2514         830.818         660.752 
       0.267535         811.587         587.496 
       0.283568         730.557         509.788 
       0.299022         685.257         453.673 
       0.314451         646.547         414.567 
       0.330372         592.141         376.162 
       0.346141         542.145         337.399 
       0.361624         522.174         305.586 
       0.377134         480.994         280.794 
       0.392932         457.947         258.078 
       0.408854         442.062         235.877 
       0.424564         411.374         216.442 
       0.440253         403.351         200.167 
       0.455999         378.543          185.63 
       0.471626         360.328         172.077 
        0.48727         343.664         159.705 
       0.502856         332.922         148.862 
       0.518488         328.979         139.088 
       0.534347         306.961         129.933 
       0.550082         292.296         121.559 
       0.565732         289.213          114.03 
       0.581496         270.904         107.129 
       0.597222         266.032         100.788 
       0.612804         258.587         94.9657 
       0.628434         247.751         89.5962 
       0.644267         240.542         84.5961 
       0.660051         234.976         79.9878 
       0.675724         230.368         75.7452 
       0.691403         222.957         71.8038 
       0.707174         215.369         68.1181 
       0.722871          211.19         64.7032 
        0.73838         207.823         61.5565 
       0.754018          202.74         58.5933 
       0.769845         195.928         55.7911 
        0.78569         194.684         53.1681 
       0.801365         186.979         50.7379 
       0.817031         181.104         48.4603 
       0.832809          180.18          46.307 
       0.848511         174.146         44.2932 
       0.864097         171.897         42.4122 
       0.879701         168.669         40.6377 
       0.895507         164.407         38.9432 
       0.911279         159.171         37.3481 
        0.92691         158.915         35.8549 
       0.942635         154.011         34.4345 
       0.958396         152.843         33.0874 
       0.974128         149.002         31.8144 
       0.989692         146.061         30.6203 
        1.00528         144.073         29.4853 
        1.02113         141.989         28.3897 
        1.03692         138.991         27.3534 
        1.05264          135.78         26.3732 
        1.06832         133.129         25.4422 
        1.08405         131.471         24.5533 
        1.09979         129.211         23.7061 
        1.11537          127.06          22.907 
        1.13105          124.23         22.1396 
        1.14679         123.914         21.4042 
        1.16256         122.191         20.7005 
        1.17828         119.739         20.0306 
        1.19395         117.518         19.3923 
         1.2097         116.707         18.7784 
        1.22537         114.432         18.1938 
          1.241         112.854         17.6357 
        1.25666         111.177         17.0995 
        1.27241         108.854         16.5828 
        1.28819         107.998         16.0865 
        1.30392         105.083         15.6117 
        1.31957         104.913         15.1581 
        1.33529         102.246         14.7207 
        1.35108         101.407         14.2987 
        1.36674         100.126         13.8961 
         1.3824         98.9281         13.5093 
        1.39811         97.6002         13.1357 
        1.41389         96.0718         12.7748 
        1.42964         94.0528         12.4279 
        1.44531         92.6074         12.0955 
        1.46101         91.0141         11.7745 
        1.47667         90.3969         11.4659 
        1.49229         89.0186         11.1691 
        1.50793         87.9089         10.8825 
        1.52367         86.7344         10.6039 
        1.53953         85.2706         10.3332 
        1.55526         84.6448          10.074 
        1.57092         83.8094         9.82463 
        1.58662         82.1619         9.58308 
        1.60235          81.478         9.34911 
        1.61809         80.0354         9.12276 
        1.63369         79.0667         8.90586 
        1.64941         78.4996         8.69439 
        1.66519         77.0203         8.48897 
        1.68085         76.7992         8.29159 
        1.69652         74.7978         8.10037 
        1.71228         74.5459         7.91404 
        1.72806         73.7444         7.73338 
        1.74368         72.5507         7.56012 
        1.75933          71.645         7.39177 
        1.77505         70.9107         7.22772 
        1.79081         69.7447         7.06831 
         1.8065         68.7527         6.91434 
        1.82218         67.6855         6.76506 
        1.83797         66.7736         6.61913 
        1.85367         66.5049         6.47826 
        1.86928         65.4396         6.34231 
        1.88497         64.6414         6.20947 
        1.90073         63.9805         6.07992 
        1.91647          63.224         5.95415 
        1.93218         62.4723         5.83217 
        1.94787         61.8759         5.71375 
        1.96363         60.9422         5.59813 
        1.97935         60.1166         5.48591 
        1.99499         59.6004         5.37737 
        2.01064         58.8723         5.27158 
         2.0264          58.182         5.16795 
        2.04216         57.4588         5.06713 
        2.05781          56.533         4.96961 
        2.07353          55.657         4.87429 
        2.08928         55.0366         4.78123 
        2.10499         54.2087         4.69083 
        2.12065         54.0203         4.60302 
        2.13633         53.3856         4.51736 
        2.15211         52.9614          4.4333 
        2.16785         52.0282          4.3516 
        2.18349         51.6589         4.27245 
        2.19916         50.9798         4.19508 
        2.21489         50.5458         4.11936 
        2.23063         50.0714         4.04543 
         2.2463         49.0137         3.97363 
        2.26194         48.9518         3.90374 
        2.27765         48.4703         3.83516 
        2.29341         47.6138         3.76802 
        2.30914         47.2498         3.70262 
        2.32486         46.6673         3.63879 
        2.34061          46.074         3.57635 
        2.35635         45.3904         3.51541 
        2.37203         44.8331         3.45609 
        2.38768         44.3583         3.39825 
        2.40339         44.0878         3.34151 
        2.41914         43.6158         3.28592 
        2.43483         43.2462         3.23178 
         2.4505         42.8906         3.17893 
        2.46622         42.0645         3.12708 
        2.48195         41.9619         3.07637 
        2.49759         41.1714         3.02704 
        2.51328         40.7298         2.97865 
        2.52906         40.4348         2.93101 
        2.54479         40.0528         2.88457 
        2.56049         39.3689         2.83922 
        2.57618         39.2922         2.79488 
        2.59189         38.6151          2.7514 
        2.60758          38.354         2.70891 
        2.62325          37.853         2.66736 
        2.63898          37.654         2.62653 
        2.65468          37.115         2.58663 
        2.67044         36.5247         2.54738 
        2.68618          36.339         2.50903 
        2.70184         35.8518         2.47161 
        2.71755          35.471         2.43485 
        2.73329         35.0845         2.39878 
        2.74897         34.8007         2.36355 
        2.76462          34.399         2.32909 
        2.78034         34.1109         2.29518 
        2.79607         33.7525         2.26189 
        2.81179          33.391          2.2293 
        2.82749          32.974         2.19738 
        2.84321         32.6818         2.16605 
        2.85893         32.3166         2.13532 
        2.87462          31.937         2.10524 
        2.89033          31.667         2.07571 
        2.90605         31.2246         2.04671 
        2.92176         31.0196         2.01828 
        2.93747          30.678         1.99039 
        2.95318         30.3857         1.96302 
        2.96891          30.027         1.93615 
        2.98456         29.7482         1.90989 
        3.00023         29.3067         1.88408 
        3.01596           29.21         1.85866 
        3.03164         28.8708         1.83377 
        3.04738         28.6364         1.80926 
         3.0631         28.2949         1.78521 
        3.07883         27.9329         1.76159 
        3.09456         27.7672         1.73839 
        3.11026          27.412         1.71564 
        3.12596         27.1661          1.6933 
        3.14163         26.8511         1.67141 
        3.15734         26.5624         1.64984 
        3.17308         26.4206          1.6286 
        3.18879         26.1062         1.60779 
        3.20447         25.7986         1.58737 
         3.2202         25.4804         1.56723 
         3.2359         25.4447         1.54748 
        3.25157          25.066         1.52811 
        3.26729         24.7412         1.50901 
        3.28304         24.5485          1.4902 
        3.29877         24.4111         1.47173 
        3.31446          24.062         1.45361 
        3.33014         23.9483          1.4358 
        3.34585         23.5489         1.41827 
        3.36158         23.4304           1.401 
        3.37727         23.1687         1.38406 
        3.39294         22.9848         1.36742 
        3.40867         22.6749         1.35099 
        3.42439          22.516         1.33484 
        3.44008         22.4157         1.31898 
        3.45578         22.0623         1.30336 
        3.47153         21.8304         1.28796 
        3.48724         21.6167         1.27283 
        3.50292         21.4286         1.25798 
        3.51859         21.2289         1.24336 
        3.53431         21.0805         1.22894 
        3.55007         20.7939          1.2147 
        3.56577         20.6704         1.20074 
        3.58146          20.444         1.18701 
        3.59719         20.2633         1.17346 
        3.61292         20.0858         1.16012 
        3.62859         19.8368         1.14704 
        3.64429         19.7169         1.13413 
        3.66003         19.4311         1.12137 
        3.67578         19.2926         1.10882 
        3.69146         19.1257         1.09651 
        3.70712         18.9679          1.0844 
        3.72284         18.8366         1.07243 
        3.73853         18.6267         1.06065 
        3.75422         18.4649         1.04905 
        3.76993         18.2582         1.03761 
        3.78564         18.1078         1.02634 
        3.80137          17.971         1.01522 
        3.81707         17.7889         1.00429 
        3.83279         17.5612        0.993508 
        3.84853         17.4557        0.982865 
        3.86424          17.256        0.972396 
        3.87992         17.1182        0.962094 
        3.89561          16.997        0.951939 
        3.91134         16.8175        0.941908 
        3.92704         16.7266        0.932032 
        3.94273         16.5305        0.922305 
        3.95845         16.3267        0.912699 
        3.97418         16.2206        0.903225 
        3.98988         16.0509        0.893898 
        4.00554         15.9619        0.884726 
        4.02125         15.8669        0.875655 
        4.03698         15.6845        0.866696 
        4.05268         15.5129        0.857881 
        4.06839         15.4157        0.849181 
         4.0841         15.2868        0.840604 
        4.09983         15.1425        0.832131 
        4.11555         14.9847        0.823777 
        4.13124         14.8469         0.81556 
        4.14693         14.7056        0.807446 
        4.16266         14.6031        0.799424 
        4.17839         14.4486        0.791513 
        4.19408          14.326        0.783727 
        4.20977          14.183        0.776041 
        4.22551         14.1476        0.768438 
        4.24123         13.9904        0.760944 
        4.25691         13.8303         0.75357 
        4.27259         13.7381        0.746289 
        4.28831         13.6332        0.739089 
        4.30404         13.5545        0.731976 
        4.31974         13.4321        0.724972 
        4.33543         13.3024        0.718062 
        4.35116           13.17        0.711224 
        4.36688         13.0545        0.704478 
        4.38255         12.9264        0.697842 
        4.39825         12.8776        0.691278 
        4.41398         12.7763        0.684783 
         4.4297         12.6654        0.678378 
        4.44541         12.5015        0.672055 
        4.46111         12.4417        0.665817 
        4.47683         12.3075        0.659653 
        4.49251         12.2541        0.653578 
        4.50819         12.1316        0.647581 
         4.5239         12.0014        0.641649 
        4.53962         11.9196        0.635784 
        4.55535         11.8345        0.629988 
        4.57106         11.7257        0.624272 
        4.58678         11.6533        0.618625 
         4.6025         11.5332        0.613046 
        4.61821         11.4366        0.607536 
        4.63391          11.359          0.6021 
         4.6496         11.2546        0.596732 
        4.66532         11.1479         0.59142 
        4.68103          11.089        0.586175 
        4.69673         10.9604        0.580997 
        4.71241         10.8912        0.575887 
        4.72811         10.7914        0.570829 
        4.74384          10.709        0.565825 
        4.75955         10.6309        0.560887 
        4.77525         10.5712        0.556011 
        4.79096         10.4887        0.551186 
        4.80669          10.409        0.546415 
         4.8224         10.3029        0.541706 
        4.83809         10.2215        0.537056 
        4.85379         10.1532        0.532458 
         4.8695         10.0779        0.527909 
        4.88521         9.99158        0.523415 
        4.90093         9.90902        0.518972 
        4.91663         9.82981        0.514584 
        4.93234         9.76788        0.510241 
        4.94807         9.67982        0.505945 
        4.96377         9.61179        0.501706 
        4.97943         9.53806        0.497524 
        4.99514         9.44835        0.493378 
        5.01086         9.38869        0.489276 
        5.02654         9.31389        0.485231 
        5.04227         9.24958        0.481218 
          5.058         9.15201        0.477249 
        5.07371          9.1076        0.473332 
        5.08942         9.03109        0.469458 
        5.10513         8.96565        0.465626 
        5.12084         8.89893        0.461835 
        5.13656         8.84258        0.458086 
        5.15225         8.78454        0.454385 
        5.16796         8.71041        0.450718 
        5.18369         8.62867        0.447088 
         5.1994         8.58008        0.443505 
        5.21509         8.50157        0.439963 
        5.23079         8.43863        0.436455 
        5.24649         8.37897        0.432988 
        5.26217         8.32831         0.42956 
        5.27788         8.25596        0.426165 
        5.29359         8.21297        0.422805 
        5.30933         8.14153        0.419476 
        5.32504         8.09774        0.416188 
        5.34073         8.01367        0.412939 
        5.35646          7.9584        0.409717 
        5.37218         7.91393        0.406529 
        5.38789         7.84636        0.403379 
        5.40357         7.78881        0.400266 
        5.41929         7.72785        0.397179 
        5.43502         7.66929        0.394123 
         5.4507         7.61027        0.391107 
        5.46639         7.54431        0.388122 
        5.48212          7.5277         0.38516 
        5.49786         7.45392        0.382225 
        5.51353         7.40571        0.379335 
        5.52921         7.35016        0.376472 
        5.54495         7.30381         0.37363 
        5.56066         7.23482        0.370819 
        5.57637         7.19554        0.368038 
        5.59207         7.12946        0.365287 
        5.60778          7.0873        0.362563 
        5.62346         7.03136        0.359871 
        5.63916          6.9886        0.357203 
        5.65487         6.93659         0.35456 
         5.6706         6.87744        0.351941 
        5.68633         6.85074        0.349346 
        5.70203         6.79943        0.346783 
        5.71773         6.75866        0.344246 
        5.73344         6.69176        0.341733 
        5.74916         6.65948        0.339242 
        5.76486         6.61527        0.336779 
        5.78054         6.57377        0.334345 
        5.79626         6.51005        0.331927 
          5.812         6.47283         0.32953 
         5.8277         6.43637        0.327164 
        5.84339         6.38158        0.324821 
        5.85911         6.34574        0.322495 
        5.87484         6.29322        0.320193 
        5.89053         6.25179        0.317918 
        5.90623         6.22255        0.315663 
        5.92195         6.18788        0.313427 
        5.93767         6.13177        0.311213 
        5.95336         6.08601        0.309023 
        5.96905         6.03625        0.306856 
        5.98476         6.01237        0.304705 
        6.00048         5.96482        0.302575 
        6.01617         5.92035        0.300468 
        6.03185         5.88571        0.298383 
        6.04756         5.83989        0.296312 
        6.06331         5.82075        0.294257 
        6.07903         5.77392        0.292225 
        6.09473         5.74035        0.290214 
        6.11044         5.69197         0.28822 
        6.12616         5.66216        0.286244 
        6.14186         5.61863         0.28429 
        6.15755         5.58082        0.282353 
        6.17326         5.53994        0.280432 
        6.18898         5.51328        0.278529 
        6.20467         5.46806        0.276646 
        6.22036         5.43561        0.274781 
         6.2361         5.40921        0.272927 
         6.2518           5.359        0.271094 
        6.26748         5.32576        0.269281 
        6.28319         5.28874        0.267479 
        6.29893          5.2645        0.265693 
        6.31463          5.2316        0.263925 
        6.33033         5.18573        0.262174 
        6.34604           5.161        0.260438 
        6.36177          5.1271        0.258715 
        6.37747         5.09291        0.257011 
