# k  (h/Mpc)    Pcb(k)  (Mpc/h)^3    Pcb_linear(k) (Mpc/h)^3   ShotnoiseSubtracted = true
      0.0200456         22876.8         23213.9 
      0.0350414         15540.1         14917.8 
      0.0492313         10059.9         10182.5 
      0.0637834         7917.78         8244.68 
      0.0800726         5966.34         6244.57 
       0.096163         4621.82         4307.67 
       0.111083         3705.82          3400.7 
       0.126058         3053.85         3006.15 
       0.142273         2608.56         2457.69 
       0.158546          2093.8         1880.76 
        0.17375         1853.53         1589.41 
       0.188953         1746.77         1437.73 
       0.204907         1476.87         1239.44 
       0.220756         1322.85         1025.96 
        0.23588         1174.76         894.323 
         0.2514         1051.87          812.68 
       0.267535         1011.79          722.58 
       0.283568         890.266         627.005 
       0.299022         843.149         557.987 
       0.314451          874.86          509.89 
       0.330372         756.025         462.653 
       0.346141         692.559         414.978 
       0.361624         661.729          375.85 
       0.377134         631.218         345.357 
       0.392932         597.861         317.419 
       0.408854         572.957         290.113 
       0.424564         556.807         266.209 
       0.440253         509.905         246.192 
       0.455999         485.519         228.312 
       0.471626         494.165         211.643 
        0.48727         462.597         196.426 
       0.502856         440.396          183.09 
       0.518488         427.793         171.069 
       0.534347          408.69         159.809 
       0.550082           388.5          149.51 
       0.565732         383.129         140.249 
       0.581496         372.022         131.762 
       0.597222         362.435         123.962 
       0.612804         351.918         116.801 
       0.628434         338.162         110.197 
       0.644267         326.195         104.048 
       0.660051         322.429         98.3796 
       0.675724         313.631         93.1615 
       0.691403         307.007         88.3139 
       0.707174         295.591         83.7807 
       0.722871         291.938         79.5806 
        0.73838         285.114         75.7103 
       0.754018         275.791         72.0658 
       0.769845         275.058         68.6193 
        0.78569         266.574         65.3931 
       0.801365         257.713         62.4042 
       0.817031         256.886         59.6029 
       0.832809         250.736         56.9545 
       0.848511          246.16         54.4777 
       0.864097         237.949         52.1641 
       0.879701         238.003         49.9817 
       0.895507         230.233         47.8975 
       0.911279         225.493         45.9357 
        0.92691         222.948         44.0991 
       0.942635         219.799         42.3521 
       0.958396         213.783         40.6953 
       0.974128         211.653         39.1295 
       0.989692         204.087         37.6609 
        1.00528          203.29         36.2649 
        1.02113         200.978         34.9174 
        1.03692         196.732         33.6428 
        1.05264         192.673         32.4372 
        1.06832         190.509         31.2921 
        1.08405         187.139         30.1989 
        1.09979         183.968         29.1569 
        1.11537         181.997          28.174 
        1.13105         177.935         27.2302 
        1.14679          176.53         26.3257 
        1.16256         173.433         25.4603 
        1.17828         171.288         24.6363 
        1.19395         167.026         23.8512 
         1.2097         166.534         23.0962 
        1.22537         164.542         22.3772 
          1.241         159.075         21.6907 
        1.25666         158.981         21.0312 
        1.27241         155.988         20.3957 
        1.28819         154.076         19.7853 
        1.30392         152.543         19.2014 
        1.31957         148.899         18.6434 
        1.33529         146.069         18.1055 
        1.35108         145.651         17.5864 
        1.36674         141.655         17.0913 
         1.3824         140.754         16.6155 
        1.39811         139.668         16.1561 
        1.41389         136.451         15.7122 
        1.42964         133.938         15.2855 
        1.44531         133.471         14.8767 
        1.46101         130.973         14.4818 
        1.47667         130.035         14.1023 
        1.49229         128.586         13.7373 
        1.50793         125.833         13.3847 
        1.52367         123.917         13.0421 
        1.53953         122.076         12.7091 
        1.55526         120.934         12.3903 
        1.57092         119.939         12.0836 
        1.58662         117.624         11.7865 
        1.60235         116.311         11.4988 
        1.61809          114.47         11.2204 
        1.63369         112.571         10.9536 
        1.64941         111.991         10.6935 
        1.66519         109.738         10.4409 
        1.68085         108.291         10.1981 
        1.69652         107.354         9.96291 
        1.71228         105.319         9.73374 
        1.72806         104.929         9.51154 
        1.74368         103.819         9.29843 
        1.75933         102.383         9.09138 
        1.77505         101.033          8.8896 
        1.79081         99.5088         8.69354 
         1.8065         97.7001         8.50418 
        1.82218         96.6197         8.32057 
        1.83797         95.8771         8.14108 
        1.85367         94.7587         7.96783 
        1.86928         94.0007         7.80061 
        1.88497         92.3663         7.63723 
        1.90073         91.6422          7.4779 
        1.91647         89.9101          7.3232 
        1.93218         89.0391         7.17317 
        1.94787         87.4296         7.02753 
        1.96363         86.9974         6.88532 
        1.97935         85.8748         6.74729 
        1.99499         85.0455          6.6138 
        2.01064         83.7321         6.48369 
         2.0264         82.5032         6.35623 
        2.04216         81.6259         6.23223 
        2.05781          80.483         6.11229 
        2.07353         79.8925         5.99505 
        2.08928         78.8015          5.8806 
        2.10499         78.1063         5.76941 
        2.12065         76.8151          5.6614 
        2.13633         76.0356         5.55605 
        2.15211         74.8001         5.45266 
        2.16785         73.9922         5.35218 
        2.18349         72.7911         5.25482 
        2.19916         72.5726         5.15967 
        2.21489         71.5332         5.06653 
        2.23063         70.2738         4.97561 
         2.2463         69.4474          4.8873 
        2.26194          69.173         4.80134 
        2.27765         67.7616         4.71698 
        2.29341         67.2041         4.63442 
        2.30914         66.2298         4.55398 
        2.32486         65.5798         4.47547 
        2.34061         64.5636         4.39867 
        2.35635         64.2299         4.32372 
        2.37203          63.078         4.25076 
        2.38768         62.6398         4.17962 
        2.40339         61.6677         4.10983 
        2.41914         60.9189         4.04146 
        2.43483         60.4848         3.97487 
         2.4505         59.6262         3.90987 
        2.46622         58.9975          3.8461 
        2.48195         58.6319         3.78372 
        2.49759         57.6391         3.72305 
        2.51328         56.9268         3.66354 
        2.52906         56.3611         3.60494 
        2.54479         55.7236         3.54783 
        2.56049         55.0512         3.49205 
        2.57618         54.3849         3.43751 
        2.59189         53.7366         3.38404 
        2.60758         53.1375         3.33178 
        2.62325         52.5923         3.28068 
        2.63898         52.2314         3.23046 
        2.65468         51.4102         3.18138 
        2.67044         51.0239         3.13311 
        2.68618         50.8054         3.08593 
        2.70184         49.8613         3.03991 
        2.71755          49.422          2.9947 
        2.73329          48.672         2.95034 
        2.74897         48.3401           2.907 
        2.76462          47.642         2.86463 
        2.78034         47.1863         2.82291 
        2.79607         46.9312         2.78198 
        2.81179         46.2618         2.74189 
        2.82749         45.9172         2.70263 
        2.84321         45.2847         2.66409 
        2.85893          44.765         2.62631 
        2.87462         44.5419         2.58931 
        2.89033         43.7095         2.55298 
        2.90605          43.313         2.51732 
        2.92176         42.9151         2.48234 
        2.93747         42.5227         2.44805 
        2.95318         42.0471         2.41438 
        2.96891         41.5103         2.38133 
        2.98456         41.0712         2.34904 
        3.00023           40.79         2.31729 
        3.01596         40.0832         2.28602 
        3.03164         39.6399         2.25541 
        3.04738         39.3311         2.22527 
         3.0631         38.9855         2.19569 
        3.07883         38.4705         2.16663 
        3.09456         38.0945          2.1381 
        3.11026         37.8363         2.11013 
        3.12596         37.3973         2.08265 
        3.14163         36.9899         2.05572 
        3.15734         36.5258         2.02919 
        3.17308         36.3476         2.00307 
        3.18879         35.9614         1.97747 
        3.20447         35.5546         1.95235 
         3.2202         35.1445         1.92759 
         3.2359         34.9032          1.9033 
        3.25157          34.597         1.87948 
        3.26729         34.0834         1.85598 
        3.28304         33.7871         1.83285 
        3.29877         33.3945         1.81013 
        3.31446          33.089         1.78784 
        3.33014         32.8133         1.76594 
        3.34585         32.3706         1.74437 
        3.36158         32.1771         1.72313 
        3.37727          31.679          1.7023 
        3.39294         31.5122         1.68184 
        3.40867         31.2042         1.66163 
        3.42439         30.8633         1.64176 
        3.44008         30.6152         1.62225 
        3.45578         30.2574         1.60304 
        3.47153         29.9711          1.5841 
        3.48724         29.6551         1.56549 
        3.50292         29.4471         1.54722 
        3.51859          29.083         1.52925 
        3.53431         28.8455         1.51151 
        3.55007         28.5856           1.494 
        3.56577         28.2993         1.47683 
        3.58146         28.0228         1.45994 
        3.59719         27.8044         1.44327 
        3.61292         27.5585         1.42687 
        3.62859         27.2003         1.41078 
        3.64429         26.9841          1.3949 
        3.66003         26.8123         1.37922 
        3.67578          26.515         1.36378 
        3.69146         26.2215         1.34863 
        3.70712          25.919         1.33374 
        3.72284         25.7402         1.31901 
        3.73853         25.5323         1.30453 
        3.75422         25.2163         1.29026 
        3.76993         25.0853         1.27619 
        3.78564         24.8372         1.26233 
        3.80137         24.6563         1.24866 
        3.81707         24.3511         1.23521 
        3.83279         24.2042         1.22195 
        3.84853         23.8737         1.20886 
        3.86424         23.7482         1.19598 
        3.87992         23.5049         1.18331 
        3.89561         23.2153         1.17082 
        3.91134         22.9944         1.15848 
        3.92704         22.8641         1.14634 
        3.94273         22.6462         1.13437 
        3.95845          22.418         1.12256 
        3.97418         22.2147         1.11091 
        3.98988         21.9572         1.09943 
        4.00554         21.8119         1.08815 
        4.02125            21.6           1.077 
        4.03698         21.4072         1.06598 
        4.05268         21.2324         1.05514 
        4.06839         20.9854         1.04444 
         4.0841         20.8599         1.03389 
        4.09983         20.6048         1.02346 
        4.11555         20.4646         1.01319 
        4.13124         20.2719         1.00308 
        4.14693         20.0814        0.993105 
        4.16266         19.8761        0.983237 
        4.17839         19.7651        0.973508 
        4.19408         19.5904        0.963931 
        4.20977         19.4151        0.954478 
        4.22551         19.2852        0.945127 
        4.24123         19.0579         0.93591 
        4.25691         18.8965         0.92684 
        4.27259         18.8143        0.917885 
        4.28831         18.5836         0.90903 
        4.30404          18.439        0.900282 
        4.31974         18.2631        0.891666 
        4.33543         18.1452        0.883168 
        4.35116         18.0018        0.874758 
        4.36688         17.8313         0.86646 
        4.38255         17.6704        0.858299 
        4.39825         17.5433        0.850225 
        4.41398         17.3762        0.842237 
         4.4297         17.2255        0.834359 
        4.44541         17.1069        0.826583 
        4.46111         16.9354         0.81891 
        4.47683         16.8299        0.811328 
        4.49251         16.6698        0.803857 
        4.50819         16.5133        0.796481 
         4.5239         16.3845        0.789185 
        4.53962           16.25        0.781971 
        4.55535           16.13        0.774843 
        4.57106         15.9974        0.767813 
        4.58678         15.8283        0.760867 
         4.6025          15.749        0.754005 
        4.61821         15.5826        0.747228 
        4.63391         15.4858        0.740542 
         4.6496         15.3574         0.73394 
        4.66532         15.2085        0.727407 
        4.68103         15.1157        0.720955 
        4.69673         14.9734        0.714588 
        4.71241         14.8809        0.708302 
        4.72811         14.7207        0.702081 
        4.74384          14.613        0.695926 
        4.75955         14.5075        0.689854 
        4.77525         14.4117        0.683856 
        4.79096         14.2841        0.677922 
        4.80669         14.1489        0.672054 
         4.8224         14.0606        0.666262 
        4.83809         13.9215        0.660543 
        4.85379          13.819        0.654888 
         4.8695         13.7242        0.649293 
        4.88521          13.586        0.643765 
        4.90093         13.5066          0.6383 
        4.91663         13.4047        0.632903 
        4.93234         13.2671        0.627562 
        4.94807         13.1877        0.622278 
        4.96377         13.0779        0.617064 
        4.97943         12.9782        0.611921 
        4.99514         12.8651        0.606822 
        5.01086         12.7741        0.601777 
        5.02654          12.666        0.596801 
        5.04227         12.5725        0.591866 
          5.058         12.4564        0.586984 
        5.07371         12.3835        0.582167 
        5.08942         12.3038        0.577402 
        5.10513         12.2126        0.572689 
        5.12084         12.1213        0.568026 
        5.13656         12.0158        0.563415 
        5.15225         11.9039        0.558863 
        5.16796         11.8083        0.554353 
        5.18369         11.7353        0.549889 
         5.1994         11.6223        0.545481 
        5.21509         11.5512        0.541125 
        5.23079         11.4623         0.53681 
        5.24649         11.3773        0.532546 
        5.26217          11.296         0.52833 
        5.27788         11.2139        0.524154 
        5.29359          11.105        0.520022 
        5.30933          11.038        0.515927 
        5.32504         10.9582        0.511883 
        5.34073         10.8877        0.507887 
        5.35646         10.7962        0.503924 
        5.37218         10.7168        0.500003 
        5.38789         10.6453        0.496129 
        5.40357         10.5532        0.492301 
        5.41929         10.4783        0.488503 
        5.43502         10.3925        0.484745 
         5.4507         10.3359        0.481035 
        5.46639         10.2562        0.477363 
        5.48212          10.178        0.473721 
        5.49786         10.1085        0.470111 
        5.51353         10.0413        0.466557 
        5.52921         9.93717        0.463035 
        5.54495         9.86517        0.459539 
        5.56066         9.81499        0.456083 
        5.57637         9.72505        0.452662 
        5.59207         9.67663        0.449279 
        5.60778         9.60688        0.445929 
        5.62346          9.5313        0.442617 
        5.63916         9.48347        0.439335 
        5.65487         9.38732        0.436085 
         5.6706         9.32668        0.432863 
        5.68633         9.26446        0.429673 
        5.70203         9.21361         0.42652 
        5.71773         9.12901          0.4234 
        5.73344         9.05431        0.420309 
        5.74916         8.99844        0.417245 
        5.76486         8.95615        0.414216 
        5.78054         8.87538        0.411221 
        5.79626         8.80316        0.408247 
          5.812         8.75001          0.4053 
         5.8277         8.67635        0.402389 
        5.84339         8.62143        0.399507 
        5.85911         8.58298        0.396648 
        5.87484         8.49841        0.393816 
        5.89053         8.45515        0.391018 
        5.90623          8.4052        0.388245 
        5.92195         8.32135        0.385494 
        5.93767         8.26371        0.382771 
        5.95336         8.21671        0.380078 
        5.96905         8.15923        0.377412 
        5.98476         8.11569        0.374767 
        6.00048         8.05941        0.372147 
        6.01617         8.00679        0.369555 
        6.03185         7.94944         0.36699 
        6.04756         7.89396        0.364444 
        6.06331         7.82746        0.361916 
        6.07903          7.7766        0.359417 
        6.09473         7.73998        0.356943 
        6.11044         7.69028        0.354491 
        6.12616         7.62216        0.352061 
        6.14186         7.55652        0.349657 
        6.15755         7.52205        0.347275 
        6.17326         7.47737        0.344913 
        6.18898         7.42913        0.342572 
        6.20467         7.37693        0.340256 
        6.22036         7.31939        0.337962 
         6.2361         7.28163        0.335682 
         6.2518          7.2306        0.333427 
        6.26748         7.17828        0.331197 
        6.28319         7.14956        0.328982 
        6.29893         7.08938        0.326784 
        6.31463         7.03687         0.32461 
        6.33033         7.00684        0.322457 
        6.34604          6.9524        0.320321 
        6.36177         6.90747        0.318202 
        6.37747         6.86338        0.316106 
