# k  (h/Mpc)    Pcb(k)  (Mpc/h)^3    Pcb_linear(k) (Mpc/h)^3   ShotnoiseSubtracted = true
      0.0200456         27326.6         27755.7 
      0.0350414         18620.5         17836.5 
      0.0492313         11986.8         12174.7 
      0.0637834         9433.53         9857.77 
      0.0800726          7104.6         7466.33 
       0.096163         5557.49         5150.47 
       0.111083         4456.46         4066.05 
       0.126058         3667.64         3594.31 
       0.142273         3153.47         2938.54 
       0.158546         2530.03         2248.73 
        0.17375         2258.89         1900.38 
       0.188953         2144.47         1719.03 
       0.204907         1817.96         1481.94 
       0.220756         1637.52          1226.7 
        0.23588         1454.66          1069.3 
         0.2514         1310.77         971.683 
       0.267535         1256.79         863.954 
       0.283568         1115.78          749.68 
       0.299022         1053.29         667.158 
       0.314451          1101.2         609.651 
       0.330372         965.754         553.173 
       0.346141         883.598         496.169 
       0.361624         845.238         449.386 
       0.377134         811.797         412.927 
       0.392932         763.466         379.522 
       0.408854         735.469         346.874 
       0.424564         717.094         318.294 
       0.440253         662.774          294.36 
       0.455999         630.322         272.982 
       0.471626         642.452         253.052 
        0.48727         601.274         234.858 
       0.502856         582.674         218.912 
       0.518488          558.49         204.539 
       0.534347         540.829         191.076 
       0.550082         514.042         178.762 
       0.565732         503.902         167.689 
       0.581496         491.855         157.541 
       0.597222         481.397         148.215 
       0.612804         467.702         139.654 
       0.628434         448.277         131.758 
       0.644267         434.902         124.405 
       0.660051           430.5         117.628 
       0.675724         419.298         111.389 
       0.691403         406.974         105.593 
       0.707174         394.702         100.173 
       0.722871         393.868         95.1507 
        0.73838         380.356         90.5232 
       0.754018         370.678         86.1656 
       0.769845         367.936         82.0448 
        0.78569         358.387         78.1874 
       0.801365         346.243         74.6137 
       0.817031         343.335         71.2643 
       0.832809         337.787         68.0977 
       0.848511         332.843         65.1364 
       0.864097         321.984         62.3701 
       0.879701         323.369         59.7607 
       0.895507         310.589         57.2688 
       0.911279         305.345         54.9231 
        0.92691         302.518         52.7271 
       0.942635         297.406         50.6383 
       0.958396         288.474         48.6574 
       0.974128         284.138         46.7853 
       0.989692          277.78         45.0293 
        1.00528          272.98         43.3602 
        1.02113         270.654          41.749 
        1.03692         266.202         40.2251 
        1.05264         262.473         38.7836 
        1.06832         256.057         37.4145 
        1.08405         254.953         36.1074 
        1.09979         249.016         34.8615 
        1.11537         244.243         33.6863 
        1.13105         240.741         32.5579 
        1.14679         237.059         31.4764 
        1.16256         235.283         30.4416 
        1.17828         231.749         29.4564 
        1.19395         226.114         28.5178 
         1.2097         224.659          27.615 
        1.22537         221.705         26.7553 
          1.241         215.431         25.9346 
        1.25666         214.346          25.146 
        1.27241         211.486         24.3862 
        1.28819         207.018         23.6563 
        1.30392         206.945         22.9582 
        1.31957         201.408         22.2911 
        1.33529         196.924         21.6478 
        1.35108          197.52         21.0272 
        1.36674         192.127         20.4352 
         1.3824         189.523         19.8663 
        1.39811         187.522          19.317 
        1.41389         184.504         18.7863 
        1.42964         180.946         18.2762 
        1.44531         180.176         17.7873 
        1.46101         176.523         17.3152 
        1.47667         174.115         16.8614 
        1.49229         172.934          16.425 
        1.50793          169.77         16.0034 
        1.52367         166.605         15.5938 
        1.53953         164.966         15.1957 
        1.55526         162.194         14.8145 
        1.57092         161.512         14.4478 
        1.58662         158.663         14.0926 
        1.60235         156.411         13.7485 
        1.61809         154.142         13.4157 
        1.63369          151.45         13.0967 
        1.64941         150.439         12.7857 
        1.66519         147.407         12.4836 
        1.68085         145.355         12.1934 
        1.69652         144.441         11.9122 
        1.71228         142.361         11.6382 
        1.72806         140.773         11.3725 
        1.74368         138.564         11.1177 
        1.75933          137.33         10.8701 
        1.77505         135.529         10.6289 
        1.79081         133.458         10.3944 
         1.8065         132.094          10.168 
        1.82218         129.141         9.94851 
        1.83797         128.225          9.7339 
        1.85367         126.595         9.52675 
        1.86928         125.002         9.32681 
        1.88497         124.699         9.13147 
        1.90073         122.809         8.94096 
        1.91647         120.879           8.756 
        1.93218         118.923         8.57662 
        1.94787         117.191         8.40248 
        1.96363         116.573         8.23244 
        1.97935         115.474         8.06742 
        1.99499         113.673          7.9078 
        2.01064         112.146         7.75224 
         2.0264         110.962         7.59984 
        2.04216         108.779         7.45158 
        2.05781         107.839         7.30817 
        2.07353         106.656         7.16799 
        2.08928         104.867         7.03114 
        2.10499         104.644         6.89821 
        2.12065         102.991         6.76907 
        2.13633          101.75          6.6431 
        2.15211         100.191         6.51949 
        2.16785         99.1494         6.39934 
        2.18349         97.8157         6.28294 
        2.19916         97.5904         6.16917 
        2.21489         95.4064         6.05781 
        2.23063         94.1162         5.94909 
         2.2463          93.336         5.84351 
        2.26194         92.2666         5.74073 
        2.27765         91.4239         5.63987 
        2.29341         90.0007         5.54115 
        2.30914         89.0452         5.44497 
        2.32486          88.353         5.35111 
        2.34061         86.8487         5.25928 
        2.35635         86.1742         5.16966 
        2.37203         84.8513         5.08243 
        2.38768         83.7168         4.99737 
        2.40339         82.8879         4.91393 
        2.41914         81.9194         4.83218 
        2.43483         81.0682         4.75256 
         2.4505         80.0986         4.67485 
        2.46622         79.2476         4.59859 
        2.48195         78.2892         4.52402 
        2.49759         77.2058         4.45147 
        2.51328         76.7035         4.38032 
        2.52906         75.7612         4.31026 
        2.54479         74.7722         4.24197 
        2.56049         73.7303         4.17528 
        2.57618         73.0542         4.11007 
        2.59189         71.9665         4.04614 
        2.60758         70.9136         3.98365 
        2.62325         70.2511         3.92255 
        2.63898         69.8531          3.8625 
        2.65468         68.9683         3.80382 
        2.67044            68.2          3.7461 
        2.68618         67.2048          3.6897 
        2.70184         66.6902         3.63468 
        2.71755          65.914         3.58062 
        2.73329          65.101         3.52758 
        2.74897         64.6064         3.47576 
        2.76462         63.7799          3.4251 
        2.78034          62.919         3.37522 
        2.79607         62.4318         3.32628 
        2.81179         61.6974         3.27835 
        2.82749         61.2739         3.23141 
        2.84321         60.1826         3.18533 
        2.85893         59.7443         3.14015 
        2.87462         59.2853         3.09591 
        2.89033         58.1588         3.05248 
        2.90605         57.7682         3.00984 
        2.92176         57.2203         2.96802 
        2.93747         56.6684         2.92701 
        2.95318          56.136         2.88676 
        2.96891         55.5012         2.84724 
        2.98456         54.8139         2.80863 
        3.00023         54.3216         2.77067 
        3.01596         53.8573         2.73328 
        3.03164         53.1879         2.69669 
        3.04738         52.7308         2.66065 
         3.0631         51.9989         2.62528 
        3.07883         51.4607         2.59054 
        3.09456         50.8702         2.55643 
        3.11026         50.6798         2.52298 
        3.12596         49.8649         2.49012 
        3.14163         49.4936         2.45792 
        3.15734         48.7808         2.42621 
        3.17308         48.2716         2.39497 
        3.18879         47.7524         2.36437 
        3.20447         47.4513         2.33434 
         3.2202         46.9138         2.30473 
         3.2359         46.3446         2.27568 
        3.25157         46.1271          2.2472 
        3.26729         45.6472         2.21911 
        3.28304         45.0838         2.19145 
        3.29877         44.6636         2.16428 
        3.31446         44.0457         2.13763 
        3.33014          43.694         2.11145 
        3.34585         43.1795         2.08566 
        3.36158         42.9564         2.06026 
        3.37727         42.4147         2.03536 
        3.39294         41.9463         2.01089 
        3.40867         41.5234         1.98673 
        3.42439         41.1778         1.96297 
        3.44008         40.9025         1.93965 
        3.45578          40.288         1.91668 
        3.47153         39.9401         1.89403 
        3.48724         39.5388         1.87178 
        3.50292         39.2699         1.84994 
        3.51859         38.8504         1.82845 
        3.53431         38.3157         1.80724 
        3.55007         38.0603          1.7863 
        3.56577         37.7547         1.76578 
        3.58146         37.3351         1.74558 
        3.59719         37.0095         1.72565 
        3.61292         36.6291         1.70604 
        3.62859         36.3159          1.6868 
        3.64429          35.971         1.66781 
        3.66003           35.56         1.64906 
        3.67578         35.3068          1.6306 
        3.69146         34.9101         1.61249 
        3.70712         34.6465         1.59468 
        3.72284          34.406         1.57708 
        3.73853         33.9765         1.55977 
        3.75422         33.5892          1.5427 
        3.76993         33.4063         1.52588 
        3.78564         33.0394         1.50931 
        3.80137          32.784         1.49296 
        3.81707         32.3932         1.47688 
        3.83279         32.0947         1.46102 
        3.84853         31.8115         1.44537 
        3.86424          31.549         1.42998 
        3.87992         31.2454         1.41483 
        3.89561         30.9277         1.39989 
        3.91134          30.781         1.38514 
        3.92704         30.4485         1.37062 
        3.94273         30.2377         1.35632 
        3.95845          29.898         1.34219 
        3.97418         29.6543         1.32826 
        3.98988         29.3447         1.31454 
        4.00554         29.0543         1.30105 
        4.02125         28.8384         1.28771 
        4.03698         28.5569         1.27454 
        4.05268         28.2781         1.26158 
        4.06839         28.0436         1.24878 
         4.0841         27.7509         1.23617 
        4.09983         27.5626         1.22371 
        4.11555         27.2958         1.21142 
        4.13124         27.0097         1.19934 
        4.14693         26.8024         1.18741 
        4.16266         26.6114         1.17561 
        4.17839         26.3332         1.16398 
        4.19408            26.1         1.15253 
        4.20977         25.9229         1.14122 
        4.22551         25.6201         1.13004 
        4.24123         25.4036         1.11902 
        4.25691         25.2403         1.10818 
        4.27259         25.0189         1.09747 
        4.28831         24.8335         1.08688 
        4.30404         24.5326         1.07642 
        4.31974         24.3733         1.06612 
        4.33543         24.1808         1.05596 
        4.35116         24.0276         1.04591 
        4.36688         23.7047         1.03598 
        4.38255         23.5248         1.02623 
        4.39825         23.3403         1.01657 
        4.41398         23.2471         1.00702 
         4.4297         23.0236        0.997603 
        4.44541         22.8067        0.988305 
        4.46111         22.5351        0.979132 
        4.47683         22.4633        0.970066 
        4.49251         22.2348        0.961133 
        4.50819         22.0524        0.952314 
         4.5239         21.8267        0.943591 
        4.53962         21.6773        0.934965 
        4.55535         21.5417        0.926442 
        4.57106         21.3311        0.918037 
        4.58678         21.1085        0.909732 
         4.6025         20.9806        0.901528 
        4.61821         20.8037        0.893425 
        4.63391         20.6567        0.885431 
         4.6496         20.4757        0.877536 
        4.66532         20.3026        0.869725 
        4.68103         20.1046        0.862012 
        4.69673         20.0125        0.854398 
        4.71241         19.8213        0.846883 
        4.72811         19.6725        0.839445 
        4.74384          19.545        0.832085 
        4.75955         19.3071        0.824825 
        4.77525         19.1908        0.817654 
        4.79096         19.0385        0.810558 
        4.80669         18.8809        0.803543 
         4.8224         18.7455        0.796617 
        4.83809         18.5927         0.78978 
        4.85379         18.4489        0.783018 
         4.8695         18.2898        0.776328 
        4.88521         18.1684        0.769719 
        4.90093         17.9887        0.763185 
        4.91663         17.8754        0.756732 
        4.93234          17.712        0.750346 
        4.94807         17.5992        0.744028 
        4.96377         17.4114        0.737794 
        4.97943         17.2914        0.731644 
        4.99514         17.2206        0.725548 
        5.01086         17.0596        0.719515 
        5.02654         16.9143        0.713566 
        5.04227         16.7558        0.707666 
          5.058         16.6588        0.701829 
        5.07371         16.4928        0.696069 
        5.08942         16.4041        0.690371 
        5.10513         16.2824        0.684737 
        5.12084         16.1506        0.679161 
        5.13656         16.0399        0.673649 
        5.15225         15.9105        0.668206 
        5.16796         15.8131        0.662814 
        5.18369         15.6739        0.657475 
         5.1994         15.5302        0.652205 
        5.21509         15.4445        0.646997 
        5.23079          15.353        0.641838 
        5.24649         15.1967         0.63674 
        5.26217          15.078        0.631699 
        5.27788         14.9531        0.626706 
        5.29359         14.8757        0.621765 
        5.30933         14.7457        0.616869 
        5.32504         14.6207        0.612034 
        5.34073         14.5162        0.607256 
        5.35646         14.4051        0.602518 
        5.37218          14.297         0.59783 
        5.38789         14.2203        0.593198 
        5.40357         14.1316         0.58862 
        5.41929         14.0191         0.58408 
        5.43502         13.8687        0.579587 
         5.4507         13.8153        0.575151 
        5.46639          13.712         0.57076 
        5.48212         13.5903        0.566405 
        5.49786          13.503        0.562089 
        5.51353         13.4104        0.557839 
        5.52921         13.3497        0.553629 
        5.54495         13.2473        0.549449 
        5.56066         13.0983        0.545316 
        5.57637         13.0461        0.541226 
        5.59207         12.9298        0.537181 
        5.60778         12.8229        0.533175 
        5.62346         12.7468        0.529216 
        5.63916         12.6664        0.525292 
        5.65487         12.5846        0.521406 
         5.6706         12.4735        0.517554 
        5.68633         12.4058        0.513739 
        5.70203         12.3388         0.50997 
        5.71773         12.2297        0.506239 
        5.73344         12.1305        0.502543 
        5.74916         12.0486         0.49888 
        5.76486         11.9429        0.495258 
        5.78054         11.8555        0.491677 
        5.79626         11.8002        0.488122 
          5.812         11.7133        0.484597 
         5.8277         11.6419        0.481118 
        5.84339         11.5698        0.477672 
        5.85911         11.4798        0.474253 
        5.87484         11.3618        0.470867 
        5.89053         11.2986        0.467521 
        5.90623         11.2197        0.464206 
        5.92195           11.17        0.460916 
        5.93767         11.0967         0.45766 
        5.95336          11.004        0.454441 
        5.96905         10.9158        0.451253 
        5.98476         10.8395        0.448091 
        6.00048         10.7381        0.444958 
        6.01617         10.7111        0.441859 
        6.03185          10.615        0.438793 
        6.04756         10.5437        0.435748 
        6.06331         10.4695        0.432725 
        6.07903         10.4143        0.429737 
        6.09473         10.3396         0.42678 
        6.11044         10.2696        0.423848 
        6.12616         10.2231        0.420943 
        6.14186         10.1332        0.418068 
        6.15755         10.0679         0.41522 
        6.17326          9.9845        0.412396 
        6.18898         9.92674        0.409596 
        6.20467         9.87277        0.406828 
        6.22036         9.79392        0.404084 
         6.2361         9.73782        0.401359 
         6.2518         9.67363        0.398662 
        6.26748         9.61382        0.395997 
        6.28319         9.52952        0.393348 
        6.29893         9.48009         0.39072 
        6.31463         9.40627        0.388121 
        6.33033         9.35173        0.385546 
        6.34604         9.27136        0.382992 
        6.36177         9.20413        0.380459 
        6.37747         9.16384        0.377953 
