# k  (h/Mpc)    Pcb(k)  (Mpc/h)^3    Pcb_linear(k) (Mpc/h)^3   ShotnoiseSubtracted = true
      0.0200456         25998.6         26522.5 
      0.0350414         16327.8         17044.1 
      0.0492313         11474.9         11633.8 
      0.0637834         9737.61         9419.78 
      0.0800726         7394.41          7134.6 
       0.096163          4907.3         4921.63 
       0.111083         3926.79          3885.4 
       0.126058         3584.47         3434.62 
       0.142273         3056.58         2807.98 
       0.158546         2623.92         2148.82 
        0.17375         2086.94         1815.94 
       0.188953         2034.25         1642.65 
       0.204907         1886.67          1416.1 
       0.220756          1617.7         1172.19 
        0.23588         1448.66         1021.79 
         0.2514         1252.87         928.511 
       0.267535         1238.24         825.569 
       0.283568         1117.21         716.371 
       0.299022         1056.48         637.516 
       0.314451         1000.71         582.564 
       0.330372          914.88         528.595 
       0.346141         867.826         474.124 
       0.361624         833.752          429.42 
       0.377134          774.77         394.581 
       0.392932         735.349          362.66 
       0.408854         723.867         331.463 
       0.424564         663.355         304.152 
       0.440253         653.438         281.281 
       0.455999          623.97         260.854 
       0.471626         603.781         241.809 
        0.48727          574.55         224.423 
       0.502856         557.476         209.185 
       0.518488         550.694         195.451 
       0.534347         515.307         182.586 
       0.550082         499.702         170.819 
       0.565732         497.455         160.239 
       0.581496         466.277         150.541 
       0.597222         457.138          141.63 
       0.612804         447.789         133.449 
       0.628434         434.454         125.904 
       0.644267         422.771         118.877 
       0.660051         410.131         112.402 
       0.675724         404.564          106.44 
       0.691403          389.91         100.901 
       0.707174         376.722         95.7219 
       0.722871         371.107         90.9231 
        0.73838         365.656         86.5012 
       0.754018         356.188         82.3372 
       0.769845         349.877         78.3996 
        0.78569         343.356         74.7135 
       0.801365         334.368         71.2986 
       0.817031         324.325          68.098 
       0.832809          321.71         65.0721 
       0.848511         313.981         62.2423 
       0.864097          305.47          59.599 
       0.879701         300.449         57.1055 
       0.895507         296.961         54.7243 
       0.911279         288.855         52.4828 
        0.92691         285.124         50.3845 
       0.942635         277.443         48.3885 
       0.958396         272.218         46.4956 
       0.974128         267.313         44.7066 
       0.989692         264.746         43.0286 
        1.00528         258.254         41.4337 
        1.02113         254.754         39.8941 
        1.03692         249.781         38.4379 
        1.05264          247.04         37.0604 
        1.06832         240.551         35.7522 
        1.08405         237.038         34.5032 
        1.09979         232.304         33.3126 
        1.11537         229.513         32.1896 
        1.13105         224.676         31.1113 
        1.14679         218.586         30.0779 
        1.16256          216.84         29.0891 
        1.17828         215.588         28.1477 
        1.19395         209.932         27.2507 
         1.2097         207.162          26.388 
        1.22537         203.922         25.5666 
          1.241         201.996         24.7823 
        1.25666         199.668         24.0287 
        1.27241         195.332         23.3027 
        1.28819         193.062         22.6052 
        1.30392         188.879         21.9381 
        1.31957         188.645         21.3007 
        1.33529          184.97          20.686 
        1.35108         180.664          20.093 
        1.36674         178.613         19.5273 
         1.3824         177.837         18.9837 
        1.39811         174.485         18.4588 
        1.41389         171.966         17.9516 
        1.42964          170.32         17.4641 
        1.44531         168.163          16.997 
        1.46101         164.573         16.5459 
        1.47667         162.352         16.1123 
        1.49229         161.954         15.6953 
        1.50793         157.591         15.2924 
        1.52367         156.594          14.901 
        1.53953          154.54         14.5205 
        1.55526         151.674         14.1563 
        1.57092         149.807         13.8059 
        1.58662         148.443         13.4665 
        1.60235         146.054         13.1377 
        1.61809          144.83         12.8196 
        1.63369          142.44         12.5148 
        1.64941         139.228         12.2177 
        1.66519         138.241          11.929 
        1.68085         136.303         11.6516 
        1.69652         135.374         11.3829 
        1.71228         132.592         11.1211 
        1.72806         130.406         10.8672 
        1.74368         129.841         10.6237 
        1.75933         127.615         10.3872 
        1.77505          126.54         10.1566 
        1.79081         125.024         9.93262 
         1.8065         122.892         9.71627 
        1.82218         122.095         9.50649 
        1.83797         120.222         9.30142 
        1.85367         118.634         9.10347 
        1.86928         116.994         8.91242 
        1.88497         115.948         8.72576 
        1.90073         114.158         8.54371 
        1.91647         112.603         8.36697 
        1.93218           111.5         8.19556 
        1.94787          109.49         8.02916 
        1.96363         108.245         7.86667 
        1.97935         107.238         7.70898 
        1.99499           105.8         7.55646 
        2.01064         104.286          7.4078 
         2.0264          103.38         7.26218 
        2.04216         102.111          7.1205 
        2.05781          100.78         6.98347 
        2.07353         100.234         6.84951 
        2.08928         97.9283         6.71875 
        2.10499          96.749         6.59172 
        2.12065         95.7697         6.46832 
        2.13633         94.5943         6.34794 
        2.15211         93.5581         6.22983 
        2.16785         92.0567         6.11502 
        2.18349         90.9573         6.00379 
        2.19916         90.1864         5.89507 
        2.21489          89.132         5.78866 
        2.23063         87.7603         5.68477 
         2.2463         87.1439         5.58388 
        2.26194         85.6305         5.48567 
        2.27765         84.3865         5.38929 
        2.29341          83.958         5.29495 
        2.30914         82.5342         5.20305 
        2.32486         81.9405         5.11336 
        2.34061          80.992         5.02561 
        2.35635         79.8209         4.93998 
        2.37203           78.84         4.85662 
        2.38768         77.8674         4.77533 
        2.40339          77.098          4.6956 
        2.41914           76.17         4.61748 
        2.43483         75.2991          4.5414 
         2.4505         74.1827         4.46714 
        2.46622         73.5903         4.39428 
        2.48195         72.4907         4.32301 
        2.49759         71.5965          4.2537 
        2.51328          71.137          4.1857 
        2.52906         70.1932         4.11875 
        2.54479         69.1743          4.0535 
        2.56049         68.4351         3.98977 
        2.57618         67.8759         3.92746 
        2.59189         66.8425         3.86637 
        2.60758         66.0998         3.80666 
        2.62325         65.4434         3.74827 
        2.63898         64.5441         3.69089 
        2.65468         63.8965         3.63482 
        2.67044         63.2652         3.57967 
        2.68618         62.7169         3.52577 
        2.70184         62.1421         3.47319 
        2.71755         61.3537         3.42154 
        2.73329         60.5019         3.37084 
        2.74897         60.1325         3.32134 
        2.76462         59.1385         3.27292 
        2.78034         58.6425         3.22526 
        2.79607         57.8494         3.17849 
        2.81179         57.3946         3.13269 
        2.82749         56.7949         3.08784 
        2.84321         56.2039          3.0438 
        2.85893         55.5377         3.00063 
        2.87462         54.9818         2.95836 
        2.89033         54.4555         2.91686 
        2.90605         53.6455         2.87611 
        2.92176           53.15         2.83615 
        2.93747         52.6727         2.79696 
        2.95318         52.1068          2.7585 
        2.96891         51.5696         2.72074 
        2.98456         50.9424         2.68384 
        3.00023         50.2443         2.64757 
        3.01596          49.732         2.61184 
        3.03164         49.2475         2.57688 
        3.04738         48.8124         2.54244 
         3.0631         48.2174         2.50864 
        3.07883         47.9075         2.47544 
        3.09456         47.3027         2.44284 
        3.11026         46.7412         2.41088 
        3.12596         46.1181         2.37948 
        3.14163         45.9233         2.34871 
        3.15734         45.3632         2.31841 
        3.17308         44.8268         2.28856 
        3.18879         44.4408         2.25932 
        3.20447         43.8916         2.23062 
         3.2202         43.5991         2.20233 
         3.2359         43.1166         2.17457 
        3.25157         42.5394         2.14736 
        3.26729         42.1491         2.12052 
        3.28304         41.8447         2.09408 
        3.29877         41.3907         2.06812 
        3.31446         40.7182         2.04266 
        3.33014         40.5483         2.01764 
        3.34585         40.0068           1.993 
        3.36158         39.7704         1.96873 
        3.37727         39.3869         1.94493 
        3.39294         39.0708         1.92155 
        3.40867         38.5544         1.89846 
        3.42439         38.1656         1.87576 
        3.44008         37.8032         1.85347 
        3.45578          37.444         1.83152 
        3.47153         36.9975         1.80988 
        3.48724          36.703         1.78862 
        3.50292         36.4085         1.76775 
        3.51859         36.0362         1.74722 
        3.53431         35.6091         1.72694 
        3.55007         35.1732         1.70694 
        3.56577         34.9658         1.68733 
        3.58146         34.6435         1.66803 
        3.59719         34.2657         1.64898 
        3.61292          34.005         1.63024 
        3.62859         33.6847         1.61185 
        3.64429           33.36         1.59371 
        3.66003         33.0211         1.57579 
        3.67578         32.7984         1.55815 
        3.69146         32.4519         1.54085 
        3.70712         32.1124         1.52383 
        3.72284         31.8028         1.50701 
        3.73853         31.4898         1.49047 
        3.75422         31.2325         1.47416 
        3.76993         31.0182         1.45809 
        3.78564         30.6639         1.44225 
        3.80137         30.3434         1.42663 
        3.81707         30.0962         1.41126 
        3.83279         29.7784         1.39611 
        3.84853         29.5394         1.38115 
        3.86424         29.3915         1.36644 
        3.87992         28.9873         1.35197 
        3.89561          28.818          1.3377 
        3.91134          28.534          1.3236 
        3.92704         28.2781         1.30972 
        3.94273          27.925         1.29605 
        3.95845         27.7856         1.28255 
        3.97418         27.4593         1.26924 
        3.98988         27.2397         1.25613 
        4.00554         27.0016         1.24325 
        4.02125         26.6928          1.2305 
        4.03698         26.5783         1.21791 
        4.05268          26.295         1.20552 
        4.06839         26.1134          1.1933 
         4.0841         25.8813         1.18124 
        4.09983         25.5879         1.16934 
        4.11555         25.3155          1.1576 
        4.13124         25.0882         1.14605 
        4.14693         24.9736         1.13465 
        4.16266         24.6452         1.12338 
        4.17839         24.4587         1.11226 
        4.19408          24.261         1.10132 
        4.20977         24.0109         1.09052 
        4.22551         23.8338         1.07983 
        4.24123         23.5901          1.0693 
        4.25691         23.4086         1.05894 
        4.27259         23.2018         1.04871 
        4.28831         23.0412         1.03859 
        4.30404         22.8574          1.0286 
        4.31974         22.6326         1.01875 
        4.33543         22.4359         1.00904 
        4.35116         22.2392        0.999436 
        4.36688         22.0738        0.989955 
        4.38255         21.8543        0.980632 
        4.39825         21.7411        0.971406 
        4.41398           21.49         0.96228 
         4.4297         21.3091         0.95328 
        4.44541         21.1357        0.944395 
        4.46111         20.9516        0.935629 
        4.47683         20.8064        0.926966 
        4.49251         20.5739         0.91843 
        4.50819         20.4003        0.910002 
         4.5239         20.3272        0.901667 
        4.53962         20.1091        0.893425 
        4.55535         19.9776         0.88528 
        4.57106           19.81        0.877248 
        4.58678         19.6734        0.869313 
         4.6025         19.4961        0.861473 
        4.61821         19.2945         0.85373 
        4.63391         19.1384        0.846091 
         4.6496         19.0197        0.838547 
        4.66532         18.8442        0.831083 
        4.68103         18.6625        0.823712 
        4.69673         18.5276        0.816437 
        4.71241         18.3548        0.809256 
        4.72811         18.2229        0.802148 
        4.74384         18.0495        0.795116 
        4.75955         17.9744        0.788178 
        4.77525         17.7791        0.781325 
        4.79096         17.6923        0.774545 
        4.80669         17.4727        0.767841 
         4.8224         17.3658        0.761223 
        4.83809         17.2131         0.75469 
        4.85379         17.1135        0.748228 
         4.8695         16.9732        0.741836 
        4.88521          16.798         0.73552 
        4.90093         16.6594        0.729277 
        4.91663         16.5618         0.72311 
        4.93234          16.417        0.717008 
        4.94807         16.3155        0.710971 
        4.96377         16.1636        0.705014 
        4.97943          16.007        0.699137 
        4.99514         15.9343        0.693312 
        5.01086         15.7942        0.687547 
        5.02654         15.6517        0.681862 
        5.04227         15.5698        0.676224 
          5.058         15.4394        0.670647 
        5.07371         15.2998        0.665142 
        5.08942         15.1812        0.659698 
        5.10513         15.0676        0.654314 
        5.12084         14.9494        0.648986 
        5.13656         14.8133        0.643719 
        5.15225         14.7431        0.638517 
        5.16796         14.6025        0.633365 
        5.18369         14.5095        0.628264 
         5.1994         14.3921        0.623228 
        5.21509         14.3499         0.61825 
        5.23079         14.2047        0.613321 
        5.24649         14.0706        0.608449 
        5.26217         13.9668        0.603633 
        5.27788          13.873        0.598861 
        5.29359         13.7742         0.59414 
        5.30933         13.6528        0.589462 
        5.32504         13.5677        0.584841 
        5.34073          13.473        0.580275 
        5.35646         13.3507        0.575748 
        5.37218         13.2455        0.571268 
        5.38789         13.1642        0.566842 
        5.40357         13.0457        0.562468 
        5.41929         12.9644        0.558129 
        5.43502         12.8398        0.553836 
         5.4507         12.7843        0.549597 
        5.46639         12.6946        0.545401 
        5.48212          12.589        0.541239 
        5.49786         12.4746        0.537115 
        5.51353         12.4032        0.533055 
        5.52921         12.2807        0.529031 
        5.54495         12.2157        0.525037 
        5.56066          12.124        0.521088 
        5.57637         12.0464        0.517179 
        5.59207         11.9728        0.513314 
        5.60778         11.8604        0.509486 
        5.62346         11.7766        0.505703 
        5.63916         11.6923        0.501953 
        5.65487         11.6213         0.49824 
         5.6706          11.512        0.494559 
        5.68633          11.466        0.490913 
        5.70203         11.3658        0.487312 
        5.71773         11.3016        0.483747 
        5.73344         11.2235        0.480215 
        5.74916         11.1436        0.476715 
        5.76486         11.0676        0.473254 
        5.78054         10.9663        0.469832 
        5.79626         10.8832        0.466434 
          5.812         10.8125        0.463067 
         5.8277         10.7453        0.459741 
        5.84339         10.6573        0.456449 
        5.85911         10.5875        0.453181 
        5.87484           10.52        0.449946 
        5.89053         10.4646        0.446749 
        5.90623         10.3741        0.443581 
        5.92195         10.3158        0.440438 
        5.93767         10.2335        0.437326 
        5.95336         10.1527         0.43425 
        5.96905         10.0989        0.431204 
        5.98476         10.0261        0.428182 
        6.00048         9.97275        0.425189 
        6.01617         9.86885        0.422227 
        6.03185         9.81283        0.419297 
        6.04756         9.75168        0.416388 
        6.06331         9.70284        0.413499 
        6.07903          9.6166        0.410644 
        6.09473         9.55228        0.407818 
        6.11044         9.46865        0.405016 
        6.12616         9.43213         0.40224 
        6.14186         9.35663        0.399493 
        6.15755         9.29894        0.396772 
        6.17326         9.23093        0.394073 
        6.18898         9.18868        0.391398 
        6.20467         9.11725        0.388752 
        6.22036         9.04709        0.386131 
         6.2361         8.99581        0.383526 
         6.2518          8.9331         0.38095 
        6.26748         8.85055        0.378402 
        6.28319         8.80915        0.375871 
        6.29893         8.74869         0.37336 
        6.31463         8.68655        0.370877 
        6.33033         8.63616        0.368416 
        6.34604          8.5696        0.365976 
        6.36177         8.52518        0.363555 
        6.37747         8.46179        0.361161 
