# k  (h/Mpc)    Pcb(k)  (Mpc/h)^3    Pcb_linear(k) (Mpc/h)^3   ShotnoiseSubtracted = true
      0.0200456         3527.06         3565.53 
      0.0350414         2345.08          2291.3 
      0.0492313         1568.61         1563.98 
      0.0637834         1245.39         1266.34 
      0.0800726         941.587         959.133 
       0.096163         682.265         661.635 
       0.111083         542.003         522.329 
       0.126058         460.117         461.729 
       0.142273         377.976         377.488 
       0.158546          297.39         288.874 
        0.17375         254.845         244.124 
       0.188953         229.838         220.828 
       0.204907         191.853         190.372 
       0.220756         165.987         157.583 
        0.23588          145.15         137.363 
         0.2514         130.628         124.823 
       0.267535         119.853         110.985 
       0.283568         103.581         96.3047 
       0.299022         94.8376         85.7038 
       0.314451         89.4345         78.3164 
       0.330372         78.7906         71.0612 
       0.346141         71.4449         63.7385 
       0.361624         65.5129         57.7286 
       0.377134         59.7119         53.0451 
       0.392932         57.2656         48.7539 
       0.408854         52.3426         44.5598 
       0.424564          49.554         40.8884 
       0.440253         45.0168         37.8138 
       0.455999         40.8807         35.0676 
       0.471626         38.7365         32.5073 
        0.48727         37.3251         30.1701 
       0.502856         34.6218         28.1216 
       0.518488         32.4185         26.2753 
       0.534347          30.377         24.5458 
       0.550082         29.1165         22.9639 
       0.565732         27.8797         21.5416 
       0.581496          25.933         20.2379 
       0.597222         24.5764         19.0399 
       0.612804          23.273         17.9401 
       0.628434         22.7884         16.9257 
       0.644267         21.4557         15.9812 
       0.660051         20.3348         15.1106 
       0.675724         19.3475         14.3091 
       0.691403         18.8717         13.5645 
       0.707174         17.9905         12.8683 
       0.722871         17.3746         12.2232 
        0.73838         16.4328         11.6287 
       0.754018         15.4653         11.0689 
       0.769845          15.105         10.5396 
        0.78569         14.5866          10.044 
       0.801365         13.9879         9.58496 
       0.817031          13.383         9.15469 
       0.832809         12.9719         8.74791 
       0.848511         12.5106         8.36749 
       0.864097         12.0772         8.01213 
       0.879701         11.8388         7.67692 
       0.895507         11.3481         7.35681 
       0.911279         10.8568         7.05548 
        0.92691         10.6168         6.77339 
       0.942635         10.3036         6.50506 
       0.958396         9.94597         6.25059 
       0.974128            9.67         6.01009 
       0.989692         9.18194         5.78451 
        1.00528         9.09771          5.5701 
        1.02113         8.76809         5.36313 
        1.03692         8.55963         5.16736 
        1.05264         8.33626         4.98219 
        1.06832         8.13601         4.80631 
        1.08405         7.88747          4.6384 
        1.09979         7.67261         4.47835 
        1.11537         7.43961         4.32738 
        1.13105         7.30493         4.18242 
        1.14679         7.11685          4.0435 
        1.16256         6.94917         3.91057 
        1.17828         6.77971           3.784 
        1.19395         6.62827         3.66342 
         1.2097         6.41132         3.54745 
        1.22537         6.28361         3.43702 
          1.241         6.09388         3.33158 
        1.25666         6.04192         3.23028 
        1.27241         5.91213         3.13268 
        1.28819          5.6552         3.03891 
        1.30392         5.62942         2.94923 
        1.31957         5.45132         2.86353 
        1.33529         5.37197          2.7809 
        1.35108            5.25         2.70118 
        1.36674         5.10887         2.62513 
         1.3824         5.02572         2.55205 
        1.39811         4.93365         2.48149 
        1.41389         4.81506          2.4133 
        1.42964         4.72406         2.34778 
        1.44531         4.62681         2.28498 
        1.46101          4.5793         2.22433 
        1.47667         4.46802         2.16604 
        1.49229         4.32576         2.10998 
        1.50793         4.27733         2.05582 
        1.52367          4.1886          2.0032 
        1.53953         4.11813         1.95205 
        1.55526         4.05194         1.90308 
        1.57092         3.97436         1.85598 
        1.58662         3.89612         1.81035 
        1.60235         3.85023         1.76615 
        1.61809         3.77752         1.72339 
        1.63369         3.69918         1.68242 
        1.64941         3.62035         1.64247 
        1.66519         3.58486         1.60366 
        1.68085         3.50922         1.56637 
        1.69652         3.46276         1.53025 
        1.71228         3.42703         1.49505 
        1.72806         3.35681         1.46092 
        1.74368          3.3044         1.42819 
        1.75933         3.24547         1.39639 
        1.77505         3.18096          1.3654 
        1.79081         3.14081         1.33528 
         1.8065         3.11056          1.3062 
        1.82218         3.05919           1.278 
        1.83797         2.98962         1.25043 
        1.85367         2.95296         1.22382 
        1.86928         2.91343         1.19813 
        1.88497         2.86542         1.17304 
        1.90073         2.82518         1.14857 
        1.91647         2.76709         1.12481 
        1.93218         2.73857         1.10176 
        1.94787         2.70432         1.07939 
        1.96363         2.66991         1.05755 
        1.97935          2.6355         1.03635 
        1.99499          2.5993         1.01585 
        2.01064         2.55986        0.995861 
         2.0264         2.53112        0.976284 
        2.04216         2.48855        0.957238 
        2.05781         2.45872        0.938816 
        2.07353          2.4305        0.920808 
        2.08928         2.39135        0.903229 
        2.10499          2.3544        0.886151 
        2.12065          2.3483        0.869562 
        2.13633         2.31435        0.853379 
        2.15211         2.26854        0.837501 
        2.16785         2.24174        0.822066 
        2.18349         2.22388        0.807114 
        2.19916         2.19297        0.792498 
        2.21489          2.1731        0.778193 
        2.23063         2.13742        0.764227 
         2.2463         2.10753        0.750664 
        2.26194         2.07923         0.73746 
        2.27765         2.04378        0.724504 
        2.29341         2.02397        0.711822 
        2.30914         2.00438        0.699467 
        2.32486         1.98634        0.687409 
        2.34061         1.96616        0.675613 
        2.35635          1.9399        0.664101 
        2.37203         1.93047        0.652894 
        2.38768         1.90731        0.641967 
        2.40339          1.8683        0.631248 
        2.41914         1.85622        0.620747 
        2.43483         1.83191        0.610519 
         2.4505         1.80831        0.600536 
        2.46622         1.79326         0.59074 
        2.48195         1.78025         0.58116 
        2.49759         1.75183        0.571841 
        2.51328         1.74013        0.562701 
        2.52906         1.71662          0.5537 
        2.54479         1.70048        0.544928 
        2.56049         1.68271        0.536361 
        2.57618         1.66431        0.527984 
        2.59189         1.65635        0.519771 
        2.60758         1.63859        0.511744 
        2.62325         1.60628        0.503895 
        2.63898         1.59554        0.496181 
        2.65468         1.57629        0.488644 
        2.67044          1.5705        0.481229 
        2.68618         1.55503        0.473983 
        2.70184         1.53811        0.466914 
        2.71755         1.51735        0.459971 
        2.73329         1.50468        0.453156 
        2.74897         1.49048          0.4465 
        2.76462         1.47693        0.439992 
        2.78034          1.4637        0.433585 
        2.79607         1.44785        0.427297 
        2.81179         1.43594         0.42114 
        2.82749         1.41828         0.41511 
        2.84321         1.40784        0.409191 
        2.85893         1.38967        0.403387 
        2.87462         1.38386        0.397704 
        2.89033         1.37371        0.392125 
        2.90605         1.35882        0.386647 
        2.92176         1.34291        0.381275 
        2.93747         1.33521        0.376007 
        2.95318          1.3234        0.370837 
        2.96891         1.31202         0.36576 
        2.98456         1.29971          0.3608 
        3.00023         1.29112        0.355923 
        3.01596         1.27485        0.351121 
        3.03164         1.26583         0.34642 
        3.04738         1.25827         0.34179 
         3.0631         1.24661        0.337246 
        3.07883         1.23678        0.332783 
        3.09456         1.22308        0.328401 
        3.11026         1.21364        0.324104 
        3.12596         1.20341        0.319884 
        3.14163         1.19597        0.315747 
        3.15734         1.18353        0.311673 
        3.17308         1.17536        0.307661 
        3.18879         1.16908        0.303729 
        3.20447         1.15844        0.299871 
         3.2202         1.14721        0.296068 
         3.2359         1.14293        0.292337 
        3.25157         1.12927        0.288678 
        3.26729         1.12028         0.28507 
        3.28304         1.11232        0.281515 
        3.29877         1.10193        0.278026 
        3.31446         1.09274        0.274603 
        3.33014         1.09033        0.271239 
        3.34585         1.07834        0.267927 
        3.36158         1.06859        0.264664 
        3.37727         1.06578        0.261465 
        3.39294         1.05671        0.258321 
        3.40867         1.04988        0.255217 
        3.42439         1.04002        0.252166 
        3.44008         1.03022        0.249169 
        3.45578          1.0244        0.246219 
        3.47153         1.01883        0.243309 
        3.48724         1.00908        0.240451 
        3.50292         1.00205        0.237646 
        3.51859        0.995898        0.234885 
        3.53431        0.988922         0.23216 
        3.55007        0.981912        0.229471 
        3.56577        0.977487        0.226834 
        3.58146        0.969752         0.22424 
        3.59719        0.963979        0.221679 
        3.61292        0.956329        0.219159 
        3.62859        0.949744        0.216688 
        3.64429        0.946049        0.214249 
        3.66003        0.937118         0.21184 
        3.67578        0.932744        0.209469 
        3.69146        0.922629        0.207142 
        3.70712        0.921528        0.204855 
        3.72284        0.911104        0.202593 
        3.73853        0.904275        0.200369 
        3.75422        0.902332        0.198178 
        3.76993        0.894646        0.196016 
        3.78564        0.886081        0.193888 
        3.80137        0.882521        0.191787 
        3.81707        0.874984        0.189722 
        3.83279        0.874544        0.187685 
        3.84853        0.867405        0.185674 
        3.86424        0.859669        0.183697 
        3.87992        0.855997         0.18175 
        3.89561        0.850114        0.179832 
        3.91134         0.84287        0.177937 
        3.92704        0.840065        0.176071 
        3.94273        0.834288        0.174234 
        3.95845        0.827098        0.172419 
        3.97418        0.821502        0.170629 
        3.98988        0.817695        0.168867 
        4.00554        0.813109        0.167135 
        4.02125        0.805849        0.165421 
        4.03698        0.801828        0.163729 
        4.05268        0.795104        0.162063 
        4.06839        0.788181         0.16042 
         4.0841        0.783917        0.158799 
        4.09983        0.780243        0.157199 
        4.11555        0.772223        0.155621 
        4.13124        0.767808        0.154068 
        4.14693        0.761439        0.152536 
        4.16266        0.757176         0.15102 
        4.17839        0.751686        0.149526 
        4.19408        0.745508        0.148055 
        4.20977        0.742571        0.146603 
        4.22551        0.737525        0.145167 
        4.24123        0.732721        0.143751 
        4.25691        0.727391        0.142358 
        4.27259        0.722513        0.140982 
        4.28831        0.718767        0.139622 
        4.30404        0.712939        0.138279 
        4.31974        0.708998        0.136955 
        4.33543        0.705032         0.13565 
        4.35116         0.69925        0.134358 
        4.36688        0.697339        0.133084 
        4.38255        0.694066         0.13183 
        4.39825        0.688683         0.13059 
        4.41398        0.685548        0.129363 
         4.4297        0.683521        0.128153 
        4.44541        0.676226        0.126959 
        4.46111        0.674279         0.12578 
        4.47683        0.670461        0.124616 
        4.49251        0.666878        0.123468 
        4.50819        0.664981        0.122335 
         4.5239        0.660344        0.121215 
        4.53962        0.656975        0.120107 
        4.55535        0.655495        0.119012 
        4.57106         0.65021        0.117932 
        4.58678        0.649243        0.116865 
         4.6025        0.646458        0.115811 
        4.61821        0.643516         0.11477 
        4.63391        0.642088        0.113743 
         4.6496        0.636334        0.112729 
        4.66532        0.635242        0.111726 
        4.68103        0.632807        0.110735 
        4.69673        0.630641        0.109757 
        4.71241        0.627039        0.108791 
        4.72811        0.626676        0.107836 
        4.74384        0.624757        0.106891 
        4.75955        0.622065        0.105958 
        4.77525        0.618302        0.105037 
        4.79096         0.61664        0.104125 
        4.80669        0.614116        0.103224 
         4.8224        0.613224        0.102334 
        4.83809        0.612175        0.101456 
        4.85379        0.609971        0.100587 
         4.8695        0.607006        0.099728 
        4.88521        0.605025        0.098879 
        4.90093        0.605121       0.0980396 
        4.91663        0.602724       0.0972106 
        4.93234        0.601126       0.0963902 
        4.94807        0.598586       0.0955787 
        4.96377        0.597314       0.0947779 
        4.97943        0.597701       0.0939878 
        4.99514        0.596028       0.0932047 
        5.01086         0.59444       0.0924297 
        5.02654        0.591342       0.0916655 
        5.04227         0.59083       0.0909075 
          5.058        0.591551       0.0901577 
        5.07371        0.590635       0.0894178 
        5.08942        0.588036       0.0886859 
        5.10513        0.587327        0.087962 
        5.12084        0.585005       0.0872458 
        5.13656        0.585528       0.0865377 
        5.15225        0.583525       0.0858384 
        5.16796        0.583923       0.0851458 
        5.18369        0.582771         0.08446 
         5.1994        0.582295        0.083783 
        5.21509          0.5794       0.0831139 
        5.23079        0.580476       0.0824513 
        5.24649        0.580258       0.0817963 
        5.26217        0.579944       0.0811488 
        5.27788        0.578309       0.0805073 
        5.29359        0.579603       0.0798726 
        5.30933        0.578984       0.0792437 
        5.32504        0.578129       0.0786226 
        5.34073        0.578218       0.0780087 
        5.35646        0.576152       0.0774001 
        5.37218        0.576726       0.0767978 
        5.38789        0.576618       0.0762028 
        5.40357        0.576079       0.0756148 
        5.41929        0.576226       0.0750316 
        5.43502        0.575928       0.0744543 
         5.4507        0.573253       0.0738845 
        5.46639        0.575659       0.0733205 
        5.48212        0.574996        0.072761 
        5.49786        0.574911       0.0722066 
        5.51353        0.576855       0.0716607 
        5.52921        0.572894       0.0711198 
        5.54495        0.575086       0.0705828 
        5.56066        0.575637       0.0700519 
        5.57637        0.576071       0.0695265 
        5.59207        0.575148       0.0690069 
        5.60778        0.576168       0.0684923 
        5.62346        0.576948       0.0679836 
        5.63916        0.577076       0.0674796 
        5.65487        0.577186       0.0669803 
         5.6706        0.574311       0.0664855 
        5.68633        0.576912       0.0659955 
        5.70203        0.575751       0.0655113 
        5.71773        0.576098        0.065032 
        5.73344        0.577091       0.0645572 
        5.74916        0.576033       0.0640867 
        5.76486        0.577587       0.0636214 
        5.78054        0.578345       0.0631614 
        5.79626         0.57725       0.0627047 
          5.812        0.577549       0.0622519 
         5.8277        0.579407       0.0618049 
        5.84339        0.579321       0.0613622 
        5.85911        0.578092        0.060923 
        5.87484        0.579414       0.0604881 
        5.89053         0.57995       0.0600583 
        5.90623        0.579534       0.0596324 
        5.92195        0.580032       0.0592098 
        5.93767        0.582034       0.0587915 
        5.95336        0.580465        0.058378 
        5.96905        0.580962       0.0579685 
        5.98476         0.58153       0.0575623 
        6.00048         0.58263       0.0571598 
        6.01617        0.581284       0.0567617 
        6.03185        0.583136       0.0563678 
        6.04756        0.583313       0.0559767 
        6.06331        0.584218       0.0555884 
        6.07903        0.584251       0.0552045 
        6.09473        0.584448       0.0548246 
        6.11044        0.586094       0.0544479 
        6.12616         0.58504       0.0540748 
        6.14186        0.585428       0.0537055 
        6.15755        0.585598       0.0533396 
        6.17326        0.587788       0.0529768 
        6.18898          0.5882       0.0526172 
        6.20467        0.586876       0.0522615 
        6.22036        0.586585       0.0519091 
         6.2361        0.587654        0.051559 
         6.2518        0.588079       0.0512126 
        6.26748        0.588702       0.0508702 
        6.28319        0.588929       0.0505299 
        6.29893          0.5876       0.0501923 
        6.31463        0.590298       0.0498584 
        6.33033        0.589381       0.0495277 
        6.34604         0.59182       0.0491996 
        6.36177        0.590994       0.0488742 
        6.37747        0.590171       0.0485523 
