# k  (h/Mpc)    Pcb(k)  (Mpc/h)^3    Pcb_linear(k) (Mpc/h)^3   ShotnoiseSubtracted = true
      0.0200456         1172.41         1184.93 
      0.0350414         774.676          761.47 
      0.0492313         522.169         519.759 
      0.0637834          416.57         420.844 
      0.0800726         315.173          318.75 
       0.096163           224.3         219.882 
       0.111083         177.493         173.586 
       0.126058         152.609         153.447 
       0.142273         124.811         125.451 
       0.158546         97.1418         96.0019 
        0.17375         82.7705         81.1301 
       0.188953         74.2317          73.388 
       0.204907         62.5415         63.2665 
       0.220756         53.2264         52.3696 
        0.23588         46.3853         45.6501 
         0.2514         42.0081         41.4827 
       0.267535         37.7385         36.8836 
       0.283568         32.7375          32.005 
       0.299022         29.3827          28.482 
       0.314451          27.322          26.027 
       0.330372         24.4311         23.6158 
       0.346141         21.9865         21.1823 
       0.361624         19.9137          19.185 
       0.377134         18.2036         17.6285 
       0.392932          17.256         16.2024 
       0.408854         15.4897         14.8086 
       0.424564          14.595         13.5885 
       0.440253         13.2885         12.5667 
       0.455999         12.1151          11.654 
       0.471626         11.2984         10.8032 
        0.48727         10.7791         10.0265 
       0.502856         10.0762         9.34569 
       0.518488         9.23425         8.73208 
       0.534347         8.59456         8.15732 
       0.550082         8.19746         7.63162 
       0.565732         7.79947         7.15893 
       0.581496         7.28732         6.72567 
       0.597222         6.84141         6.32755 
       0.612804         6.41329         5.96204 
       0.628434         6.16484         5.62494 
       0.644267         5.82691         5.31103 
       0.660051         5.49249         5.02172 
       0.675724           5.173         4.75536 
       0.691403         4.96479         4.50792 
       0.707174         4.69968         4.27653 
       0.722871         4.56358         4.06214 
        0.73838         4.25122         3.86458 
       0.754018         4.03596         3.67855 
       0.769845         3.83231         3.50263 
        0.78569          3.7232         3.33795 
       0.801365         3.54499         3.18538 
       0.817031         3.40358         3.04239 
       0.832809         3.22507          2.9072 
       0.848511          3.1162         2.78078 
       0.864097         2.99345         2.66268 
       0.879701         2.90109         2.55128 
       0.895507         2.76025          2.4449 
       0.911279         2.65475         2.34475 
        0.92691          2.5703         2.25101 
       0.942635         2.44342         2.16183 
       0.958396         2.36613         2.07726 
       0.974128         2.28924         1.99734 
       0.989692         2.18049         1.92237 
        1.00528         2.11972         1.85112 
        1.02113         2.05065         1.78233 
        1.03692         1.99637         1.71727 
        1.05264         1.90316         1.65573 
        1.06832         1.84803         1.59729 
        1.08405         1.77931         1.54148 
        1.09979          1.7319         1.48829 
        1.11537         1.67108         1.43812 
        1.13105         1.60811         1.38995 
        1.14679          1.5648         1.34378 
        1.16256         1.51141          1.2996 
        1.17828         1.48315         1.25754 
        1.19395         1.42427         1.21747 
         1.2097         1.37842         1.17893 
        1.22537          1.3307         1.14223 
          1.241         1.29956         1.10719 
        1.25666          1.2741         1.07352 
        1.27241         1.23679         1.04109 
        1.28819         1.18437         1.00992 
        1.30392         1.15403         0.98012 
        1.31957         1.13169        0.951641 
        1.33529         1.08255        0.924181 
        1.35108         1.06158        0.897687 
        1.36674         1.03059        0.872412 
         1.3824         1.01421        0.848126 
        1.39811        0.983657        0.824676 
        1.41389         0.95373        0.802016 
        1.42964        0.928414        0.780238 
        1.44531        0.908484        0.759369 
        1.46101        0.883024        0.739213 
        1.47667        0.864111        0.719841 
        1.49229        0.834422        0.701211 
        1.50793        0.811687        0.683212 
        1.52367         0.79461        0.665725 
        1.53953        0.770893        0.648727 
        1.55526        0.763427        0.632454 
        1.57092        0.745695        0.616801 
        1.58662        0.734503        0.601635 
        1.60235        0.706938        0.586947 
        1.61809        0.691604        0.572737 
        1.63369        0.670792        0.559119 
        1.64941        0.660259        0.545843 
        1.66519        0.648378        0.532946 
        1.68085        0.629733        0.520555 
        1.69652        0.615937         0.50855 
        1.71228        0.601551        0.496852 
        1.72806        0.589694         0.48551 
        1.74368        0.575786        0.474632 
        1.75933        0.566167        0.464063 
        1.77505        0.555139        0.453763 
        1.79081        0.536566        0.443756 
         1.8065        0.531219         0.43409 
        1.82218         0.51584        0.424718 
        1.83797        0.503328        0.415556 
        1.85367        0.497064        0.406712 
        1.86928        0.485939        0.398177 
        1.88497        0.473576        0.389837 
        1.90073        0.468833        0.381704 
        1.91647        0.454517        0.373808 
        1.93218         0.44719         0.36615 
        1.94787        0.439124        0.358715 
        1.96363        0.431013        0.351456 
        1.97935        0.421615        0.344411 
        1.99499        0.414014        0.337597 
        2.01064        0.406071        0.330955 
         2.0264        0.395379        0.324449 
        2.04216        0.389922         0.31812 
        2.05781        0.382312        0.311997 
        2.07353        0.374913        0.306013 
        2.08928        0.369144        0.300171 
        2.10499        0.361821        0.294495 
        2.12065        0.354191        0.288982 
        2.13633        0.349178        0.283604 
        2.15211        0.340101        0.278327 
        2.16785        0.336575        0.273198 
        2.18349        0.329815        0.268229 
        2.19916        0.324197        0.263372 
        2.21489         0.31819        0.258617 
        2.23063        0.311423        0.253976 
         2.2463        0.306557        0.249469 
        2.26194        0.302215        0.245081 
        2.27765        0.296737        0.240775 
        2.29341        0.291418         0.23656 
        2.30914        0.284834        0.232454 
        2.32486        0.281462        0.228447 
        2.34061         0.27513        0.224527 
        2.35635        0.271154        0.220701 
        2.37203        0.267724        0.216977 
        2.38768        0.263255        0.213346 
        2.40339        0.258473        0.209783 
        2.41914        0.254669        0.206293 
        2.43483        0.250045        0.202894 
         2.4505        0.245956        0.199577 
        2.46622        0.242437        0.196321 
        2.48195        0.237816        0.193138 
        2.49759        0.235106        0.190041 
        2.51328        0.229759        0.187003 
        2.52906        0.226843        0.184012 
        2.54479         0.22274        0.181096 
        2.56049        0.219418        0.178249 
        2.57618        0.217048        0.175465 
        2.59189         0.21253        0.172736 
        2.60758        0.210366        0.170068 
        2.62325        0.206852         0.16746 
        2.63898        0.204333        0.164896 
        2.65468        0.199394        0.162391 
        2.67044        0.197155        0.159927 
        2.68618        0.194809        0.157519 
        2.70184        0.191559         0.15517 
        2.71755        0.188553        0.152863 
        2.73329        0.186315        0.150598 
        2.74897        0.182798        0.148386 
        2.76462        0.180805        0.146223 
        2.78034        0.177427        0.144094 
        2.79607        0.175477        0.142004 
        2.81179        0.172418        0.139958 
        2.82749        0.170262        0.137954 
        2.84321        0.167432        0.135987 
        2.85893        0.165652        0.134058 
        2.87462        0.162846        0.132169 
        2.89033        0.161425        0.130315 
        2.90605        0.158961        0.128495 
        2.92176        0.157172         0.12671 
        2.93747        0.154396        0.124959 
        2.95318         0.15255         0.12324 
        2.96891         0.15098        0.121553 
        2.98456        0.148688        0.119905 
        3.00023        0.146681        0.118284 
        3.01596        0.144304        0.116688 
        3.03164        0.142726        0.115126 
        3.04738        0.141176        0.113588 
         3.0631        0.138975        0.112077 
        3.07883        0.137139        0.110594 
        3.09456        0.135823        0.109138 
        3.11026        0.133917         0.10771 
        3.12596        0.131991        0.106307 
        3.14163        0.130363        0.104933 
        3.15734        0.129257        0.103579 
        3.17308         0.12767        0.102245 
        3.18879        0.125734        0.100939 
        3.20447        0.124175       0.0996566 
         3.2202        0.122986       0.0983926 
         3.2359        0.121112       0.0971525 
        3.25157        0.119214       0.0959365 
        3.26729        0.118757       0.0947374 
        3.28304        0.117223       0.0935563 
        3.29877        0.115623       0.0923966 
        3.31446        0.114752        0.091259 
        3.33014        0.113007       0.0901412 
        3.34585        0.111813       0.0890403 
        3.36158        0.110693        0.087956 
        3.37727        0.109452       0.0868929 
        3.39294        0.108521       0.0858482 
        3.40867        0.106827       0.0848167 
        3.42439        0.105979       0.0838025 
        3.44008        0.104863       0.0828067 
        3.45578        0.103825       0.0818262 
        3.47153         0.10276       0.0808593 
        3.48724         0.10175       0.0799095 
        3.50292        0.100899        0.078977 
        3.51859       0.0995614       0.0780597 
        3.53431        0.098608       0.0771539 
        3.55007       0.0977563       0.0762602 
        3.56577       0.0969352        0.075384 
        3.58146       0.0957846       0.0745217 
        3.59719       0.0948667       0.0736709 
        3.61292       0.0940469       0.0728335 
        3.62859        0.093319       0.0720121 
        3.64429       0.0919935       0.0712016 
        3.66003       0.0912821       0.0704011 
        3.67578        0.090582        0.069613 
        3.69146       0.0896872       0.0688398 
        3.70712       0.0889374       0.0680796 
        3.72284       0.0881998        0.067328 
        3.73853       0.0874704       0.0665889 
        3.75422       0.0866404       0.0658605 
        3.76993       0.0859048       0.0651423 
        3.78564       0.0849792        0.064435 
        3.80137       0.0844207       0.0637369 
        3.81707       0.0836835       0.0630505 
        3.83279       0.0829849       0.0623735 
        3.84853       0.0822615       0.0617053 
        3.86424       0.0815027        0.061048 
        3.87992       0.0808664       0.0604013 
        3.89561       0.0802138       0.0597637 
        3.91134       0.0794478        0.059134 
        3.92704       0.0786546       0.0585139 
        3.94273       0.0781552       0.0579033 
        3.95845       0.0773121       0.0573002 
        3.97418        0.076767       0.0567054 
        3.98988       0.0760427       0.0561198 
        4.00554       0.0750818        0.055544 
        4.02125       0.0744393       0.0549745 
        4.03698       0.0734414       0.0544121 
        4.05268       0.0726255       0.0538587 
        4.06839        0.071708       0.0533125 
         4.0841       0.0708633        0.052774 
        4.09983       0.0700788        0.052242 
        4.11555       0.0691138       0.0517176 
        4.13124       0.0682043       0.0512017 
        4.14693       0.0675203       0.0506923 
        4.16266       0.0667205       0.0501886 
        4.17839       0.0659255        0.049692 
        4.19408       0.0650784       0.0492032 
        4.20977       0.0645338       0.0487206 
        4.22551       0.0638859       0.0482433 
        4.24123       0.0631293       0.0477729 
        4.25691       0.0625927       0.0473099 
        4.27259       0.0618463       0.0468528 
        4.28831        0.061503       0.0464008 
        4.30404       0.0607162       0.0459542 
        4.31974       0.0602655       0.0455145 
        4.33543       0.0598634       0.0450807 
        4.35116       0.0594082       0.0446514 
        4.36688       0.0589635       0.0442278 
        4.38255       0.0583607       0.0438113 
        4.39825       0.0581764       0.0433991 
        4.41398       0.0576319       0.0429914 
         4.4297       0.0574057       0.0425893 
        4.44541       0.0569808       0.0421923 
        4.46111       0.0565063       0.0418007 
        4.47683       0.0562756       0.0414137 
        4.49251       0.0559255       0.0410323 
        4.50819       0.0559536       0.0406558 
         4.5239       0.0555453       0.0402834 
        4.53962       0.0553895       0.0399152 
        4.55535       0.0551584       0.0395513 
        4.57106       0.0550295       0.0391925 
        4.58678       0.0548267       0.0388379 
         4.6025       0.0548732       0.0384877 
        4.61821        0.054819       0.0381417 
        4.63391       0.0546729       0.0378004 
         4.6496       0.0545174       0.0374634 
        4.66532       0.0544185         0.03713 
        4.68103       0.0545268       0.0368007 
        4.69673       0.0545952       0.0364756 
        4.71241       0.0545625       0.0361548 
        4.72811       0.0545971       0.0358372 
        4.74384       0.0545948       0.0355231 
        4.75955       0.0547557       0.0352131 
        4.77525       0.0548598       0.0349069 
        4.79096       0.0549547        0.034604 
        4.80669       0.0549261       0.0343045 
         4.8224       0.0552117       0.0340089 
        4.83809       0.0552651        0.033717 
        4.85379       0.0557976       0.0334283 
         4.8695       0.0557806       0.0331427 
        4.88521       0.0560838       0.0328605 
        4.90093       0.0564368       0.0325816 
        4.91663       0.0566507       0.0323061 
        4.93234       0.0568861       0.0320335 
        4.94807       0.0573222       0.0317637 
        4.96377       0.0576925       0.0314976 
        4.97943       0.0582586       0.0312351 
        4.99514       0.0582444       0.0309748 
        5.01086       0.0588209       0.0307173 
        5.02654       0.0594601       0.0304633 
        5.04227       0.0597227       0.0302114 
          5.058       0.0605409       0.0299622 
        5.07371       0.0608768       0.0297163 
        5.08942       0.0617549       0.0294731 
        5.10513       0.0619777       0.0292325 
        5.12084         0.06263       0.0289945 
        5.13656       0.0632944       0.0287591 
        5.15225       0.0639066       0.0285268 
        5.16796       0.0647642       0.0282966 
        5.18369       0.0654363       0.0280687 
         5.1994       0.0664139       0.0278437 
        5.21509       0.0668373       0.0276213 
        5.23079       0.0680136       0.0274011 
        5.24649       0.0688934       0.0271834 
        5.26217        0.069616       0.0269683 
        5.27788       0.0704497       0.0267551 
        5.29359       0.0713235       0.0265441 
        5.30933       0.0727616       0.0263351 
        5.32504       0.0733569       0.0261287 
        5.34073       0.0745665       0.0259247 
        5.35646       0.0755346       0.0257225 
        5.37218       0.0771064       0.0255223 
        5.38789        0.077789       0.0253246 
        5.40357       0.0785936       0.0251291 
        5.41929       0.0800273       0.0249353 
        5.43502       0.0815867       0.0247435 
         5.4507       0.0829399       0.0245541 
        5.46639       0.0843251       0.0243667 
        5.48212        0.085384       0.0241807 
        5.49786       0.0871968       0.0239965 
        5.51353       0.0890801       0.0238151 
        5.52921       0.0897154       0.0236353 
        5.54495       0.0916826       0.0234569 
        5.56066       0.0934353       0.0232804 
        5.57637       0.0951045       0.0231058 
        5.59207       0.0964724       0.0229331 
        5.60778       0.0982977       0.0227621 
        5.62346        0.100344       0.0225931 
        5.63916        0.101364       0.0224256 
        5.65487        0.104173       0.0222596 
         5.6706        0.105542       0.0220952 
        5.68633        0.107914       0.0219323 
        5.70203        0.110184       0.0217714 
        5.71773        0.112622       0.0216121 
        5.73344        0.113896       0.0214544 
        5.74916        0.116381        0.021298 
        5.76486        0.119065       0.0211434 
        5.78054         0.12083       0.0209905 
        5.79626        0.123218       0.0208387 
          5.812        0.126083       0.0206882 
         5.8277        0.128358       0.0205397 
        5.84339        0.130396       0.0203926 
        5.85911        0.133381       0.0202466 
        5.87484        0.135555       0.0201021 
        5.89053        0.139134       0.0199592 
        5.90623        0.141247       0.0198177 
        5.92195        0.144923       0.0196773 
        5.93767        0.147467       0.0195383 
        5.95336        0.150297       0.0194008 
        5.96905        0.153077       0.0192647 
        5.98476        0.155197       0.0191297 
        6.00048        0.158676        0.018996 
        6.01617        0.163015       0.0188637 
        6.03185         0.16637       0.0187328 
        6.04756        0.168216       0.0186028 
        6.06331        0.172313       0.0184737 
        6.07903        0.177605       0.0183462 
        6.09473        0.179703       0.0182199 
        6.11044        0.183852       0.0180947 
        6.12616        0.185281       0.0179707 
        6.14186        0.190398        0.017848 
        6.15755        0.194904       0.0177264 
        6.17326        0.197983       0.0176058 
        6.18898        0.200988       0.0174863 
        6.20467        0.205388       0.0173681 
        6.22036         0.20927        0.017251 
         6.2361        0.210991       0.0171346 
         6.2518        0.217099       0.0170195 
        6.26748        0.220942       0.0169057 
        6.28319        0.225816       0.0167926 
        6.29893        0.229852       0.0166805 
        6.31463        0.234765       0.0165695 
        6.33033        0.238071       0.0164596 
        6.34604         0.24398       0.0163506 
        6.36177        0.247431       0.0162424 
        6.37747        0.252011       0.0161354 
