# k  (h/Mpc)    Pcb(k)  (Mpc/h)^3    Pcb_linear(k) (Mpc/h)^3   ShotnoiseSubtracted = true
      0.0200456         296.244         299.414 
      0.0350414         194.914         192.412 
      0.0492313         132.034         131.335 
      0.0637834         105.743         106.341 
      0.0800726         80.0477          80.543 
       0.096163         56.3206         55.5607 
       0.111083         44.4623         43.8625 
       0.126058         38.5821         38.7736 
       0.142273         31.5405         31.6994 
       0.158546         24.3964         24.2582 
        0.17375         20.6884         20.5003 
       0.188953         18.5543          18.544 
       0.204907         15.7984         15.9864 
       0.220756          13.282          13.233 
        0.23588         11.5643         11.5351 
         0.2514         10.4905          10.482 
       0.267535         9.34623          9.3199 
       0.283568          8.1207         8.08716 
       0.299022         7.23231         7.19696 
       0.314451           6.667         6.57661 
       0.330372         6.00518         5.96734 
       0.346141         5.39153         5.35242 
       0.361624          4.8736         4.84775 
       0.377134         4.46354         4.45445 
       0.392932         4.17364          4.0941 
       0.408854         3.75857          3.7419 
       0.424564         3.49679         3.43359 
       0.440253         3.20605          3.1754 
       0.455999         2.94819         2.94479 
       0.471626          2.7335          2.7298 
        0.48727         2.57117         2.53353 
       0.502856         2.40188         2.36151 
       0.518488         2.21107         2.20646 
       0.534347          2.0556         2.06123 
       0.550082         1.94893         1.92839 
       0.565732         1.84543         1.80895 
       0.581496         1.71914         1.69947 
       0.597222         1.61559         1.59887 
       0.612804         1.51814         1.50651 
       0.628434         1.43513         1.42133 
       0.644267         1.36011         1.34201 
       0.660051         1.28578         1.26891 
       0.675724         1.20962          1.2016 
       0.691403         1.14866         1.13908 
       0.707174         1.08882         1.08061 
       0.722871         1.05073         1.02644 
        0.73838        0.981869        0.976518 
       0.754018        0.934026        0.929511 
       0.769845        0.883112        0.885058 
        0.78569        0.851229        0.843446 
       0.801365        0.813443        0.804895 
       0.817031        0.777812        0.768763 
       0.832809        0.738152        0.734604 
       0.848511        0.707869        0.702658 
       0.864097        0.680431        0.672817 
       0.879701        0.655629        0.644668 
       0.895507        0.619803        0.617786 
       0.911279        0.598577        0.592482 
        0.92691        0.578664        0.568794 
       0.942635        0.548318        0.546261 
       0.958396        0.529387        0.524892 
       0.974128        0.509386        0.504696 
       0.989692        0.489473        0.485753 
        1.00528        0.468428        0.467748 
        1.02113        0.455738        0.450367 
        1.03692        0.440881        0.433928 
        1.05264        0.420807        0.418378 
        1.06832        0.407117        0.403609 
        1.08405        0.390314        0.389508 
        1.09979        0.378758        0.376068 
        1.11537        0.363558        0.363391 
        1.13105        0.349622        0.351218 
        1.14679        0.340771        0.339552 
        1.16256        0.330124        0.328389 
        1.17828        0.319789        0.317761 
        1.19395        0.309375        0.307635 
         1.2097        0.298166        0.297896 
        1.22537        0.287735        0.288623 
          1.241        0.279393        0.279769 
        1.25666        0.272483        0.271262 
        1.27241        0.262861        0.263066 
        1.28819        0.254055        0.255192 
        1.30392        0.247731        0.247661 
        1.31957        0.239606        0.240465 
        1.33529        0.233093        0.233526 
        1.35108        0.225492        0.226831 
        1.36674        0.219558        0.220445 
         1.3824        0.213802        0.214308 
        1.39811        0.206384        0.208383 
        1.41389        0.201654        0.202657 
        1.42964        0.196005        0.197154 
        1.44531        0.189968        0.191881 
        1.46101        0.184366        0.186787 
        1.47667        0.180031        0.181893 
        1.49229        0.174971        0.177185 
        1.50793        0.170825        0.172637 
        1.52367        0.165682        0.168218 
        1.53953        0.161028        0.163923 
        1.55526         0.15721        0.159811 
        1.57092        0.154199        0.155856 
        1.58662        0.150114        0.152024 
        1.60235        0.146229        0.148312 
        1.61809        0.141799        0.144722 
        1.63369        0.138156        0.141281 
        1.64941        0.135236        0.137926 
        1.66519         0.13239        0.134667 
        1.68085        0.128341        0.131536 
        1.69652         0.12563        0.128502 
        1.71228        0.122274        0.125547 
        1.72806        0.120006        0.122681 
        1.74368        0.116889        0.119932 
        1.75933        0.114444        0.117261 
        1.77505        0.111999        0.114659 
        1.79081        0.108814         0.11213 
         1.8065        0.106957        0.109688 
        1.82218        0.103859        0.107319 
        1.83797        0.101248        0.105004 
        1.85367        0.099471         0.10277 
        1.86928       0.0968122        0.100613 
        1.88497       0.0947435       0.0985057 
        1.90073       0.0926768       0.0964506 
        1.91647       0.0910706       0.0944553 
        1.93218       0.0895283       0.0925202 
        1.94787       0.0867601       0.0906417 
        1.96363       0.0851883       0.0888074 
        1.97935       0.0832967       0.0870272 
        1.99499       0.0816187       0.0853054 
        2.01064        0.079859       0.0836272 
         2.0264       0.0785534       0.0819832 
        2.04216       0.0765011       0.0803839 
        2.05781       0.0749456       0.0788368 
        2.07353       0.0736026       0.0773246 
        2.08928       0.0722958       0.0758484 
        2.10499       0.0705207       0.0744143 
        2.12065       0.0692952       0.0730213 
        2.13633        0.067858       0.0716624 
        2.15211       0.0667776       0.0703289 
        2.16785       0.0650965       0.0690328 
        2.18349       0.0639761       0.0677772 
        2.19916       0.0624674       0.0665498 
        2.21489       0.0612733       0.0653486 
        2.23063       0.0603339       0.0641758 
         2.2463       0.0591638       0.0630368 
        2.26194       0.0580669       0.0619281 
        2.27765       0.0570476       0.0608401 
        2.29341       0.0557493       0.0597751 
        2.30914       0.0547932       0.0587376 
        2.32486       0.0537256        0.057725 
        2.34061       0.0527686       0.0567344 
        2.35635       0.0518795       0.0557677 
        2.37203       0.0512531       0.0548267 
        2.38768       0.0502326       0.0539091 
        2.40339        0.049219       0.0530089 
        2.41914       0.0483227       0.0521271 
        2.43483        0.047545       0.0512682 
         2.4505       0.0465888       0.0504299 
        2.46622       0.0457658       0.0496073 
        2.48195        0.045021       0.0488028 
        2.49759       0.0442097       0.0480203 
        2.51328       0.0431365       0.0472527 
        2.52906       0.0427067       0.0464969 
        2.54479       0.0419227       0.0457602 
        2.56049       0.0411709       0.0450408 
        2.57618       0.0406546       0.0443373 
        2.59189       0.0397413       0.0436477 
        2.60758       0.0393108       0.0429736 
        2.62325       0.0384163       0.0423145 
        2.63898       0.0379731       0.0416667 
        2.65468       0.0371815       0.0410337 
        2.67044       0.0366302       0.0404111 
        2.68618       0.0359869       0.0398027 
        2.70184       0.0356161        0.039209 
        2.71755        0.034956       0.0386259 
        2.73329       0.0343789       0.0380537 
        2.74897       0.0338521       0.0374948 
        2.76462       0.0332011       0.0369482 
        2.78034       0.0327568       0.0364102 
        2.79607       0.0323314       0.0358822 
        2.81179        0.031655       0.0353652 
        2.82749       0.0312868       0.0348588 
        2.84321       0.0307785       0.0343617 
        2.85893       0.0302519       0.0338743 
        2.87462       0.0299043       0.0333971 
        2.89033        0.029391       0.0329286 
        2.90605       0.0289597       0.0324686 
        2.92176       0.0286035       0.0320175 
        2.93747       0.0280525       0.0315751 
        2.95318       0.0278077       0.0311409 
        2.96891       0.0273083       0.0307146 
        2.98456       0.0269098       0.0302981 
        3.00023       0.0265828       0.0298886 
        3.01596       0.0260678       0.0294853 
        3.03164       0.0257241       0.0290905 
        3.04738       0.0253982       0.0287018 
         3.0631       0.0248748       0.0283202 
        3.07883       0.0246651       0.0279454 
        3.09456       0.0243504       0.0275774 
        3.11026       0.0239321       0.0272166 
        3.12596       0.0237562       0.0268622 
        3.14163       0.0233394       0.0265148 
        3.15734       0.0230693       0.0261727 
        3.17308       0.0227509       0.0258358 
        3.18879       0.0224193       0.0255056 
        3.20447        0.022077       0.0251816 
         3.2202       0.0218383       0.0248622 
         3.2359       0.0215907       0.0245489 
        3.25157        0.021246       0.0242416 
        3.26729       0.0209941       0.0239387 
        3.28304        0.020764       0.0236402 
        3.29877       0.0204896       0.0233472 
        3.31446       0.0201603       0.0230597 
        3.33014       0.0200571       0.0227773 
        3.34585       0.0197029       0.0224991 
        3.36158        0.019434       0.0222251 
        3.37727       0.0191709       0.0219565 
        3.39294       0.0189736       0.0216925 
        3.40867       0.0187864       0.0214318 
        3.42439       0.0185651       0.0211756 
        3.44008       0.0183699        0.020924 
        3.45578       0.0181703       0.0206762 
        3.47153       0.0179411       0.0204319 
        3.48724       0.0177088       0.0201919 
        3.50292       0.0176014       0.0199562 
        3.51859       0.0173609       0.0197244 
        3.53431       0.0170997       0.0194956 
        3.55007       0.0169552       0.0192697 
        3.56577       0.0167975       0.0190483 
        3.58146       0.0165786       0.0188305 
        3.59719       0.0164257       0.0186155 
        3.61292       0.0162144       0.0184039 
        3.62859       0.0160047       0.0181963 
        3.64429       0.0159121       0.0179915 
        3.66003       0.0157585       0.0177892 
        3.67578       0.0155781       0.0175901 
        3.69146       0.0154589       0.0173947 
        3.70712       0.0153025       0.0172027 
        3.72284       0.0151166       0.0170127 
        3.73853       0.0150198        0.016826 
        3.75422       0.0147951       0.0166419 
        3.76993       0.0147202       0.0164604 
        3.78564       0.0145546       0.0162817 
        3.80137       0.0144294       0.0161053 
        3.81707        0.014267       0.0159319 
        3.83279       0.0141463       0.0157608 
        3.84853       0.0140166       0.0155919 
        3.86424       0.0139456       0.0154259 
        3.87992        0.013805       0.0152624 
        3.89561       0.0136163       0.0151013 
        3.91134         0.01355       0.0149422 
        3.92704       0.0133967       0.0147855 
        3.94273       0.0132488       0.0146312 
        3.95845       0.0131594       0.0144788 
        3.97418       0.0130255       0.0143286 
        3.98988       0.0128462       0.0141806 
        4.00554       0.0127574       0.0140351 
        4.02125       0.0125713       0.0138912 
        4.03698        0.012401       0.0137491 
        4.05268       0.0122422       0.0136092 
        4.06839       0.0120639       0.0134712 
         4.0841       0.0118887       0.0133351 
        4.09983        0.011707       0.0132007 
        4.11555       0.0115569       0.0130682 
        4.13124       0.0113823       0.0129379 
        4.14693       0.0112671       0.0128092 
        4.16266       0.0110932       0.0126819 
        4.17839       0.0109471       0.0125564 
        4.19408       0.0107891       0.0124329 
        4.20977       0.0106567       0.0123109 
        4.22551       0.0105398       0.0121903 
        4.24123       0.0104127       0.0120714 
        4.25691       0.0102881       0.0119545 
        4.27259       0.0101817        0.011839 
        4.28831       0.0100833       0.0117247 
        4.30404      0.00997063       0.0116119 
        4.31974      0.00988103       0.0115008 
        4.33543      0.00978742       0.0113912 
        4.35116      0.00967699       0.0112827 
        4.36688      0.00967392       0.0111757 
        4.38255      0.00953713       0.0110704 
        4.39825      0.00952896       0.0109663 
        4.41398      0.00944869       0.0108632 
         4.4297       0.0093789       0.0107616 
        4.44541      0.00932209       0.0106613 
        4.46111      0.00925087       0.0105624 
        4.47683      0.00924732       0.0104646 
        4.49251      0.00920283       0.0103682 
        4.50819      0.00917861       0.0102731 
         4.5239      0.00913087        0.010179 
        4.53962      0.00910157       0.0100859 
        4.55535      0.00908619      0.00999399 
        4.57106      0.00910755      0.00990332 
        4.58678      0.00904822      0.00981373 
         4.6025      0.00907096      0.00972522 
        4.61821      0.00908451      0.00963781 
        4.63391      0.00907357      0.00955158 
         4.6496      0.00906696      0.00946642 
        4.66532      0.00906324      0.00938216 
        4.68103      0.00911516      0.00929895 
        4.69673      0.00912989      0.00921681 
        4.71241      0.00916103      0.00913574 
        4.72811      0.00917999       0.0090555 
        4.74384      0.00921206      0.00897612 
        4.75955      0.00924513      0.00889779 
        4.77525      0.00932908      0.00882043 
        4.79096      0.00937925      0.00874389 
        4.80669      0.00944289      0.00866821 
         4.8224      0.00950566       0.0085935 
        4.83809      0.00954134      0.00851974 
        4.85379      0.00969866       0.0084468 
         4.8695      0.00968493      0.00837464 
        4.88521      0.00977966      0.00830334 
        4.90093       0.0098592      0.00823285 
        4.91663      0.00994766      0.00816324 
        4.93234       0.0100548      0.00809435 
        4.94807        0.010163       0.0080262 
        4.96377       0.0102775      0.00795895 
        4.97943       0.0104494      0.00789261 
        4.99514       0.0105002      0.00782684 
        5.01086       0.0106613      0.00776177 
        5.02654       0.0107685      0.00769759 
        5.04227       0.0108479      0.00763394 
          5.058       0.0110179      0.00757098 
        5.07371       0.0111349      0.00750884 
        5.08942       0.0113236      0.00744738 
        5.10513       0.0114854      0.00738659 
        5.12084       0.0116677      0.00732645 
        5.13656       0.0118472      0.00726698 
        5.15225       0.0120302      0.00720827 
        5.16796       0.0121712       0.0071501 
        5.18369       0.0123771      0.00709251 
         5.1994       0.0125983      0.00703566 
        5.21509       0.0128071      0.00697947 
        5.23079       0.0129965      0.00692383 
        5.24649       0.0132566      0.00686882 
        5.26217        0.013434      0.00681445 
        5.27788       0.0137384      0.00676058 
        5.29359       0.0139114      0.00670728 
        5.30933        0.014169      0.00665447 
        5.32504       0.0144291      0.00660231 
        5.34073       0.0147192      0.00655077 
        5.35646       0.0150243      0.00649966 
        5.37218       0.0152576      0.00644908 
        5.38789        0.015478      0.00639912 
        5.40357        0.015919      0.00634974 
        5.41929       0.0162503      0.00630076 
        5.43502       0.0165021      0.00625229 
         5.4507       0.0168275      0.00620444 
        5.46639       0.0172184      0.00615707 
        5.48212       0.0175401      0.00611009 
        5.49786       0.0179238      0.00606353 
        5.51353       0.0184251      0.00601769 
        5.52921       0.0186023      0.00597227 
        5.54495        0.019172      0.00592718 
        5.56066       0.0195376      0.00588259 
        5.57637        0.020056      0.00583847 
        5.59207       0.0204144      0.00579484 
        5.60778       0.0207834      0.00575163 
        5.62346       0.0213656      0.00570891 
        5.63916       0.0218251      0.00566658 
        5.65487       0.0222808      0.00562466 
         5.6706       0.0227729      0.00558311 
        5.68633       0.0233652      0.00554195 
        5.70203       0.0238225       0.0055013 
        5.71773       0.0245605      0.00546105 
        5.73344       0.0249241      0.00542118 
        5.74916       0.0256546      0.00538166 
        5.76486       0.0262905      0.00534259 
        5.78054       0.0270413      0.00530397 
        5.79626       0.0274293      0.00526561 
          5.812       0.0282834      0.00522759 
         5.8277       0.0288378      0.00519005 
        5.84339       0.0296989      0.00515288 
        5.85911       0.0304521        0.005116 
        5.87484       0.0311545      0.00507948 
        5.89053       0.0320369      0.00504338 
        5.90623        0.032778      0.00500762 
        5.92195       0.0336539      0.00497213 
        5.93767       0.0347258      0.00493701 
        5.95336       0.0351003      0.00490228 
        5.96905       0.0362728      0.00486789 
        5.98476       0.0369838      0.00483378 
        6.00048       0.0381457      0.00479998 
        6.01617       0.0392421      0.00476655 
        6.03185       0.0400999      0.00473347 
        6.04756       0.0412175      0.00470063 
        6.06331       0.0426363      0.00466802 
        6.07903        0.043604      0.00463579 
        6.09473       0.0446636      0.00460389 
        6.11044       0.0461189      0.00457225 
        6.12616       0.0471323      0.00454092 
        6.14186       0.0486595      0.00450991 
        6.15755       0.0497356      0.00447918 
        6.17326        0.051099      0.00444872 
        6.18898       0.0529417      0.00441852 
        6.20467       0.0543649      0.00438865 
        6.22036         0.05589      0.00435906 
         6.2361       0.0575078      0.00432965 
         6.2518       0.0593475      0.00430057 
        6.26748       0.0601642      0.00427181 
        6.28319         0.06239      0.00424323 
        6.29893       0.0639668      0.00421489 
        6.31463        0.066228      0.00418685 
        6.33033       0.0680674      0.00415907 
        6.34604       0.0703217      0.00413153 
        6.36177       0.0714972       0.0041042 
        6.37747       0.0738456      0.00407717 
