# k  (h/Mpc)    Pcb(k)  (Mpc/h)^3    Pcb_linear(k) (Mpc/h)^3   ShotnoiseSubtracted = true
      0.0200456           23550         23900.4 
      0.0350414         16005.2           15359 
      0.0492313         10351.9         10483.6 
      0.0637834         8147.33          8488.5 
      0.0800726         6138.78         6429.24 
       0.096163         4762.72         4435.06 
       0.111083         3818.95         3501.27 
       0.126058         3146.21         3095.05 
       0.142273         2690.28         2530.37 
       0.158546         2159.31         1936.38 
        0.17375         1913.96         1636.41 
       0.188953         1805.79         1480.25 
       0.204907         1527.48          1276.1 
       0.220756         1369.31         1056.31 
        0.23588         1216.11         920.771 
         0.2514         1089.89         836.714 
       0.267535         1047.92         743.949 
       0.283568         923.293         645.547 
       0.299022         874.028         574.488 
       0.314451         908.204         524.969 
       0.330372         786.456         476.335 
       0.346141          720.19          427.25 
       0.361624          688.32         386.965 
       0.377134         657.334         355.571 
       0.392932         621.928         326.806 
       0.408854         596.454         298.693 
       0.424564         579.963         274.082 
       0.440253         531.853         253.472 
       0.455999         506.338         235.064 
       0.471626          515.61         217.902 
        0.48727         482.589         202.235 
       0.502856         460.758         188.504 
       0.518488         446.508         176.128 
       0.534347         427.547         164.535 
       0.550082         406.306         153.931 
       0.565732         400.301         144.397 
       0.581496         389.107         135.658 
       0.597222          379.36         127.628 
       0.612804         368.455         120.256 
       0.628434         353.841         113.456 
       0.644267         341.706         107.124 
       0.660051         337.826         101.289 
       0.675724         328.575         95.9165 
       0.691403         321.373         90.9256 
       0.707174         309.726         86.2583 
       0.722871         306.278          81.934 
        0.73838         298.668         77.9493 
       0.754018         289.178          74.197 
       0.769845         288.251         70.6486 
        0.78569         279.575          67.327 
       0.801365         270.174         64.2497 
       0.817031         269.271         61.3655 
       0.832809          263.06         58.6388 
       0.848511         258.543         56.0888 
       0.864097         249.834         53.7067 
       0.879701         249.984         51.4598 
       0.895507          241.48          49.314 
       0.911279         236.635         47.2941 
        0.92691         234.231         45.4032 
       0.942635          230.73         43.6045 
       0.958396         224.297         41.8988 
       0.974128         222.028         40.2867 
       0.989692         214.409         38.7746 
        1.00528           213.2         37.3374 
        1.02113          210.95           35.95 
        1.03692         206.689         34.6377 
        1.05264          202.56         33.3965 
        1.06832         199.779         32.2175 
        1.08405          196.73          31.092 
        1.09979         193.126         30.0192 
        1.11537         190.887         29.0072 
        1.13105         186.805         28.0355 
        1.14679         185.199         27.1043 
        1.16256         182.297         26.2132 
        1.17828         179.868         25.3648 
        1.19395         175.385         24.5566 
         1.2097         174.923         23.7792 
        1.22537         172.705         23.0389 
          1.241         166.984         22.3322 
        1.25666         166.904         21.6531 
        1.27241          163.89         20.9989 
        1.28819         161.711         20.3704 
        1.30392         160.313         19.7692 
        1.31957         156.392         19.1948 
        1.33529         153.386         18.6409 
        1.35108         153.063         18.1065 
        1.36674         148.685         17.5967 
         1.3824         147.719         17.1068 
        1.39811         146.702         16.6339 
        1.41389         143.395         16.1768 
        1.42964         140.657         15.7376 
        1.44531          140.19         15.3166 
        1.46101         137.612         14.9101 
        1.47667          136.49         14.5193 
        1.49229         135.062         14.1435 
        1.50793         132.275         13.7805 
        1.52367         130.166         13.4278 
        1.53953         128.324          13.085 
        1.55526         126.995         12.7567 
        1.57092         126.045          12.441 
        1.58662         123.641         12.1351 
        1.60235          122.25         11.8388 
        1.61809         120.227         11.5522 
        1.63369         118.256         11.2775 
        1.64941         117.588         11.0098 
        1.66519         115.199         10.7496 
        1.68085         113.734         10.4997 
        1.69652         112.808         10.2575 
        1.71228         110.664         10.0216 
        1.72806         110.061         9.79282 
        1.74368         108.933         9.57342 
        1.75933          107.52         9.36024 
        1.77505         106.059         9.15249 
        1.79081         104.511         8.95063 
         1.8065         102.662         8.75567 
        1.82218         101.401         8.56663 
        1.83797         100.564         8.38184 
        1.85367         99.4423         8.20346 
        1.86928         98.5663         8.03129 
        1.88497         97.0987         7.86309 
        1.90073         96.2505         7.69904 
        1.91647         94.4535         7.53977 
        1.93218         93.4628         7.38531 
        1.94787           91.85         7.23535 
        1.96363         91.3827         7.08894 
        1.97935         90.1678         6.94683 
        1.99499         89.2624         6.80939 
        2.01064         87.9138         6.67543 
         2.0264         86.6545          6.5442 
        2.04216         85.6686         6.41654 
        2.05781         84.5145         6.29305 
        2.07353         83.9452         6.17234 
        2.08928         82.7225          6.0545 
        2.10499         82.1375         5.94003 
        2.12065         80.6575         5.82883 
        2.13633         79.9663         5.72035 
        2.15211         78.6171         5.61391 
        2.16785         77.7895         5.51045 
        2.18349         76.4849         5.41022 
        2.19916          76.363         5.31225 
        2.21489         75.1908         5.21636 
        2.23063         73.8639         5.12275 
         2.2463         73.0846         5.03183 
        2.26194         72.6611         4.94333 
        2.27765         71.3282         4.85648 
        2.29341         70.6321         4.77147 
        2.30914         69.5977         4.68865 
        2.32486         68.8603         4.60782 
        2.34061         67.8322         4.52875 
        2.35635         67.5122         4.45159 
        2.37203         66.3577         4.37647 
        2.38768         65.8079         4.30322 
        2.40339         64.7663         4.23137 
        2.41914         64.1005         4.16098 
        2.43483         63.5438         4.09242 
         2.4505         62.6158          4.0255 
        2.46622         61.9493         3.95984 
        2.48195         61.6523         3.89562 
        2.49759          60.546         3.83315 
        2.51328         59.8336         3.77188 
        2.52906         59.1919         3.71155 
        2.54479         58.5178         3.65275 
        2.56049         57.8338         3.59532 
        2.57618         57.1185         3.53917 
        2.59189         56.4315         3.48412 
        2.60758         55.8061         3.43031 
        2.62325         55.2222          3.3777 
        2.63898          54.905         3.32599 
        2.65468         54.0321         3.27546 
        2.67044         53.5551         3.22576 
        2.68618         53.2927         3.17719 
        2.70184         52.3838         3.12981 
        2.71755         51.8667         3.08327 
        2.73329         51.1391         3.03759 
        2.74897         50.7845         2.99297 
        2.76462         50.0507         2.94934 
        2.78034         49.4847         2.90639 
        2.79607         49.2683         2.86425 
        2.81179         48.6182         2.82298 
        2.82749         48.2838         2.78256 
        2.84321         47.5738         2.74288 
        2.85893         47.0117         2.70397 
        2.87462         46.7974         2.66588 
        2.89033         45.9357         2.62848 
        2.90605         45.5373         2.59176 
        2.92176         45.0523         2.55575 
        2.93747         44.7111         2.52044 
        2.95318         44.2037         2.48578 
        2.96891          43.616         2.45175 
        2.98456         43.1343          2.4185 
        3.00023         42.9063         2.38582 
        3.01596         42.1636         2.35362 
        3.03164         41.6862         2.32211 
        3.04738         41.3601         2.29108 
         3.0631         40.9634         2.26062 
        3.07883         40.3959         2.23071 
        3.09456         40.0099         2.20133 
        3.11026         39.7364         2.17253 
        3.12596         39.2526         2.14424 
        3.14163         38.8524         2.11651 
        3.15734         38.3421          2.0892 
        3.17308         38.1617         2.06231 
        3.18879         37.7899         2.03595 
        3.20447         37.3908         2.01009 
         3.2202         36.9193          1.9846 
         3.2359         36.6271         1.95958 
        3.25157         36.3356         1.93506 
        3.26729         35.7943         1.91087 
        3.28304         35.4894         1.88705 
        3.29877         35.1012         1.86366 
        3.31446         34.7495         1.84071 
        3.33014         34.4916         1.81817 
        3.34585         33.9971         1.79596 
        3.36158         33.7776         1.77409 
        3.37727          33.243         1.75265 
        3.39294         33.1012         1.73157 
        3.40867         32.7708         1.71077 
        3.42439         32.4352         1.69031 
        3.44008          32.142         1.67023 
        3.45578         31.7592         1.65045 
        3.47153         31.4697         1.63095 
        3.48724         31.1353         1.61179 
        3.50292         30.8711         1.59298 
        3.51859           30.52         1.57448 
        3.53431         30.2668         1.55621 
        3.55007         30.0093         1.53818 
        3.56577         29.7088         1.52051 
        3.58146         29.4147         1.50312 
        3.59719         29.1639         1.48596 
        3.61292         28.8776         1.46906 
        3.62859         28.5482          1.4525 
        3.64429         28.2965         1.43615 
        3.66003         28.1404            1.42 
        3.67578         27.8315         1.40411 
        3.69146          27.506         1.38851 
        3.70712         27.2137         1.37318 
        3.72284         26.9953         1.35802 
        3.73853         26.7786         1.34311 
        3.75422         26.4128         1.32842 
        3.76993         26.3102         1.31393 
        3.78564          26.027         1.29967 
        3.80137         25.8647         1.28558 
        3.81707         25.5106         1.27174 
        3.83279         25.3912         1.25808 
        3.84853         25.0561         1.24461 
        3.86424         24.8882         1.23135 
        3.87992          24.631          1.2183 
        3.89561         24.3347         1.20544 
        3.91134         24.1142         1.19274 
        3.92704         23.9408         1.18024 
        3.94273         23.7064         1.16792 
        3.95845         23.4891         1.15575 
        3.97418         23.2781         1.14376 
        3.98988         23.0158         1.13195 
        4.00554         22.8792         1.12033 
        4.02125         22.6304         1.10885 
        4.03698         22.4225          1.0975 
        4.05268         22.2794         1.08634 
        4.06839         21.9899         1.07532 
         4.0841         21.8702         1.06446 
        4.09983         21.5857         1.05373 
        4.11555         21.4523         1.04315 
        4.13124         21.2446         1.03275 
        4.14693         21.0234         1.02247 
        4.16266          20.839         1.01231 
        4.17839         20.7038          1.0023 
        4.19408         20.5304        0.992437 
        4.20977         20.3209        0.982704 
        4.22551         20.1918        0.973077 
        4.24123         19.9625        0.963587 
        4.25691         19.7781        0.954249 
        4.27259         19.6865         0.94503 
        4.28831         19.4362        0.935912 
        4.30404         19.3013        0.926905 
        4.31974         19.1094        0.918036 
        4.33543         18.9801        0.909285 
        4.35116         18.8353        0.900627 
        4.36688          18.677        0.892084 
        4.38255         18.4931        0.883682 
        4.39825         18.3342        0.875368 
        4.41398         18.1609        0.867144 
         4.4297         18.0369        0.859034 
        4.44541         17.8723        0.851027 
        4.46111         17.7317        0.843128 
        4.47683         17.6169        0.835322 
        4.49251         17.4252        0.827629 
        4.50819         17.2765        0.820035 
         4.5239         17.1293        0.812524 
        4.53962         16.9956        0.805096 
        4.55535          16.855        0.797757 
        4.57106         16.7182        0.790519 
        4.58678         16.5455        0.783368 
         4.6025          16.483        0.776303 
        4.61821         16.2852        0.769326 
        4.63391         16.1829        0.762442 
         4.6496         16.0561        0.755644 
        4.66532         15.9086        0.748918 
        4.68103         15.8053        0.742276 
        4.69673         15.6365         0.73572 
        4.71241         15.5683        0.729249 
        4.72811         15.3611        0.722844 
        4.74384         15.2718        0.716507 
        4.75955         15.1654        0.710254 
        4.77525         15.0521        0.704079 
        4.79096         14.9327         0.69797 
        4.80669         14.7856        0.691929 
         4.8224          14.698        0.685965 
        4.83809         14.5419        0.680077 
        4.85379         14.4437        0.674254 
         4.8695         14.3684        0.668494 
        4.88521         14.2012        0.662803 
        4.90093         14.1164        0.657177 
        4.91663         14.0012         0.65162 
        4.93234         13.8582        0.646121 
        4.94807         13.7897        0.640681 
        4.96377         13.6631        0.635313 
        4.97943         13.5838        0.630017 
        4.99514         13.4679        0.624767 
        5.01086         13.3427        0.619573 
        5.02654         13.2484         0.61445 
        5.04227         13.1361        0.609369 
          5.058         13.0228        0.604343 
        5.07371         12.9321        0.599383 
        5.08942         12.8714        0.594477 
        5.10513         12.7771        0.589625 
        5.12084         12.6608        0.584824 
        5.13656         12.5567        0.580077 
        5.15225         12.4591         0.57539 
        5.16796         12.3434        0.570747 
        5.18369         12.2807         0.56615 
         5.1994         12.1473        0.561612 
        5.21509         12.0859        0.557127 
        5.23079         11.9635        0.552685 
        5.24649         11.8917        0.548295 
        5.26217         11.8085        0.543955 
        5.27788         11.7256        0.539655 
        5.29359         11.6057          0.5354 
        5.30933         11.5431        0.531185 
        5.32504         11.4463        0.527021 
        5.34073         11.3764        0.522906 
        5.35646         11.2871        0.518827 
        5.37218         11.2027         0.51479 
        5.38789         11.1274        0.510801 
        5.40357          11.043        0.506859 
        5.41929         10.9543         0.50295 
        5.43502         10.8551        0.499081 
         5.4507         10.7913        0.495261 
        5.46639         10.7274         0.49148 
        5.48212         10.6351         0.48773 
        5.49786         10.5485        0.484014 
        5.51353         10.4934        0.480354 
        5.52921         10.3855        0.476728 
        5.54495         10.2996        0.473129 
        5.56066         10.2541         0.46957 
        5.57637         10.1555        0.466048 
        5.59207         10.0983        0.462565 
        5.60778         10.0321        0.459116 
        5.62346         9.95009        0.455706 
        5.63916         9.89888        0.452328 
        5.65487         9.79472        0.448981 
         5.6706         9.73889        0.445664 
        5.68633         9.68546        0.442379 
        5.70203          9.6214        0.439134 
        5.71773         9.53117        0.435921 
        5.73344         9.46347        0.432738 
        5.74916         9.39092        0.429584 
        5.76486         9.34896        0.426466 
        5.78054         9.26325        0.423382 
        5.79626         9.18999         0.42032 
          5.812         9.14115        0.417286 
         5.8277         9.06824        0.414289 
        5.84339         9.00089        0.411322 
        5.85911         8.95656        0.408378 
        5.87484         8.86996        0.405462 
        5.89053         8.81006        0.402581 
        5.90623         8.77421        0.399726 
        5.92195          8.7063        0.396894 
        5.93767         8.61577         0.39409 
        5.95336          8.5765        0.391318 
        5.96905         8.51138        0.388573 
        5.98476         8.46364         0.38585 
        6.00048          8.4144        0.383152 
        6.01617         8.36074        0.380484 
        6.03185         8.28877        0.377843 
        6.04756         8.25008        0.375221 
        6.06331         8.17666        0.372619 
        6.07903         8.12685        0.370046 
        6.09473         8.07852        0.367499 
        6.11044         8.01837        0.364974 
        6.12616         7.96083        0.362473 
        6.14186         7.88718        0.359997 
        6.15755         7.84919        0.357545 
        6.17326           7.808        0.355113 
        6.18898         7.75866        0.352702 
        6.20467         7.68996        0.350318 
        6.22036         7.63967        0.347956 
         6.2361         7.61186        0.345609 
         6.2518         7.54335        0.343287 
        6.26748          7.4881        0.340992 
        6.28319         7.44985        0.338711 
        6.29893         7.39337        0.336448 
        6.31463         7.34266         0.33421 
        6.33033         7.31341        0.331993 
        6.34604         7.25299        0.329794 
        6.36177         7.21062        0.327612 
        6.37747         7.17006        0.325455 
