# k  (h/Mpc)    Pcb(k)  (Mpc/h)^3    Pcb_linear(k) (Mpc/h)^3   ShotnoiseSubtracted = true
      0.0200456         296.098         299.414 
      0.0350414         193.134         192.412 
      0.0492313         132.052         131.335 
      0.0637834         106.742         106.341 
      0.0800726         80.8833          80.543 
       0.096163         55.7559         55.5607 
       0.111083         43.8538         43.8625 
       0.126058         38.7661         38.7736 
       0.142273         31.8392         31.6994 
       0.158546         24.4938         24.2582 
        0.17375         20.4813         20.5003 
       0.188953         18.5502          18.544 
       0.204907         16.2292         15.9864 
       0.220756         13.3621          13.233 
        0.23588         11.6241         11.5351 
         0.2514         10.4906          10.482 
       0.267535         9.35293          9.3199 
       0.283568         8.14522         8.08716 
       0.299022         7.26919         7.19696 
       0.314451         6.55433         6.57661 
       0.330372         5.98319         5.96734 
       0.346141         5.37422         5.35242 
       0.361624         4.88225         4.84775 
       0.377134         4.50327         4.45445 
       0.392932         4.05762          4.0941 
       0.408854         3.77893          3.7419 
       0.424564         3.44645         3.43359 
       0.440253         3.19054          3.1754 
       0.455999         2.97223         2.94479 
       0.471626         2.76581          2.7298 
        0.48727         2.55208         2.53353 
       0.502856         2.36911         2.36151 
       0.518488         2.23931         2.20646 
       0.534347         2.10793         2.06123 
       0.550082         1.93767         1.92839 
       0.565732         1.79456         1.80895 
       0.581496         1.71615         1.69947 
       0.597222         1.61961         1.59887 
       0.612804         1.51696         1.50651 
       0.628434          1.4449         1.42133 
       0.644267          1.3572         1.34201 
       0.660051         1.27715         1.26891 
       0.675724         1.21368          1.2016 
       0.691403         1.15619         1.13908 
       0.707174         1.09145         1.08061 
       0.722871         1.03197         1.02644 
        0.73838        0.988643        0.976518 
       0.754018        0.947903        0.929511 
       0.769845        0.898021        0.885058 
        0.78569        0.854974        0.843446 
       0.801365        0.813223        0.804895 
       0.817031        0.779228        0.768763 
       0.832809        0.744094        0.734604 
       0.848511        0.708773        0.702658 
       0.864097        0.675168        0.672817 
       0.879701        0.646826        0.644668 
       0.895507        0.624066        0.617786 
       0.911279         0.60073        0.592482 
        0.92691        0.574415        0.568794 
       0.942635        0.551601        0.546261 
       0.958396        0.527943        0.524892 
       0.974128        0.507392        0.504696 
       0.989692        0.490685        0.485753 
        1.00528        0.472173        0.467748 
        1.02113        0.450646        0.450367 
        1.03692        0.437326        0.433928 
        1.05264        0.421465        0.418378 
        1.06832        0.407115        0.403609 
        1.08405        0.389482        0.389508 
        1.09979        0.376328        0.376068 
        1.11537        0.366516        0.363391 
        1.13105        0.353699        0.351218 
        1.14679        0.343416        0.339552 
        1.16256        0.328425        0.328389 
        1.17828        0.317926        0.317761 
        1.19395        0.307248        0.307635 
         1.2097        0.295962        0.297896 
        1.22537        0.289878        0.288623 
          1.241        0.280134        0.279769 
        1.25666        0.273536        0.271262 
        1.27241        0.262635        0.263066 
        1.28819        0.254506        0.255192 
        1.30392        0.247497        0.247661 
        1.31957        0.240581        0.240465 
        1.33529        0.232681        0.233526 
        1.35108        0.225524        0.226831 
        1.36674        0.217493        0.220445 
         1.3824        0.214325        0.214308 
        1.39811         0.20703        0.208383 
        1.41389        0.201734        0.202657 
        1.42964        0.196674        0.197154 
        1.44531        0.189565        0.191881 
        1.46101        0.185408        0.186787 
        1.47667        0.178859        0.181893 
        1.49229        0.175755        0.177185 
        1.50793        0.169906        0.172637 
        1.52367        0.166152        0.168218 
        1.53953        0.161882        0.163923 
        1.55526        0.157754        0.159811 
        1.57092        0.152616        0.155856 
        1.58662        0.149811        0.152024 
        1.60235         0.14651        0.148312 
        1.61809        0.141074        0.144722 
        1.63369        0.139575        0.141281 
        1.64941        0.135505        0.137926 
        1.66519        0.131656        0.134667 
        1.68085        0.128302        0.131536 
        1.69652        0.125147        0.128502 
        1.71228        0.122957        0.125547 
        1.72806        0.118901        0.122681 
        1.74368         0.11721        0.119932 
        1.75933        0.114329        0.117261 
        1.77505        0.111333        0.114659 
        1.79081        0.109347         0.11213 
         1.8065        0.106041        0.109688 
        1.82218        0.104036        0.107319 
        1.83797        0.101512        0.105004 
        1.85367       0.0995952         0.10277 
        1.86928       0.0974317        0.100613 
        1.88497       0.0954262       0.0985057 
        1.90073         0.09299       0.0964506 
        1.91647       0.0909771       0.0944553 
        1.93218       0.0888655       0.0925202 
        1.94787       0.0869283       0.0906417 
        1.96363       0.0852678       0.0888074 
        1.97935       0.0831931       0.0870272 
        1.99499       0.0817559       0.0853054 
        2.01064       0.0801175       0.0836272 
         2.0264       0.0782427       0.0819832 
        2.04216       0.0769614       0.0803839 
        2.05781       0.0753223       0.0788368 
        2.07353       0.0732426       0.0773246 
        2.08928       0.0719213       0.0758484 
        2.10499        0.070427       0.0744143 
        2.12065       0.0694288       0.0730213 
        2.13633       0.0676277       0.0716624 
        2.15211       0.0668711       0.0703289 
        2.16785       0.0652336       0.0690328 
        2.18349        0.063654       0.0677772 
        2.19916       0.0629936       0.0665498 
        2.21489       0.0616706       0.0653486 
        2.23063       0.0605701       0.0641758 
         2.2463        0.059192       0.0630368 
        2.26194       0.0579724       0.0619281 
        2.27765       0.0568515       0.0608401 
        2.29341       0.0560713       0.0597751 
        2.30914       0.0548163       0.0587376 
        2.32486       0.0538023        0.057725 
        2.34061         0.05293       0.0567344 
        2.35635       0.0518342       0.0557677 
        2.37203       0.0509414       0.0548267 
        2.38768       0.0499409       0.0539091 
        2.40339       0.0491363       0.0530089 
        2.41914        0.048381       0.0521271 
        2.43483       0.0474322       0.0512682 
         2.4505       0.0463525       0.0504299 
        2.46622       0.0456427       0.0496073 
        2.48195       0.0448138       0.0488028 
        2.49759       0.0442766       0.0480203 
        2.51328       0.0435347       0.0472527 
        2.52906       0.0426741       0.0464969 
        2.54479       0.0418995       0.0457602 
        2.56049       0.0411704       0.0450408 
        2.57618         0.04054       0.0443373 
        2.59189        0.039887       0.0436477 
        2.60758       0.0393599       0.0429736 
        2.62325       0.0385278       0.0423145 
        2.63898       0.0379248       0.0416667 
        2.65468       0.0370997       0.0410337 
        2.67044       0.0368509       0.0404111 
        2.68618       0.0361108       0.0398027 
        2.70184       0.0354745        0.039209 
        2.71755       0.0347863       0.0386259 
        2.73329       0.0343702       0.0380537 
        2.74897       0.0339175       0.0374948 
        2.76462       0.0332871       0.0369482 
        2.78034       0.0328435       0.0364102 
        2.79607       0.0321891       0.0358822 
        2.81179       0.0318499       0.0353652 
        2.82749       0.0311929       0.0348588 
        2.84321       0.0307669       0.0343617 
        2.85893       0.0303692       0.0338743 
        2.87462       0.0299403       0.0333971 
        2.89033       0.0294489       0.0329286 
        2.90605       0.0288566       0.0324686 
        2.92176       0.0285617       0.0320175 
        2.93747       0.0281178       0.0315751 
        2.95318       0.0276539       0.0311409 
        2.96891       0.0272942       0.0307146 
        2.98456       0.0269652       0.0302981 
        3.00023       0.0264749       0.0298886 
        3.01596       0.0260529       0.0294853 
        3.03164       0.0258514       0.0290905 
        3.04738       0.0253974       0.0287018 
         3.0631       0.0249684       0.0283202 
        3.07883       0.0246482       0.0279454 
        3.09456       0.0243548       0.0275774 
        3.11026       0.0239839       0.0272166 
        3.12596       0.0237492       0.0268622 
        3.14163       0.0233303       0.0265148 
        3.15734       0.0230688       0.0261727 
        3.17308       0.0227211       0.0258358 
        3.18879       0.0223881       0.0255056 
        3.20447       0.0221927       0.0251816 
         3.2202       0.0218952       0.0248622 
         3.2359       0.0215964       0.0245489 
        3.25157       0.0212594       0.0242416 
        3.26729       0.0209999       0.0239387 
        3.28304       0.0207782       0.0236402 
        3.29877       0.0205132       0.0233472 
        3.31446         0.02018       0.0230597 
        3.33014       0.0199717       0.0227773 
        3.34585       0.0197646       0.0224991 
        3.36158       0.0194606       0.0222251 
        3.37727       0.0192513       0.0219565 
        3.39294       0.0190053       0.0216925 
        3.40867       0.0187995       0.0214318 
        3.42439       0.0185902       0.0211756 
        3.44008       0.0183345        0.020924 
        3.45578       0.0181801       0.0206762 
        3.47153       0.0179284       0.0204319 
        3.48724       0.0178234       0.0201919 
        3.50292       0.0174951       0.0199562 
        3.51859       0.0173211       0.0197244 
        3.53431       0.0172071       0.0194956 
        3.55007       0.0169749       0.0192697 
        3.56577       0.0168194       0.0190483 
        3.58146       0.0165598       0.0188305 
        3.59719       0.0164391       0.0186155 
        3.61292        0.016218       0.0184039 
        3.62859       0.0160412       0.0181963 
        3.64429       0.0159287       0.0179915 
        3.66003        0.015733       0.0177892 
        3.67578       0.0155745       0.0175901 
        3.69146       0.0154492       0.0173947 
        3.70712       0.0153099       0.0172027 
        3.72284       0.0151313       0.0170127 
        3.73853       0.0149799        0.016826 
        3.75422       0.0148829       0.0166419 
        3.76993       0.0146898       0.0164604 
        3.78564        0.014587       0.0162817 
        3.80137       0.0144074       0.0161053 
        3.81707       0.0142602       0.0159319 
        3.83279       0.0141661       0.0157608 
        3.84853       0.0140218       0.0155919 
        3.86424       0.0138944       0.0154259 
        3.87992       0.0137552       0.0152624 
        3.89561       0.0136408       0.0151013 
        3.91134        0.013543       0.0149422 
        3.92704        0.013386       0.0147855 
        3.94273       0.0132753       0.0146312 
        3.95845       0.0131223       0.0144788 
        3.97418       0.0130543       0.0143286 
        3.98988       0.0128862       0.0141806 
        4.00554       0.0127378       0.0140351 
        4.02125       0.0125866       0.0138912 
        4.03698       0.0124166       0.0137491 
        4.05268       0.0122408       0.0136092 
        4.06839       0.0120668       0.0134712 
         4.0841        0.011884       0.0133351 
        4.09983       0.0116943       0.0132007 
        4.11555       0.0115622       0.0130682 
        4.13124       0.0114028       0.0129379 
        4.14693       0.0112163       0.0128092 
        4.16266       0.0110578       0.0126819 
        4.17839       0.0109516       0.0125564 
        4.19408       0.0108108       0.0124329 
        4.20977       0.0106677       0.0123109 
        4.22551        0.010532       0.0121903 
        4.24123       0.0103735       0.0120714 
        4.25691       0.0102912       0.0119545 
        4.27259       0.0101634        0.011839 
        4.28831       0.0100909       0.0117247 
        4.30404      0.00997376       0.0116119 
        4.31974      0.00986963       0.0115008 
        4.33543      0.00979618       0.0113912 
        4.35116      0.00970946       0.0112827 
        4.36688      0.00962091       0.0111757 
        4.38255      0.00955018       0.0110704 
        4.39825      0.00949471       0.0109663 
        4.41398      0.00944059       0.0108632 
         4.4297      0.00939163       0.0107616 
        4.44541       0.0093309       0.0106613 
        4.46111      0.00927028       0.0105624 
        4.47683      0.00923945       0.0104646 
        4.49251      0.00918448       0.0103682 
        4.50819      0.00914502       0.0102731 
         4.5239      0.00909609        0.010179 
        4.53962      0.00909015       0.0100859 
        4.55535      0.00910197      0.00999399 
        4.57106      0.00909398      0.00990332 
        4.58678       0.0090408      0.00981373 
         4.6025      0.00906982      0.00972522 
        4.61821      0.00906793      0.00963781 
        4.63391      0.00905621      0.00955158 
         4.6496      0.00905896      0.00946642 
        4.66532      0.00908894      0.00938216 
        4.68103      0.00911786      0.00929895 
        4.69673      0.00911686      0.00921681 
        4.71241      0.00916999      0.00913574 
        4.72811      0.00916854       0.0090555 
        4.74384      0.00921876      0.00897612 
        4.75955      0.00929016      0.00889779 
        4.77525      0.00932247      0.00882043 
        4.79096      0.00936282      0.00874389 
        4.80669      0.00939969      0.00866821 
         4.8224      0.00949205       0.0085935 
        4.83809      0.00955629      0.00851974 
        4.85379      0.00964333       0.0084468 
         4.8695      0.00969014      0.00837464 
        4.88521      0.00976543      0.00830334 
        4.90093      0.00989857      0.00823285 
        4.91663       0.0100214      0.00816324 
        4.93234       0.0100483      0.00809435 
        4.94807       0.0101405       0.0080262 
        4.96377        0.010259      0.00795895 
        4.97943       0.0103928      0.00789261 
        4.99514       0.0104821      0.00782684 
        5.01086       0.0105742      0.00776177 
        5.02654       0.0107465      0.00769759 
        5.04227       0.0109252      0.00763394 
          5.058       0.0110462      0.00757098 
        5.07371       0.0111448      0.00750884 
        5.08942        0.011376      0.00744738 
        5.10513       0.0114953      0.00738659 
        5.12084       0.0116652      0.00732645 
        5.13656       0.0118562      0.00726698 
        5.15225        0.012027      0.00720827 
        5.16796       0.0122404       0.0071501 
        5.18369       0.0123763      0.00709251 
         5.1994       0.0126057      0.00703566 
        5.21509       0.0127679      0.00697947 
        5.23079       0.0129764      0.00692383 
        5.24649       0.0132138      0.00686882 
        5.26217       0.0134876      0.00681445 
        5.27788       0.0136813      0.00676058 
        5.29359       0.0139604      0.00670728 
        5.30933       0.0141579      0.00665447 
        5.32504       0.0144029      0.00660231 
        5.34073         0.01479      0.00655077 
        5.35646        0.015032      0.00649966 
        5.37218       0.0152659      0.00644908 
        5.38789       0.0156263      0.00639912 
        5.40357       0.0159028      0.00634974 
        5.41929       0.0161696      0.00630076 
        5.43502       0.0165608      0.00625229 
         5.4507       0.0168485      0.00620444 
        5.46639       0.0172166      0.00615707 
        5.48212       0.0175117      0.00611009 
        5.49786       0.0178835      0.00606353 
        5.51353        0.018365      0.00601769 
        5.52921       0.0187392      0.00597227 
        5.54495       0.0192031      0.00592718 
        5.56066       0.0195515      0.00588259 
        5.57637       0.0199727      0.00583847 
        5.59207       0.0204181      0.00579484 
        5.60778       0.0208627      0.00575163 
        5.62346       0.0213283      0.00570891 
        5.63916       0.0217937      0.00566658 
        5.65487       0.0223272      0.00562466 
         5.6706       0.0227005      0.00558311 
        5.68633       0.0234092      0.00554195 
        5.70203       0.0239305       0.0055013 
        5.71773       0.0244525      0.00546105 
        5.73344       0.0249949      0.00542118 
        5.74916       0.0257027      0.00538166 
        5.76486       0.0263183      0.00534259 
        5.78054       0.0268767      0.00530397 
        5.79626       0.0275371      0.00526561 
          5.812       0.0283192      0.00522759 
         5.8277       0.0290541      0.00519005 
        5.84339       0.0295146      0.00515288 
        5.85911       0.0303356        0.005116 
        5.87484       0.0311654      0.00507948 
        5.89053       0.0319935      0.00504338 
        5.90623       0.0327538      0.00500762 
        5.92195       0.0336646      0.00497213 
        5.93767       0.0345493      0.00493701 
        5.95336       0.0353219      0.00490228 
        5.96905       0.0365039      0.00486789 
        5.98476       0.0370481      0.00483378 
        6.00048       0.0380173      0.00479998 
        6.01617        0.039057      0.00476655 
        6.03185       0.0401217      0.00473347 
        6.04756       0.0412499      0.00470063 
        6.06331       0.0425477      0.00466802 
        6.07903       0.0435305      0.00463579 
        6.09473        0.044689      0.00460389 
        6.11044       0.0462398      0.00457225 
        6.12616       0.0473647      0.00454092 
        6.14186       0.0485448      0.00450991 
        6.15755       0.0498875      0.00447918 
        6.17326       0.0510947      0.00444872 
        6.18898       0.0526072      0.00441852 
        6.20467       0.0543463      0.00438865 
        6.22036       0.0556178      0.00435906 
         6.2361       0.0570535      0.00432965 
         6.2518       0.0591275      0.00430057 
        6.26748       0.0602866      0.00427181 
        6.28319        0.062635      0.00424323 
        6.29893       0.0643745      0.00421489 
        6.31463        0.065972      0.00418685 
        6.33033       0.0680245      0.00415907 
        6.34604       0.0698478      0.00413153 
        6.36177       0.0718353       0.0041042 
        6.37747       0.0745075      0.00407717 
