# k  (h/Mpc)    Pcb(k)  (Mpc/h)^3    Pcb_linear(k) (Mpc/h)^3   ShotnoiseSubtracted = true
      0.0200456         15573.3         15834.5 
      0.0350414         9877.13         10175.7 
      0.0492313         6907.21         6945.64 
      0.0637834         5788.12         5623.82 
      0.0800726         4396.56         4259.51 
       0.096163         2924.52         2938.32 
       0.111083         2315.15         2319.67 
       0.126058         2119.07         2050.54 
       0.142273         1794.26         1676.42 
       0.158546         1481.48         1282.89 
        0.17375         1178.65         1084.16 
       0.188953         1139.42         980.698 
       0.204907          1052.1         845.443 
       0.220756         886.806         699.826 
        0.23588         781.468         610.031 
         0.2514         676.519         554.341 
       0.267535         655.747         492.883 
       0.283568         589.647         427.689 
       0.299022         550.598         380.611 
       0.314451         516.816         347.804 
       0.330372         473.545         315.583 
       0.346141         427.975         283.063 
       0.361624         412.666         256.373 
       0.377134         379.782         235.573 
       0.392932         359.729         216.516 
       0.408854         344.961          197.89 
       0.424564         323.768         181.585 
       0.440253         314.953         167.931 
       0.455999         294.658         155.735 
       0.471626         277.671         144.365 
        0.48727         265.496         133.985 
       0.502856         256.744         124.888 
       0.518488         253.426         116.689 
       0.534347         237.207         109.008 
       0.550082          223.76         101.983 
       0.565732         219.665         95.6661 
       0.581496          206.87         89.8765 
       0.597222         202.229         84.5563 
       0.612804         195.828          79.672 
       0.628434         187.439         75.1672 
       0.644267         181.468         70.9724 
       0.660051          178.55         67.1062 
       0.675724         174.081         63.5468 
       0.691403         168.851         60.2402 
       0.707174         162.438         57.1481 
       0.722871         159.691         54.2831 
        0.73838         156.316         51.6431 
       0.754018         152.465         49.1571 
       0.769845         146.963         46.8063 
        0.78569         145.382         44.6056 
       0.801365         139.742         42.5669 
       0.817031         135.576          40.656 
       0.832809         134.236         38.8495 
       0.848511         129.638           37.16 
       0.864097         128.116         35.5819 
       0.879701         125.121         34.0932 
       0.895507         121.679         32.6716 
       0.911279          118.32         31.3334 
        0.92691          117.92         30.0806 
       0.942635         114.186          28.889 
       0.958396         113.874         27.7589 
       0.974128         110.745         26.6908 
       0.989692          108.32          25.689 
        1.00528         106.274         24.7368 
        1.02113         105.073         23.8177 
        1.03692         101.996         22.9483 
        1.05264         100.152         22.1259 
        1.06832         98.1447         21.3448 
        1.08405         96.6457         20.5991 
        1.09979         95.9752         19.8884 
        1.11537         93.2321         19.2179 
        1.13105         92.2177         18.5741 
        1.14679         91.3408         17.9572 
        1.16256         89.9924         17.3668 
        1.17828         88.1855         16.8048 
        1.19395         86.3353         16.2693 
         1.2097         85.0648         15.7542 
        1.22537         84.2956         15.2638 
          1.241         82.7346         14.7956 
        1.25666          81.168         14.3457 
        1.27241         79.7333         13.9122 
        1.28819         78.8262         13.4958 
        1.30392         77.0488         13.0975 
        1.31957         76.6138          12.717 
        1.33529         74.7305           12.35 
        1.35108          74.024          11.996 
        1.36674           73.43         11.6582 
         1.3824         71.8465         11.3337 
        1.39811         70.8682         11.0203 
        1.41389         69.9962         10.7175 
        1.42964         68.4732         10.4265 
        1.44531         67.3865         10.1476 
        1.46101         66.3691         9.87824 
        1.47667         66.3757         9.61938 
        1.49229         65.1112         9.37041 
        1.50793         64.4928          9.1299 
        1.52367         63.2941         8.89621 
        1.53953         62.3221         8.66907 
        1.55526         61.9049          8.4516 
        1.57092         61.4387         8.24243 
        1.58662           59.77         8.03977 
        1.60235         59.6547         7.84348 
        1.61809         58.6975         7.65359 
        1.63369         58.0547         7.47161 
        1.64941         57.6734         7.29421 
        1.66519         56.0297         7.12187 
        1.68085         55.9862         6.95627 
        1.69652         54.6926         6.79585 
        1.71228         54.4383         6.63953 
        1.72806         53.9815         6.48796 
        1.74368         53.1281          6.3426 
        1.75933         52.2152         6.20136 
        1.77505         51.9878         6.06373 
        1.79081         51.1135         5.92999 
         1.8065          50.383         5.80083 
        1.82218         49.8776         5.67559 
        1.83797         49.2799         5.55315 
        1.85367         48.9652         5.43497 
        1.86928         48.2201         5.32091 
        1.88497         47.6711         5.20947 
        1.90073         46.9444         5.10078 
        1.91647         46.7398         4.99527 
        1.93218         46.1753         4.89293 
        1.94787         45.5126         4.79358 
        1.96363         44.9663         4.69658 
        1.97935         44.6097         4.60243 
        1.99499         44.0305         4.51137 
        2.01064         43.5468         4.42262 
         2.0264         42.6825         4.33568 
        2.04216         42.5414          4.2511 
        2.05781         41.9961         4.16928 
        2.07353         41.2668         4.08931 
        2.08928         41.0715         4.01124 
        2.10499         40.4436          3.9354 
        2.12065         40.0976         3.86173 
        2.13633         39.6957         3.78986 
        2.15211         39.4484         3.71934 
        2.16785         38.9603          3.6508 
        2.18349         38.6153         3.58439 
        2.19916         37.9771         3.51949 
        2.21489          37.727         3.45596 
        2.23063         37.3561         3.39394 
         2.2463         36.8104          3.3337 
        2.26194         36.2617         3.27506 
        2.27765         36.2245         3.21752 
        2.29341         35.6236          3.1612 
        2.30914         35.1362         3.10633 
        2.32486         34.5508         3.05279 
        2.34061         34.4947          3.0004 
        2.35635          33.884         2.94927 
        2.37203         33.6783         2.89951 
        2.38768         33.2775         2.85098 
        2.40339         32.9758         2.80338 
        2.41914         32.6001         2.75674 
        2.43483         32.3613         2.71132 
         2.4505         32.0837         2.66698 
        2.46622         31.6015         2.62348 
        2.48195         31.3124         2.58093 
        2.49759         30.9129         2.53955 
        2.51328          30.615         2.49896 
        2.52906         30.2823         2.45898 
        2.54479         29.9712         2.42003 
        2.56049         29.5506         2.38198 
        2.57618           29.37         2.34478 
        2.59189         28.9534          2.3083 
        2.60758         28.8542         2.27266 
        2.62325         28.4197          2.2378 
        2.63898         28.1437         2.20354 
        2.65468         27.6833         2.17007 
        2.67044         27.4872         2.13714 
        2.68618         27.2621         2.10496 
        2.70184         26.9898         2.07357 
        2.71755         26.7507         2.04273 
        2.73329          26.494         2.01247 
        2.74897         26.1319         1.98291 
        2.76462         25.8609         1.95401 
        2.78034         25.7285         1.92555 
        2.79607          25.421         1.89763 
        2.81179         25.1767         1.87029 
        2.82749         24.8207         1.84351 
        2.84321         24.6504         1.81722 
        2.85893         24.4386         1.79144 
        2.87462         24.1465         1.76621 
        2.89033         23.8604         1.74143 
        2.90605         23.7256          1.7171 
        2.92176         23.4952         1.69324 
        2.93747         23.2733         1.66985 
        2.95318         22.9974         1.64689 
        2.96891         22.7882         1.62434 
        2.98456         22.5718         1.60231 
        3.00023         22.2616         1.58066 
        3.01596         22.0698         1.55933 
        3.03164         21.9449         1.53845 
        3.04738         21.6932         1.51789 
         3.0631         21.4339         1.49771 
        3.07883         21.2793         1.47789 
        3.09456         21.0601         1.45843 
        3.11026         20.8903         1.43935 
        3.12596         20.6891          1.4206 
        3.14163         20.4933         1.40223 
        3.15734         20.3073         1.38414 
        3.17308         20.0436         1.36632 
        3.18879         19.9321         1.34886 
        3.20447         19.7342         1.33173 
         3.2202          19.496         1.31484 
         3.2359         19.3239         1.29827 
        3.25157         19.1259         1.28202 
        3.26729          19.029         1.26599 
        3.28304         18.7729         1.25021 
        3.29877         18.6181         1.23471 
        3.31446          18.367         1.21951 
        3.33014         18.2282         1.20458 
        3.34585         18.0897         1.18986 
        3.36158         17.8861         1.17537 
        3.37727         17.7307         1.16117 
        3.39294         17.6001         1.14721 
        3.40867         17.4308         1.13342 
        3.42439         17.2553         1.11987 
        3.44008         17.1601         1.10656 
        3.45578         16.8922         1.09346 
        3.47153         16.7623         1.08054 
        3.48724         16.6128         1.06785 
        3.50292         16.5535         1.05538 
        3.51859         16.3144         1.04313 
        3.53431         16.1855         1.03102 
        3.55007         15.9972         1.01908 
        3.56577         15.8679         1.00737 
        3.58146         15.7224        0.995849 
        3.59719         15.5595        0.984478 
        3.61292         15.4562        0.973288 
        3.62859         15.2941        0.962311 
        3.64429         15.1552        0.951481 
        3.66003         15.0255        0.940783 
        3.67578         14.9331        0.930252 
        3.69146         14.8061         0.91992 
        3.70712         14.6134        0.909762 
        3.72284         14.4869        0.899717 
        3.73853         14.3884        0.889841 
        3.75422         14.2882        0.880107 
        3.76993         14.1083        0.870509 
        3.78564         13.9675        0.861057 
        3.80137         13.8804        0.851728 
        3.81707         13.7671        0.842556 
        3.83279         13.6029        0.833509 
        3.84853         13.4684        0.824579 
        3.86424         13.3576        0.815797 
        3.87992         13.2485        0.807154 
        3.89561         13.1105        0.798634 
        3.91134         13.0535        0.790219 
        3.92704         12.8861        0.781933 
        3.94273         12.8142        0.773773 
        3.95845         12.6772        0.765713 
        3.97418         12.6007        0.757766 
        3.98988         12.4858         0.74994 
        4.00554         12.3563        0.742245 
        4.02125         12.2627        0.734635 
        4.03698           12.16        0.727119 
        4.05268         12.0329        0.719724 
        4.06839         11.9189        0.712425 
         4.0841          11.848        0.705229 
        4.09983         11.7452        0.698121 
        4.11555         11.6356        0.691112 
        4.13124         11.5504        0.684218 
        4.14693          11.449        0.677412 
        4.16266         11.3452        0.670681 
        4.17839         11.2676        0.664044 
        4.19408         11.1608        0.657512 
        4.20977         11.0641        0.651063 
        4.22551         10.9395        0.644685 
        4.24123         10.8716        0.638398 
        4.25691         10.7637        0.632211 
        4.27259         10.7142        0.626103 
        4.28831         10.5922        0.620063 
        4.30404         10.5127        0.614095 
        4.31974         10.4309        0.608219 
        4.33543         10.3337        0.602422 
        4.35116         10.2324        0.596685 
        4.36688         10.1879        0.591025 
        4.38255         10.0855        0.585459 
        4.39825          10.016        0.579951 
        4.41398         9.90324        0.574502 
         4.4297         9.83052        0.569129 
        4.44541         9.75545        0.563824 
        4.46111         9.67689        0.558591 
        4.47683         9.57158        0.553419 
        4.49251         9.51818        0.548323 
        4.50819         9.45299        0.543291 
         4.5239         9.35631        0.538315 
        4.53962         9.27722        0.533394 
        4.55535         9.21765        0.528532 
        4.57106         9.15317        0.523736 
        4.58678         9.05623        0.518999 
         4.6025         8.99605        0.514318 
        4.61821         8.92795        0.509695 
        4.63391         8.85012        0.505135 
         4.6496         8.79649        0.500631 
        4.66532          8.7112        0.496175 
        4.68103         8.63152        0.491774 
        4.69673         8.59417        0.487431 
        4.71241         8.49806        0.483143 
        4.72811         8.43332          0.4789 
        4.74384         8.38013        0.474702 
        4.75955         8.29257        0.470559 
        4.77525         8.23195        0.466468 
        4.79096         8.17521         0.46242 
        4.80669         8.10873        0.458418 
         4.8224         8.05858        0.454467 
        4.83809         7.99117        0.450566 
        4.85379         7.91248        0.446709 
         4.8695         7.88341        0.442892 
        4.88521         7.81352        0.439122 
        4.90093         7.74388        0.435394 
        4.91663         7.69252        0.431713 
        4.93234         7.63062        0.428069 
        4.94807          7.5714        0.424465 
        4.96377         7.50704        0.420909 
        4.97943         7.47961          0.4174 
        4.99514         7.40524        0.413922 
        5.01086         7.34582        0.410481 
        5.02654         7.28824        0.407087 
        5.04227          7.2433        0.403721 
          5.058          7.1871        0.400391 
        5.07371         7.13671        0.397105 
        5.08942         7.07043        0.393854 
        5.10513         7.02982         0.39064 
        5.12084         6.96757        0.387459 
        5.13656          6.9235        0.384314 
        5.15225         6.86081        0.381209 
        5.16796         6.81249        0.378133 
        5.18369          6.7572        0.375087 
         5.1994         6.73056        0.372081 
        5.21509         6.67566        0.369109 
        5.23079         6.61857        0.366166 
        5.24649           6.557        0.363258 
        5.26217         6.50915        0.360382 
        5.27788         6.47203        0.357533 
        5.29359         6.42422        0.354714 
        5.30933         6.37413        0.351922 
        5.32504         6.33054        0.349163 
        5.34073          6.2817        0.346437 
        5.35646         6.22159        0.343734 
        5.37218         6.19946        0.341059 
        5.38789         6.13927        0.338417 
        5.40357         6.11139        0.335806 
        5.41929         6.06385        0.333215 
        5.43502          6.0221        0.330652 
         5.4507         5.98528        0.328121 
        5.46639         5.93321        0.325617 
        5.48212         5.88023        0.323132 
        5.49786         5.85443         0.32067 
        5.51353         5.80431        0.318245 
        5.52921         5.77705        0.315843 
        5.54495         5.74027        0.313458 
        5.56066         5.68505        0.311101 
        5.57637         5.65033        0.308767 
        5.59207         5.61404         0.30646 
        5.60778         5.58097        0.304175 
        5.62346         5.53997        0.301916 
        5.63916          5.4811        0.299677 
        5.65487         5.46048         0.29746 
         5.6706         5.41836        0.295262 
        5.68633          5.3909        0.293086 
        5.70203         5.34382        0.290936 
        5.71773         5.30494        0.288807 
        5.73344          5.2798        0.286699 
        5.74916          5.2388        0.284609 
        5.76486         5.20097        0.282543 
        5.78054         5.17708          0.2805 
        5.79626         5.13707        0.278472 
          5.812         5.10785        0.276461 
         5.8277         5.06764        0.274476 
        5.84339         5.03323         0.27251 
        5.85911         4.99913        0.270559 
        5.87484         4.96806        0.268628 
        5.89053         4.92674        0.266719 
        5.90623         4.89308        0.264828 
        5.92195         4.86295        0.262951 
        5.93767         4.83523        0.261093 
        5.95336         4.79559        0.259257 
        5.96905         4.75576        0.257438 
        5.98476         4.74288        0.255634 
        6.00048         4.71482        0.253847 
        6.01617         4.68084        0.252079 
        6.03185         4.65095         0.25033 
        6.04756         4.62012        0.248593 
        6.06331         4.59108        0.246868 
        6.07903         4.55903        0.245164 
        6.09473         4.52441        0.243476 
        6.11044         4.50014        0.241803 
        6.12616         4.46504        0.240146 
        6.14186         4.44298        0.238506 
        6.15755         4.41277        0.236881 
        6.17326         4.38114         0.23527 
        6.18898         4.35431        0.233673 
        6.20467         4.33134        0.232094 
        6.22036         4.30258        0.230529 
         6.2361         4.27409        0.228974 
         6.2518         4.24874        0.227435 
        6.26748         4.21953        0.225915 
        6.28319         4.19609        0.224403 
        6.29893         4.16865        0.222904 
        6.31463         4.13136        0.221422 
        6.33033         4.12175        0.219953 
        6.34604         4.08919        0.218496 
        6.36177         4.07125         0.21705 
        6.37747         4.04611        0.215621 
