# k  (h/Mpc)    Pcb(k)  (Mpc/h)^3    Pcb_linear(k) (Mpc/h)^3   ShotnoiseSubtracted = true
      0.0200456         661.986         669.544 
      0.0350414         430.852         430.266 
      0.0492313         295.226         293.688 
      0.0637834         239.244         237.796 
      0.0800726         181.335         180.108 
       0.096163         124.438         124.244 
       0.111083         97.8165         98.0843 
       0.126058         86.8446         86.7047 
       0.142273         71.4704         70.8856 
       0.158546         55.0176         54.2456 
        0.17375         45.8074         45.8423 
       0.188953         41.6676         41.4676 
       0.204907         36.7038         35.7485 
       0.220756         30.1137         29.5913 
        0.23588         26.1904         25.7944 
         0.2514         23.5785         23.4397 
       0.267535         21.0853          20.841 
       0.283568          18.395         18.0843 
       0.299022         16.4611         16.0937 
       0.314451         14.7676         14.7065 
       0.330372          13.522          13.344 
       0.346141         12.1473          11.969 
       0.361624         11.0596         10.8404 
       0.377134         10.2369         9.96094 
       0.392932          9.1445         9.15512 
       0.408854          8.5908         8.36756 
       0.424564         7.84877         7.67812 
       0.440253         7.25065         7.10077 
       0.455999         6.76551         6.58508 
       0.471626          6.3114         6.10431 
        0.48727         5.83406         5.66541 
       0.502856         5.41054         5.28075 
       0.518488         5.12857         4.93403 
       0.534347          4.8483         4.60927 
       0.550082         4.42701         4.31222 
       0.565732         4.08209         4.04513 
       0.581496         3.93932         3.80032 
       0.597222         3.73173         3.57536 
       0.612804         3.47995         3.36883 
       0.628434         3.32925         3.17836 
       0.644267         3.13561         3.00098 
       0.660051         2.94502         2.83751 
       0.675724         2.79575           2.687 
       0.691403         2.67484         2.54718 
       0.707174         2.52213         2.41644 
       0.722871         2.39244          2.2953 
        0.73838         2.28913         2.18367 
       0.754018         2.20494         2.07855 
       0.769845          2.0807         1.97915 
        0.78569         1.99031          1.8861 
       0.801365         1.89282         1.79989 
       0.817031         1.81719         1.71909 
       0.832809         1.73788          1.6427 
       0.848511         1.64784         1.57127 
       0.864097         1.57229         1.50454 
       0.879701         1.51086         1.44159 
       0.895507         1.45001         1.38148 
       0.911279         1.40957          1.3249 
        0.92691         1.34777         1.27192 
       0.942635         1.28985         1.22154 
       0.958396         1.23558         1.17375 
       0.974128         1.19079         1.12859 
       0.989692          1.1559         1.08623 
        1.00528         1.10521         1.04597 
        1.02113         1.05842          1.0071 
        1.03692         1.03231        0.970339 
        1.05264        0.992161        0.935567 
        1.06832        0.961819        0.902541 
        1.08405        0.914669         0.87101 
        1.09979        0.889275        0.840956 
        1.11537        0.863332        0.812606 
        1.13105        0.836584        0.785386 
        1.14679        0.812183        0.759298 
        1.16256        0.776882        0.734336 
        1.17828        0.754433         0.71057 
        1.19395        0.730549        0.687927 
         1.2097        0.698722        0.666149 
        1.22537        0.684973        0.645412 
          1.241        0.664935        0.625613 
        1.25666        0.653259         0.60659 
        1.27241        0.621768        0.588262 
        1.28819        0.604899        0.570655 
        1.30392        0.590678        0.553814 
        1.31957        0.574196        0.537722 
        1.33529        0.554717        0.522205 
        1.35108        0.538276        0.507235 
        1.36674        0.518496        0.492954 
         1.3824        0.510249        0.479231 
        1.39811        0.494166         0.46598 
        1.41389        0.482805        0.453176 
        1.42964        0.470269        0.440871 
        1.44531        0.454119        0.429079 
        1.46101        0.444692         0.41769 
        1.47667        0.427198        0.406744 
        1.49229         0.42246        0.396217 
        1.50793        0.408053        0.386047 
        1.52367        0.399349        0.376166 
        1.53953        0.387051        0.366561 
        1.55526        0.378276        0.357366 
        1.57092        0.367635        0.348521 
        1.58662        0.360637        0.339952 
        1.60235        0.351251        0.331652 
        1.61809        0.339672        0.323623 
        1.63369        0.337641        0.315928 
        1.64941         0.32561        0.308427 
        1.66519         0.31747         0.30114 
        1.68085        0.308865        0.294138 
        1.69652        0.302133        0.287354 
        1.71228        0.296725        0.280745 
        1.72806        0.287064        0.274336 
        1.74368        0.283755        0.268189 
        1.75933         0.27565        0.262217 
        1.77505        0.269462        0.256398 
        1.79081        0.264173        0.250743 
         1.8065         0.25585        0.245281 
        1.82218        0.251884        0.239985 
        1.83797        0.245709        0.234808 
        1.85367        0.242894        0.229811 
        1.86928         0.23616        0.224988 
        1.88497        0.230765        0.220276 
        1.90073        0.225304        0.215681 
        1.91647        0.221593        0.211219 
        1.93218        0.215825        0.206892 
        1.94787        0.211726        0.202691 
        1.96363        0.206988        0.198589 
        1.97935        0.202565        0.194608 
        1.99499        0.198614        0.190758 
        2.01064        0.194461        0.187005 
         2.0264        0.189707        0.183329 
        2.04216         0.18747        0.179753 
        2.05781        0.183388        0.176293 
        2.07353        0.178328        0.172912 
        2.08928        0.174588        0.169611 
        2.10499        0.172402        0.166404 
        2.12065         0.16933        0.163289 
        2.13633         0.16594         0.16025 
        2.15211         0.16279        0.157268 
        2.16785         0.15896         0.15437 
        2.18349        0.155632        0.151562 
        2.19916        0.153465        0.148817 
        2.21489        0.150208        0.146131 
        2.23063        0.147879        0.143509 
         2.2463         0.14486        0.140962 
        2.26194        0.141169        0.138482 
        2.27765        0.139102        0.136049 
        2.29341        0.136891        0.133668 
        2.30914        0.134488        0.131348 
        2.32486        0.131913        0.129083 
        2.34061        0.129529        0.126868 
        2.35635        0.126527        0.124707 
        2.37203        0.124551        0.122602 
        2.38768        0.122278         0.12055 
        2.40339        0.120741        0.118537 
        2.41914        0.118651        0.116565 
        2.43483        0.116482        0.114645 
         2.4505        0.113597         0.11277 
        2.46622        0.111992        0.110931 
        2.48195         0.11024        0.109132 
        2.49759         0.10859        0.107382 
        2.51328        0.106463        0.105665 
        2.52906         0.10494        0.103975 
        2.54479        0.102791        0.102328 
        2.56049        0.100852        0.100719 
        2.57618       0.0992898       0.0991461 
        2.59189         0.09802       0.0976039 
        2.60758        0.096658       0.0960966 
        2.62325        0.094638       0.0946226 
        2.63898       0.0931588       0.0931742 
        2.65468       0.0912682       0.0917587 
        2.67044       0.0902107       0.0903664 
        2.68618         0.08865       0.0890058 
        2.70184       0.0871787       0.0876784 
        2.71755       0.0855507       0.0863745 
        2.73329       0.0844481       0.0850948 
        2.74897       0.0833308        0.083845 
        2.76462       0.0818359       0.0826228 
        2.78034       0.0806531       0.0814196 
        2.79607       0.0791397       0.0802389 
        2.81179       0.0784234       0.0790828 
        2.82749       0.0768221       0.0779505 
        2.84321       0.0757648       0.0768388 
        2.85893       0.0748096        0.075749 
        2.87462       0.0735833       0.0746819 
        2.89033       0.0725135       0.0736342 
        2.90605        0.071142       0.0726055 
        2.92176        0.070428       0.0715968 
        2.93747       0.0691172       0.0706076 
        2.95318       0.0682889       0.0696366 
        2.96891       0.0672513       0.0686833 
        2.98456       0.0661834       0.0677518 
        3.00023       0.0654618       0.0668361 
        3.01596        0.064363       0.0659343 
        3.03164       0.0637684       0.0650516 
        3.04738        0.062457       0.0641822 
         3.0631       0.0617889       0.0633289 
        3.07883       0.0608437       0.0624909 
        3.09456       0.0600586       0.0616681 
        3.11026        0.059208       0.0608611 
        3.12596       0.0583423       0.0600686 
        3.14163       0.0575801       0.0592918 
        3.15734        0.057068       0.0585268 
        3.17308       0.0562835       0.0577733 
        3.18879       0.0555147       0.0570351 
        3.20447       0.0545598       0.0563106 
         3.2202       0.0541972       0.0555964 
         3.2359        0.053393       0.0548957 
        3.25157       0.0526136       0.0542086 
        3.26729       0.0517637       0.0535311 
        3.28304       0.0514429       0.0528637 
        3.29877       0.0506596       0.0522084 
        3.31446        0.050008       0.0515656 
        3.33014       0.0495362        0.050934 
        3.34585       0.0491497       0.0503119 
        3.36158       0.0484733       0.0496992 
        3.37727       0.0479168       0.0490985 
        3.39294       0.0471675       0.0485082 
        3.40867       0.0466212       0.0479254 
        3.42439       0.0461841       0.0473523 
        3.44008       0.0454116       0.0467897 
        3.45578       0.0451179       0.0462356 
        3.47153        0.044494       0.0456893 
        3.48724       0.0440929       0.0451526 
        3.50292       0.0436219       0.0446257 
        3.51859       0.0431239       0.0441074 
        3.53431       0.0425687       0.0435956 
        3.55007       0.0422846       0.0430906 
        3.56577       0.0417295       0.0425955 
        3.58146       0.0414074       0.0421083 
        3.59719       0.0409244       0.0416275 
        3.61292       0.0405711       0.0411543 
        3.62859       0.0401331       0.0406902 
        3.64429       0.0396591       0.0402323 
        3.66003       0.0394074       0.0397799 
        3.67578       0.0388824       0.0393346 
        3.69146       0.0384559       0.0388977 
        3.70712       0.0382399       0.0384682 
        3.72284       0.0379071       0.0380435 
        3.73853       0.0375132       0.0376259 
        3.75422       0.0372354       0.0372143 
        3.76993       0.0367399       0.0368085 
        3.78564       0.0364424       0.0364088 
        3.80137       0.0361433       0.0360143 
        3.81707       0.0358069       0.0356265 
        3.83279       0.0355996       0.0352439 
        3.84853       0.0352495       0.0348664 
        3.86424       0.0349428        0.034495 
        3.87992       0.0345551       0.0341295 
        3.89561       0.0342251       0.0337693 
        3.91134       0.0340578       0.0334135 
        3.92704       0.0336437       0.0330631 
        3.94273       0.0333062       0.0327181 
        3.95845       0.0330018       0.0323773 
        3.97418       0.0329147       0.0320412 
        3.98988       0.0323719       0.0317103 
        4.00554       0.0321796        0.031385 
        4.02125       0.0317739       0.0310632 
        4.03698       0.0312931       0.0307454 
        4.05268       0.0308634       0.0304327 
        4.06839       0.0305306        0.030124 
         4.0841       0.0300249       0.0298198 
        4.09983       0.0296457       0.0295192 
        4.11555       0.0291792       0.0292229 
        4.13124       0.0287605       0.0289314 
        4.14693       0.0284382       0.0286435 
        4.16266       0.0281145       0.0283589 
        4.17839       0.0277516       0.0280783 
        4.19408       0.0274029       0.0278021 
        4.20977       0.0270833       0.0275294 
        4.22551       0.0267738       0.0272597 
        4.24123       0.0264105       0.0269939 
        4.25691        0.026129       0.0267323 
        4.27259        0.025839        0.026474 
        4.28831       0.0256233       0.0262186 
        4.30404       0.0254275       0.0259663 
        4.31974       0.0251569       0.0257178 
        4.33543       0.0249682       0.0254727 
        4.35116       0.0247739       0.0252301 
        4.36688       0.0245272       0.0249908 
        4.38255       0.0243243       0.0247554 
        4.39825       0.0241987       0.0245225 
        4.41398       0.0240514       0.0242921 
         4.4297       0.0239014       0.0240649 
        4.44541       0.0237307       0.0238406 
        4.46111       0.0236568       0.0236193 
        4.47683         0.02347       0.0234007 
        4.49251       0.0234262       0.0231852 
        4.50819       0.0232625       0.0229724 
         4.5239       0.0232046        0.022762 
        4.53962       0.0231574       0.0225539 
        4.55535        0.023079       0.0223483 
        4.57106       0.0230272       0.0221456 
        4.58678       0.0229611       0.0219452 
         4.6025       0.0230081       0.0217473 
        4.61821       0.0230282       0.0215519 
        4.63391       0.0230002        0.021359 
         4.6496        0.022983       0.0211686 
        4.66532       0.0229705       0.0209802 
        4.68103       0.0230041       0.0207941 
        4.69673       0.0230308       0.0206104 
        4.71241       0.0230841       0.0204291 
        4.72811       0.0231527       0.0202497 
        4.74384       0.0232224       0.0200722 
        4.75955        0.023344        0.019897 
        4.77525       0.0234572       0.0197241 
        4.79096       0.0234895       0.0195529 
        4.80669       0.0235557       0.0193837 
         4.8224       0.0238489       0.0192166 
        4.83809       0.0239079       0.0190517 
        4.85379       0.0239689       0.0188885 
         4.8695       0.0242172       0.0187272 
        4.88521       0.0243304       0.0185677 
        4.90093       0.0245594       0.0184101 
        4.91663       0.0246745       0.0182545 
        4.93234       0.0248205       0.0181004 
        4.94807       0.0251234        0.017948 
        4.96377       0.0253957       0.0177976 
        4.97943       0.0256981       0.0176493 
        4.99514        0.025792       0.0175022 
        5.01086       0.0261218       0.0173567 
        5.02654       0.0264284       0.0172132 
        5.04227       0.0266215       0.0170708 
          5.058       0.0270333         0.01693 
        5.07371       0.0273702       0.0167911 
        5.08942       0.0276048       0.0166537 
        5.10513       0.0279583       0.0165177 
        5.12084       0.0283497       0.0163832 
        5.13656       0.0286857       0.0162503 
        5.15225       0.0291053        0.016119 
        5.16796       0.0296403       0.0159889 
        5.18369        0.029944       0.0158601 
         5.1994       0.0304296        0.015733 
        5.21509       0.0307559       0.0156073 
        5.23079       0.0312159       0.0154829 
        5.24649       0.0316975       0.0153599 
        5.26217       0.0324077       0.0152383 
        5.27788        0.032913       0.0151179 
        5.29359       0.0334551       0.0149987 
        5.30933       0.0339946       0.0148806 
        5.32504       0.0344853       0.0147639 
        5.34073       0.0350769       0.0146487 
        5.35646       0.0358607       0.0145344 
        5.37218       0.0364071       0.0144213 
        5.38789       0.0371024       0.0143096 
        5.40357       0.0376518       0.0141991 
        5.41929       0.0385357       0.0140896 
        5.43502       0.0391406       0.0139812 
         5.4507       0.0399078       0.0138742 
        5.46639        0.040893       0.0137683 
        5.48212       0.0414906       0.0136632 
        5.49786        0.042401       0.0135591 
        5.51353       0.0435673       0.0134566 
        5.52921       0.0441761        0.013355 
        5.54495        0.045047       0.0132542 
        5.56066       0.0459673       0.0131545 
        5.57637       0.0470145       0.0130559 
        5.59207       0.0483201       0.0129583 
        5.60778       0.0491489       0.0128617 
        5.62346       0.0503629       0.0127661 
        5.63916       0.0513655       0.0126715 
        5.65487       0.0524036       0.0125777 
         5.6706       0.0534752       0.0124848 
        5.68633       0.0547088       0.0123928 
        5.70203       0.0556303       0.0123019 
        5.71773       0.0575779       0.0122119 
        5.73344       0.0585842       0.0121227 
        5.74916       0.0602517       0.0120344 
        5.76486       0.0614303        0.011947 
        5.78054       0.0626275       0.0118606 
        5.79626       0.0638296       0.0117748 
          5.812       0.0656914       0.0116898 
         5.8277       0.0672446       0.0116059 
        5.84339       0.0687774       0.0115228 
        5.85911       0.0705998       0.0114403 
        5.87484       0.0722568       0.0113586 
        5.89053       0.0742982       0.0112779 
        5.90623       0.0762599       0.0111979 
        5.92195       0.0780156       0.0111186 
        5.93767       0.0800092         0.01104 
        5.95336       0.0818403       0.0109624 
        5.96905       0.0837908       0.0108855 
        5.98476       0.0862629       0.0108092 
        6.00048       0.0879699       0.0107336 
        6.01617       0.0896894       0.0106589 
        6.03185       0.0929198       0.0105849 
        6.04756       0.0951566       0.0105114 
        6.06331       0.0968708       0.0104385 
        6.07903        0.100079       0.0103664 
        6.09473        0.103203       0.0102951 
        6.11044        0.105098       0.0102244 
        6.12616        0.107871       0.0101543 
        6.14186        0.110246       0.0100849 
        6.15755        0.113514       0.0100162 
        6.17326        0.117011      0.00994812 
        6.18898        0.118815      0.00988059 
        6.20467        0.123261       0.0098138 
        6.22036        0.125121      0.00974763 
         6.2361        0.129206      0.00968188 
         6.2518        0.132209      0.00961683 
        6.26748        0.135489      0.00955253 
        6.28319        0.138973      0.00948862 
        6.29893        0.143354      0.00942524 
        6.31463        0.146571      0.00936254 
        6.33033        0.150782      0.00930043 
        6.34604         0.15454      0.00923883 
        6.36177        0.157442      0.00917772 
        6.37747        0.163279      0.00911727 
