# k  (h/Mpc)    Pcb(k)  (Mpc/h)^3    Pcb_linear(k) (Mpc/h)^3   ShotnoiseSubtracted = true
      0.0200456         8953.35         9083.54 
      0.0350414         5724.52         5837.32 
      0.0492313          3982.8          3984.4 
      0.0637834         3302.61         3226.13 
      0.0800726         2508.24         2443.49 
       0.096163         1677.64         1685.58 
       0.111083         1321.18         1330.69 
       0.126058         1204.81          1176.3 
       0.142273         1012.71         961.688 
       0.158546         810.939         735.937 
        0.17375         651.323         621.932 
       0.188953         620.402         562.582 
       0.204907         568.852         484.992 
       0.220756          471.55         401.458 
        0.23588         411.829         349.947 
         0.2514         360.425             318 
       0.267535         340.275         282.744 
       0.283568           304.7         245.346 
       0.299022         280.569         218.339 
       0.314451         257.281         199.519 
       0.330372         236.524         181.036 
       0.346141          210.35          162.38 
       0.361624         200.823          147.07 
       0.377134          186.36         135.138 
       0.392932         170.832         124.205 
       0.408854         162.851         113.521 
       0.424564         154.993         104.167 
       0.440253         146.519         96.3345 
       0.455999         136.651         89.3383 
       0.471626         126.529         82.8157 
        0.48727         121.393         76.8614 
       0.502856         116.299         71.6427 
       0.518488         112.947         66.9389 
       0.534347         107.336         62.5329 
       0.550082         98.9372         58.5029 
       0.565732          94.946         54.8793 
       0.581496         90.9419         51.5581 
       0.597222         87.6205         48.5061 
       0.612804          83.484         45.7042 
       0.628434         81.0381           43.12 
       0.644267         78.0735         40.7136 
       0.660051          76.194         38.4958 
       0.675724          73.209         36.4539 
       0.691403         70.7484         34.5571 
       0.707174         67.9221         32.7833 
       0.722871         66.5146         31.1398 
        0.73838         64.9132         29.6253 
       0.754018         61.6192         28.1992 
       0.769845         60.2068         26.8506 
        0.78569         58.6343         25.5882 
       0.801365         56.5558         24.4187 
       0.817031         54.5451         23.3225 
       0.832809         53.8369         22.2862 
       0.848511         51.4542          21.317 
       0.864097         50.3243         20.4117 
       0.879701         49.2069         19.5577 
       0.895507         48.3684         18.7422 
       0.911279         47.0825         17.9746 
        0.92691         46.0976         17.2559 
       0.942635         44.2971         16.5723 
       0.958396         44.0896          15.924 
       0.974128         42.8128         15.3113 
       0.989692         41.9742         14.7366 
        1.00528         40.9698         14.1904 
        1.02113          40.036         13.6631 
        1.03692         38.7646         13.1644 
        1.05264         38.6917         12.6926 
        1.06832         37.2644         12.2446 
        1.08405         36.8264         11.8168 
        1.09979         36.4589         11.4091 
        1.11537          34.963         11.0244 
        1.13105         35.2259         10.6551 
        1.14679         34.2842         10.3012 
        1.16256         33.5864         9.96256 
        1.17828         32.8164         9.64013 
        1.19395         32.2671         9.33295 
         1.2097          31.704         9.03749 
        1.22537         31.6209         8.75616 
          1.241         30.6346         8.48755 
        1.25666         29.9977         8.22946 
        1.27241         29.5753         7.98081 
        1.28819         28.8971         7.74194 
        1.30392         28.4976         7.51346 
        1.31957         28.2173         7.29515 
        1.33529         27.7792         7.08464 
        1.35108         27.4038         6.88154 
        1.36674         26.9643         6.68779 
         1.3824         26.2428         6.50161 
        1.39811         26.1316         6.32185 
        1.41389         25.7581         6.14814 
        1.42964         25.2327          5.9812 
        1.44531          24.896         5.82122 
        1.46101         24.3521          5.6667 
        1.47667         24.2561          5.5182 
        1.49229         23.9472         5.37538 
        1.50793          23.586         5.23741 
        1.52367         23.1852         5.10335 
        1.53953         23.0802         4.97305 
        1.55526         22.6447          4.8483 
        1.57092         22.3171         4.72831 
        1.58662         22.0263         4.61205 
        1.60235         21.7313         4.49945 
        1.61809         21.4164         4.39052 
        1.63369         21.1653         4.28613 
        1.64941         20.8928         4.18435 
        1.66519         20.5681         4.08549 
        1.68085         20.3833          3.9905 
        1.69652         20.0987         3.89847 
        1.71228         19.9813          3.8088 
        1.72806          19.603         3.72185 
        1.74368         19.2561         3.63846 
        1.75933         19.0543         3.55744 
        1.77505         19.0304         3.47849 
        1.79081         18.6806         3.40177 
         1.8065         18.4866         3.32767 
        1.82218         18.2945         3.25583 
        1.83797         17.9869         3.18559 
        1.85367         17.8162          3.1178 
        1.86928         17.6466         3.05236 
        1.88497         17.4056         2.98844 
        1.90073         17.2754         2.92609 
        1.91647          17.039         2.86556 
        1.93218         16.8982         2.80685 
        1.94787         16.6479         2.74986 
        1.96363         16.5784         2.69421 
        1.97935         16.3296         2.64021 
        1.99499         16.1421         2.58797 
        2.01064         16.0672         2.53706 
         2.0264         15.7591         2.48718 
        2.04216         15.6557         2.43866 
        2.05781         15.3721         2.39173 
        2.07353         15.3027         2.34585 
        2.08928         15.2225         2.30107 
        2.10499         15.0606         2.25756 
        2.12065         14.7897          2.2153 
        2.13633          14.668         2.17407 
        2.15211         14.5115         2.13362 
        2.16785         14.3502          2.0943 
        2.18349         14.2021          2.0562 
        2.19916         14.0914         2.01897 
        2.21489         13.9368         1.98252 
        2.23063         13.8102         1.94695 
         2.2463         13.6875         1.91239 
        2.26194         13.5782         1.87876 
        2.27765         13.3841         1.84575 
        2.29341         13.2393         1.81344 
        2.30914          13.166         1.78196 
        2.32486         13.0299         1.75124 
        2.34061         12.9049         1.72119 
        2.35635         12.7429         1.69186 
        2.37203          12.624         1.66332 
        2.38768          12.517         1.63548 
        2.40339         12.3863         1.60817 
        2.41914         12.2968         1.58142 
        2.43483          12.186         1.55536 
         2.4505         12.0259         1.52993 
        2.46622         11.9072         1.50497 
        2.48195         11.8115         1.48056 
        2.49759         11.6712         1.45682 
        2.51328         11.5643         1.43354 
        2.52906         11.4987         1.41061 
        2.54479         11.3883         1.38826 
        2.56049         11.2787         1.36643 
        2.57618         11.1815         1.34509 
        2.59189         11.0901         1.32417 
        2.60758         10.9983         1.30372 
        2.62325          10.917         1.28372 
        2.63898         10.7806         1.26407 
        2.65468         10.7014         1.24487 
        2.67044         10.5832         1.22598 
        2.68618         10.4936         1.20752 
        2.70184         10.4198         1.18951 
        2.71755         10.3021         1.17182 
        2.73329         10.2299         1.15446 
        2.74897         10.0926         1.13751 
        2.76462          10.066         1.12092 
        2.78034         9.92273          1.1046 
        2.79607         9.86551         1.08858 
        2.81179         9.73716          1.0729 
        2.82749         9.66096         1.05754 
        2.84321         9.59858         1.04245 
        2.85893         9.51727         1.02767 
        2.87462         9.41204         1.01319 
        2.89033         9.31858        0.998979 
        2.90605         9.27411        0.985022 
        2.92176         9.14363        0.971337 
        2.93747           9.127        0.957917 
        2.95318         9.01533        0.944744 
        2.96891          8.9467         0.93181 
        2.98456         8.87404        0.919174 
        3.00023         8.77537        0.906751 
        3.01596          8.7375        0.894516 
        3.03164          8.6686         0.88254 
        3.04738         8.54896        0.870746 
         3.0631         8.51207        0.859169 
        3.07883         8.41618          0.8478 
        3.09456         8.34601        0.836636 
        3.11026         8.29285        0.825689 
        3.12596         8.22301        0.814936 
        3.14163         8.15001        0.804398 
        3.15734         8.07241         0.79402 
        3.17308         8.01143        0.783798 
        3.18879         7.96078        0.773782 
        3.20447         7.88161        0.763953 
         3.2202         7.82836        0.754263 
         3.2359         7.77343        0.744757 
        3.25157         7.70392        0.735436 
        3.26729          7.6346        0.726244 
        3.28304         7.58988        0.717189 
        3.29877         7.51966          0.7083 
        3.31446         7.44769        0.699578 
        3.33014         7.38991         0.69101 
        3.34585         7.36197        0.682571 
        3.36158         7.29596        0.674258 
        3.37727         7.20332        0.666108 
        3.39294         7.16597          0.6581 
        3.40867         7.09846        0.650192 
        3.42439         7.05066        0.642418 
        3.44008         7.01085        0.634785 
        3.45578         6.94855        0.627268 
        3.47153         6.90072        0.619856 
        3.48724         6.84177        0.612575 
        3.50292         6.78608        0.605426 
        3.51859           6.741        0.598394 
        3.53431          6.6875        0.591451 
        3.55007         6.63407          0.5846 
        3.56577         6.58242        0.577883 
        3.58146         6.54421        0.571273 
        3.59719         6.48846        0.564751 
        3.61292         6.42164        0.558331 
        3.62859         6.38137        0.552034 
        3.64429         6.35322        0.545822 
        3.66003         6.28035        0.539685 
        3.67578         6.22748        0.533643 
        3.69146         6.18885        0.527716 
        3.70712         6.13428        0.521889 
        3.72284         6.09575        0.516127 
        3.73853         6.03238        0.510461 
        3.75422         6.02864        0.504878 
        3.76993         5.94602        0.499372 
        3.78564         5.91452        0.493949 
        3.80137         5.85845        0.488598 
        3.81707         5.82382        0.483336 
        3.83279         5.78227        0.478146 
        3.84853         5.72919        0.473024 
        3.86424         5.69433        0.467986 
        3.87992         5.64811        0.463027 
        3.89561         5.60834         0.45814 
        3.91134         5.55787        0.453313 
        3.92704         5.51283        0.448559 
        3.94273         5.49444        0.443878 
        3.95845         5.45149        0.439255 
        3.97418         5.38905        0.434696 
        3.98988         5.36048        0.430207 
        4.00554         5.32897        0.425792 
        4.02125         5.28109        0.421427 
        4.03698         5.23728        0.417115 
        4.05268         5.21143        0.412873 
        4.06839         5.15922        0.408686 
         4.0841           5.128        0.404558 
        4.09983         5.08361         0.40048 
        4.11555            5.06         0.39646 
        4.13124         5.02536        0.392505 
        4.14693          4.9829          0.3886 
        4.16266         4.94629        0.384739 
        4.17839         4.89986        0.380932 
        4.19408         4.86963        0.377185 
        4.20977         4.82991        0.373486 
        4.22551         4.79715        0.369827 
        4.24123         4.76324         0.36622 
        4.25691          4.7122        0.362671 
        4.27259         4.68929        0.359167 
        4.28831         4.65404        0.355702 
        4.30404         4.63705        0.352279 
        4.31974         4.58787        0.348908 
        4.33543         4.55398        0.345582 
        4.35116         4.51464        0.342291 
        4.36688          4.4806        0.339044 
        4.38255         4.46124        0.335851 
        4.39825         4.41167        0.332692 
        4.41398         4.39484        0.329566 
         4.4297         4.35986        0.326483 
        4.44541          4.3223         0.32344 
        4.46111         4.30796        0.320438 
        4.47683         4.26698        0.317471 
        4.49251          4.2401        0.314548 
        4.50819          4.2046        0.311662 
         4.5239         4.17907        0.308807 
        4.53962         4.15452        0.305984 
        4.55535         4.12949        0.303195 
        4.57106         4.09056        0.300444 
        4.58678         4.06846        0.297726 
         4.6025         4.03664        0.295041 
        4.61821         4.01283        0.292389 
        4.63391         3.98284        0.289773 
         4.6496         3.96079        0.287189 
        4.66532          3.9368        0.284633 
        4.68103         3.89659        0.282109 
        4.69673         3.88172        0.279617 
        4.71241         3.85999        0.277157 
        4.72811         3.82474        0.274723 
        4.74384         3.79921        0.272315 
        4.75955         3.76306        0.269939 
        4.77525         3.74309        0.267592 
        4.79096         3.72395         0.26527 
        4.80669         3.69874        0.262974 
         4.8224         3.67888        0.260707 
        4.83809         3.64636        0.258469 
        4.85379         3.62696        0.256256 
         4.8695         3.60802        0.254067 
        4.88521         3.58385        0.251904 
        4.90093         3.55123        0.249766 
        4.91663         3.53774        0.247654 
        4.93234         3.51427        0.245564 
        4.94807         3.48346        0.243496 
        4.96377         3.45808        0.241456 
        4.97943         3.43388        0.239444 
        4.99514         3.42159        0.237448 
        5.01086         3.39606        0.235474 
        5.02654         3.37526        0.233527 
        5.04227         3.34167        0.231596 
          5.058         3.32517        0.229686 
        5.07371         3.30857        0.227801 
        5.08942            3.29        0.225936 
        5.10513          3.2691        0.224092 
        5.12084         3.24794        0.222268 
        5.13656         3.23294        0.220464 
        5.15225          3.2039        0.218682 
        5.16796         3.18384        0.216918 
        5.18369          3.1635        0.215171 
         5.1994         3.14778        0.213446 
        5.21509         3.12264        0.211741 
        5.23079         3.10906        0.210053 
        5.24649          3.0852        0.208384 
        5.26217         3.06644        0.206735 
        5.27788         3.04816        0.205101 
        5.29359         3.03439        0.203484 
        5.30933         3.00932        0.201881 
        5.32504         2.99966        0.200299 
        5.34073         2.97706        0.198735 
        5.35646         2.95098        0.197185 
        5.37218          2.9403         0.19565 
        5.38789         2.91824        0.194135 
        5.40357           2.907        0.192636 
        5.41929         2.88548        0.191151 
        5.43502         2.86727         0.18968 
         5.4507         2.85058        0.188228 
        5.46639          2.8399        0.186791 
        5.48212         2.81756        0.185366 
        5.49786         2.79785        0.183954 
        5.51353         2.78034        0.182563 
        5.52921         2.77024        0.181185 
        5.54495         2.75272        0.179817 
        5.56066         2.74047        0.178464 
        5.57637         2.72047        0.177126 
        5.59207          2.7012        0.175802 
        5.60778         2.68522        0.174491 
        5.62346         2.66922        0.173195 
        5.63916         2.65302        0.171911 
        5.65487         2.63965        0.170639 
         5.6706          2.6235        0.169379 
        5.68633         2.60895         0.16813 
        5.70203         2.59262        0.166897 
        5.71773         2.57748        0.165676 
        5.73344         2.56717        0.164466 
        5.74916         2.55223        0.163267 
        5.76486         2.53825        0.162082 
        5.78054         2.52245         0.16091 
        5.79626         2.50954        0.159747 
          5.812         2.49485        0.158593 
         5.8277         2.48085        0.157454 
        5.84339          2.4636        0.156327 
        5.85911          2.4556        0.155208 
        5.87484         2.43892          0.1541 
        5.89053         2.42209        0.153005 
        5.90623         2.41192         0.15192 
        5.92195         2.39887        0.150843 
        5.93767         2.38198        0.149777 
        5.95336         2.37251        0.148724 
        5.96905         2.35957        0.147681 
        5.98476         2.34921        0.146646 
        6.00048         2.33366         0.14562 
        6.01617         2.31925        0.144606 
        6.03185          2.3029        0.143603 
        6.04756         2.29279        0.142606 
        6.06331         2.27874        0.141617 
        6.07903         2.26911        0.140639 
        6.09473         2.25834        0.139671 
        6.11044         2.24485        0.138712 
        6.12616         2.23339        0.137761 
        6.14186         2.22233         0.13682 
        6.15755         2.21162        0.135888 
        6.17326         2.19734        0.134964 
        6.18898         2.18299        0.134048 
        6.20467         2.17336        0.133142 
        6.22036         2.16135        0.132244 
         6.2361          2.1497        0.131352 
         6.2518         2.13769        0.130469 
        6.26748          2.1323        0.129597 
        6.28319         2.11836         0.12873 
        6.29893         2.10635         0.12787 
        6.31463         2.09626        0.127019 
        6.33033         2.08126        0.126177 
        6.34604         2.07497        0.125341 
        6.36177         2.06544        0.124512 
        6.37747          2.0516        0.123692 
