# k  (h/Mpc)    Pcb(k)  (Mpc/h)^3    Pcb_linear(k) (Mpc/h)^3   ShotnoiseSubtracted = true
      0.0200456         11724.3         11951.4 
      0.0350414         8361.02         8617.38 
      0.0492313         6381.73         6453.59 
      0.0637834         5482.27         5394.15 
      0.0800726         4178.42         4089.05 
       0.096163         2930.01         2987.16 
       0.111083         2431.27          2513.6 
       0.126058         2224.33         2202.93 
       0.142273         1847.07         1760.84 
       0.158546         1566.83          1417.1 
        0.17375         1295.48          1258.9 
       0.188953         1240.03         1120.34 
       0.204907          1139.4         944.722 
       0.220756         975.453          810.87 
        0.23588         870.358         734.233 
         0.2514          758.78         660.944 
       0.267535         733.083         578.447 
       0.283568         665.957         513.732 
       0.299022         624.058         469.098 
       0.314451         586.646         427.483 
       0.330372         539.963         384.822 
       0.346141         491.623         349.723 
       0.361624         473.058         322.051 
       0.377134          439.63         296.559 
       0.392932         417.588         271.907 
       0.408854         401.139         250.353 
       0.424564         380.647         232.171 
       0.440253         368.669         215.554 
       0.455999         346.704         200.081 
       0.471626         323.949         186.354 
        0.48727         314.336          174.15 
       0.502856         304.068         163.001 
       0.518488         300.626         152.676 
       0.534347         282.308         143.142 
       0.550082         266.073         134.564 
       0.565732         262.586         126.712 
       0.581496         248.591         119.403 
       0.597222         243.051         112.688 
       0.612804         234.703         106.571 
       0.628434         226.041         100.896 
       0.644267         218.844         95.5648 
       0.660051         215.772         90.6316 
       0.675724         211.407          86.076 
       0.691403         205.166         81.8311 
       0.707174          196.67         77.8499 
       0.722871         194.793         74.1505 
        0.73838         190.566         70.7322 
       0.754018         185.169         67.5044 
       0.769845         179.352         64.4439 
        0.78569         177.587         61.5713 
       0.801365         172.013         58.9029 
       0.817031         166.596         56.3953 
       0.832809         164.139         54.0184 
       0.848511         159.967         51.7897 
       0.864097         157.536         49.7027 
       0.879701          153.94         47.7292 
       0.895507         150.001           45.84 
       0.911279         146.638         44.0575 
        0.92691         145.775         42.3849 
       0.942635         142.003         40.7903 
       0.958396         141.774         39.2747 
       0.974128          137.69         37.8392 
       0.989692         134.181         36.4899 
        1.00528         131.894         35.2047 
        1.02113         131.075         33.9616 
        1.03692         126.151         32.7833 
        1.05264         124.925         31.6666 
        1.06832         122.371         30.6039 
        1.08405         120.614         29.5874 
        1.09979         120.095         28.6167 
        1.11537         116.082         27.6993 
        1.13105         115.511         26.8168 
        1.14679         114.482         25.9696 
        1.16256         112.667         25.1574 
        1.17828         109.929         24.3828 
        1.19395         108.482         23.6436 
         1.2097         106.446         22.9313 
        1.22537         105.927          22.252 
          1.241         103.583         21.6023 
        1.25666         101.642         20.9771 
        1.27241         100.274         20.3737 
        1.28819         98.7304         19.7932 
        1.30392         97.4908         19.2371 
        1.31957         96.0361         18.7048 
        1.33529         94.1897         18.1908 
        1.35108         93.1654         17.6942 
        1.36674          92.276         17.2197 
         1.3824         90.4268         16.7632 
        1.39811         89.4331         16.3217 
        1.41389         88.1025         15.8944 
        1.42964           86.83         15.4833 
        1.44531         84.9781         15.0887 
        1.46101         84.0196         14.7071 
        1.47667         83.6284         14.3398 
        1.49229         81.9391         13.9862 
        1.50793          81.257         13.6441 
        1.52367         80.1059         13.3112 
        1.53953         78.8232         12.9873 
        1.55526         78.1046         12.6768 
        1.57092         77.5766         12.3777 
        1.58662         75.8915         12.0876 
        1.60235          75.439         11.8063 
        1.61809          74.247         11.5338 
        1.63369         73.3165         11.2723 
        1.64941         72.5778         11.0171 
        1.66519         70.9379         10.7689 
        1.68085         70.5074         10.5301 
        1.69652         69.1329         10.2985 
        1.71228         68.9297         10.0726 
        1.72806         67.8789         9.85333 
        1.74368         67.0871         9.64277 
        1.75933         66.1466         9.43796 
        1.77505         65.5997         9.23816 
        1.79081         64.4891          9.0438 
         1.8065         63.8817         8.85588 
        1.82218         62.9275         8.67347 
        1.83797         62.4153         8.49496 
        1.85367         61.6474         8.32248 
        1.86928         61.2388         8.15583 
        1.88497         60.1184         7.99284 
        1.90073         59.2417         7.83371 
        1.91647         59.0525         7.67907 
        1.93218         58.1218         7.52894 
        1.94787         57.3583         7.38305 
        1.96363           56.58         7.24045 
        1.97935         56.3213         7.10193 
        1.99499         55.3711         6.96781 
        2.01064         55.1441         6.83697 
         2.0264         53.8255         6.70868 
        2.04216         53.4817         6.58374 
        2.05781         52.8505         6.46278 
        2.07353         52.2115         6.34444 
        2.08928         51.5746          6.2288 
        2.10499          51.155         6.11636 
        2.12065          50.538         6.00704 
        2.13633         50.1959          5.9003 
        2.15211         49.8305         5.79547 
        2.16785         48.9964         5.69348 
        2.18349          48.636         5.59459 
        2.19916         47.9898         5.49785 
        2.21489         47.5675         5.40307 
        2.23063         46.9458         5.31047 
         2.2463          46.474         5.22046 
        2.26194         45.6893         5.13276 
        2.27765         45.2915         5.04663 
        2.29341         44.7162         4.96225 
        2.30914         44.1304         4.87998 
        2.32486         43.5107         4.79963 
        2.34061         43.2259         4.72095 
        2.35635         42.7526          4.6441 
        2.37203         42.2067         4.56924 
        2.38768         41.8449         4.49618 
        2.40339         41.4617         4.42446 
        2.41914         41.0609         4.35414 
        2.43483         40.5134         4.28559 
         2.4505         40.1116         4.21864 
        2.46622         39.7483         4.15289 
        2.48195         39.2603         4.08854 
        2.49759          38.784          4.0259 
        2.51328         38.2762          3.9644 
        2.52906         38.0002         3.90381 
        2.54479         37.4549         3.84471 
        2.56049         37.0047         3.78694 
        2.57618         36.7131         3.73042 
        2.59189         36.2729         3.67496 
        2.60758         36.0058         3.62072 
        2.62325         35.5456         3.56764 
        2.63898         35.1973         3.51545 
        2.65468         34.7224          3.4644 
        2.67044         34.3197         3.41416 
        2.68618          34.103         3.36502 
        2.70184         33.7154         3.31705 
        2.71755         33.4818          3.2699 
        2.73329         33.0177         3.22359 
        2.74897         32.6779         3.17833 
        2.76462         32.2041         3.13404 
        2.78034         32.0797         3.09041 
        2.79607         31.6933         3.04757 
        2.81179          31.386         3.00558 
        2.82749         31.0452         2.96444 
        2.84321          30.711         2.92402 
        2.85893         30.3799         2.88437 
        2.87462         30.0246         2.84552 
        2.89033         29.7458         2.80735 
        2.90605         29.5794         2.76985 
        2.92176         29.3095         2.73305 
        2.93747         28.9883         2.69695 
        2.95318          28.547         2.66148 
        2.96891          28.311         2.62664 
        2.98456         28.0268         2.59258 
        3.00023         27.7229         2.55907 
        3.01596         27.4213         2.52605 
        3.03164         27.3063         2.49371 
        3.04738         27.0198         2.46183 
         3.0631         26.7321         2.43053 
        3.07883         26.4302         2.39977 
        3.09456         26.1343         2.36955 
        3.11026         25.9184         2.33989 
        3.12596          25.699         2.31075 
        3.14163         25.4072         2.28217 
        3.15734         25.1821         2.25401 
        3.17308         24.8417         2.22625 
        3.18879         24.6943         2.19904 
        3.20447         24.4067         2.17232 
         3.2202         24.1728         2.14597 
         3.2359         23.9299         2.12009 
        3.25157          23.838         2.09471 
        3.26729         23.5708         2.06966 
        3.28304         23.2792         2.04498 
        3.29877         22.9981         2.02073 
        3.31446         22.8118         1.99693 
        3.33014         22.5914         1.97353 
        3.34585         22.4689         1.95047 
        3.36158          22.136         1.92774 
        3.37727         21.9125         1.90545 
        3.39294         21.8124         1.88353 
        3.40867         21.5364         1.86188 
        3.42439         21.3326         1.84058 
        3.44008         21.1415         1.81965 
        3.45578         21.0101         1.79904 
        3.47153         20.6986          1.7787 
        3.48724         20.5476          1.7587 
        3.50292         20.4101         1.73907 
        3.51859          20.159         1.71974 
        3.53431         19.9722         1.70064 
        3.55007         19.7578         1.68179 
        3.56577         19.5559          1.6633 
        3.58146         19.4614          1.6451 
        3.59719          19.191         1.62712 
        3.61292         19.0503         1.60942 
        3.62859         18.8523         1.59205 
        3.64429         18.7015          1.5749 
        3.66003         18.5678         1.55796 
        3.67578           18.32         1.54127 
        3.69146          18.246         1.52488 
        3.70712         18.0463         1.50877 
        3.72284          17.899         1.49282 
        3.73853         17.6899         1.47714 
        3.75422         17.5072         1.46168 
        3.76993         17.3936         1.44642 
        3.78564          17.199         1.43139 
        3.80137          17.076         1.41654 
        3.81707         16.9183         1.40194 
        3.83279         16.7634         1.38753 
        3.84853         16.6004          1.3733 
        3.86424         16.4567          1.3593 
        3.87992         16.3388         1.34552 
        3.89561         16.1379         1.33192 
        3.91134         16.0478         1.31849 
        3.92704         15.8885         1.30525 
        3.94273         15.7464         1.29221 
        3.95845         15.5766         1.27933 
        3.97418         15.4929         1.26662 
        3.98988         15.3204         1.25409 
        4.00554         15.1814         1.24177 
        4.02125         15.0598         1.22959 
        4.03698         14.9457         1.21754 
        4.05268         14.7867         1.20569 
        4.06839         14.6657         1.19398 
         4.0841         14.5797         1.18243 
        4.09983         14.3859         1.17102 
        4.11555          14.298         1.15977 
        4.13124         14.1846         1.14869 
        4.14693         14.0325         1.13775 
        4.16266         13.9301         1.12693 
        4.17839         13.8056         1.11625 
        4.19408          13.659         1.10573 
        4.20977         13.5951         1.09535 
        4.22551         13.4525         1.08508 
        4.24123         13.3562         1.07494 
        4.25691         13.2543         1.06497 
        4.27259         13.1021         1.05512 
        4.28831         12.9762         1.04537 
        4.30404         12.9046         1.03573 
        4.31974         12.7748         1.02624 
        4.33543          12.675         1.01688 
        4.35116         12.5776          1.0076 
        4.36688         12.4611         0.99845 
        4.38255         12.3377        0.989444 
        4.39825         12.2618         0.98053 
        4.41398           12.19        0.971708 
         4.4297         12.0433        0.963004 
        4.44541         11.9639        0.954408 
        4.46111         11.8554        0.945924 
        4.47683         11.7674        0.937536 
        4.49251         11.6533        0.929268 
        4.50819         11.5736        0.921101 
         4.5239         11.4898         0.91302 
        4.53962         11.3921        0.905027 
        4.55535         11.2866        0.897125 
        4.57106         11.1799        0.889329 
        4.58678         11.0916        0.881624 
         4.6025         10.9938        0.874008 
        4.61821           10.93        0.866484 
        4.63391         10.8369        0.859058 
         4.6496         10.7454        0.851721 
        4.66532         10.6465         0.84446 
        4.68103         10.5552        0.837286 
        4.69673         10.4919        0.830202 
        4.71241         10.3826        0.823207 
        4.72811         10.3024        0.816281 
        4.74384         10.2398        0.809426 
        4.75955         10.1385        0.802661 
        4.77525         10.0567        0.795976 
        4.79096         9.98989        0.789359 
        4.80669         9.92729        0.782815 
         4.8224         9.84989        0.776351 
        4.83809         9.76651        0.769968 
        4.85379         9.69737        0.763653 
         4.8695         9.64822        0.757403 
        4.88521          9.5127        0.751226 
        4.90093          9.4598        0.745116 
        4.91663         9.38458        0.739081 
        4.93234         9.31469        0.733105 
        4.94807          9.2463        0.727192 
        4.96377         9.16847        0.721355 
        4.97943         9.10224        0.715594 
        4.99514         9.03329        0.709881 
        5.01086         8.96704        0.704227 
        5.02654         8.90718        0.698648 
        5.04227         8.82773        0.693113 
          5.058         8.74575        0.687636 
        5.07371          8.7053        0.682229 
        5.08942         8.64404        0.676879 
        5.10513         8.55829        0.671585 
        5.12084         8.49737        0.666346 
        5.13656         8.44721        0.661164 
        5.15225         8.38307        0.656045 
        5.16796         8.31412        0.650973 
        5.18369         8.25655        0.645949 
         5.1994         8.17074        0.640988 
        5.21509         8.13132        0.636083 
        5.23079         8.06192        0.631224 
        5.24649         8.00114        0.626419 
        5.26217         7.94707        0.621668 
        5.27788         7.88894        0.616959 
        5.29359         7.83604        0.612298 
        5.30933         7.75662        0.607679 
        5.32504         7.70976        0.603115 
        5.34073         7.67078        0.598602 
        5.35646         7.59219        0.594127 
        5.37218         7.54393        0.589697 
        5.38789         7.50157        0.585319 
        5.40357         7.44702         0.58099 
        5.41929         7.38777        0.576696 
        5.43502         7.31861        0.572445 
         5.4507         7.27623        0.568246 
        5.46639         7.23364        0.564089 
        5.48212         7.18381        0.559964 
        5.49786          7.1393        0.555875 
        5.51353         7.07375        0.551848 
        5.52921         7.03511        0.547856 
        5.54495         6.98002        0.543892 
        5.56066         6.92825        0.539971 
        5.57637          6.8713         0.53609 
        5.59207         6.83791         0.53225 
        5.60778         6.77328        0.528446 
        5.62346         6.73306        0.524685 
        5.63916         6.67856        0.520957 
        5.65487          6.6441        0.517263 
         5.6706         6.57791        0.513601 
        5.68633         6.54445        0.509973 
        5.70203         6.50936        0.506387 
        5.71773          6.4563        0.502836 
        5.73344         6.41101        0.499318 
        5.74916          6.3753        0.495829 
        5.76486         6.33602        0.492379 
        5.78054         6.27369        0.488967 
        5.79626         6.23104        0.485578 
          5.812         6.19701        0.482218 
         5.8277          6.1619        0.478899 
        5.84339         6.10931        0.475611 
        5.85911         6.07645        0.472348 
        5.87484         6.03329        0.469116 
        5.89053         5.98898        0.465921 
        5.90623         5.94819        0.462754 
        5.92195         5.89812        0.459611 
        5.93767         5.87444        0.456499 
        5.95336         5.82347        0.453421 
        5.96905         5.78811        0.450372 
        5.98476         5.75162        0.447347 
        6.00048         5.72297        0.444349 
        6.01617         5.67752        0.441382 
        6.03185          5.6424        0.438446 
        6.04756         5.60322         0.43553 
        6.06331         5.57074        0.432634 
        6.07903         5.52965         0.42977 
        6.09473         5.49467        0.426935 
        6.11044          5.4512        0.424123 
        6.12616         5.42243        0.421337 
        6.14186          5.3962        0.418579 
        6.15755          5.3547        0.415845 
        6.17326         5.30855        0.413134 
        6.18898         5.27039        0.410445 
        6.20467         5.24232        0.407786 
        6.22036         5.21458         0.40515 
         6.2361         5.16962         0.40253 
         6.2518         5.14298        0.399937 
        6.26748         5.11368        0.397374 
        6.28319         5.07474        0.394825 
        6.29893         5.04569        0.392297 
        6.31463         5.01801        0.389795 
        6.33033         4.97886        0.387316 
        6.34604         4.95211        0.384856 
        6.36177         4.91905        0.382416 
        6.37747         4.89476        0.380001 
