# k  (h/Mpc)    Pcb(k)  (Mpc/h)^3    Pcb_linear(k) (Mpc/h)^3   ShotnoiseSubtracted = true
      0.0200456         17688.1         17976.3 
      0.0350414         13359.2         12961.6 
      0.0492313         9528.83         9707.01 
      0.0637834         7718.92         8113.47 
      0.0800726         5846.41         6150.44 
       0.096163          4674.6         4493.05 
       0.111083         3958.04         3780.77 
       0.126058         3256.61         3313.48 
       0.142273         2740.32         2648.53 
       0.158546         2272.77         2131.49 
        0.17375         2060.55         1893.54 
       0.188953         1923.52         1685.14 
       0.204907         1626.62         1420.98 
       0.220756         1469.82         1219.65 
        0.23588         1323.96         1104.38 
         0.2514         1190.35         994.142 
       0.267535         1147.28         870.055 
       0.283568         1014.32         772.716 
       0.299022         970.873         705.581 
       0.314451         1002.35         642.988 
       0.330372          870.96          578.82 
       0.346141         802.689         526.026 
       0.361624         770.268         484.405 
       0.377134         732.963         446.062 
       0.392932         703.914         408.982 
       0.408854         672.022         376.562 
       0.424564         655.076         349.213 
       0.440253         601.022          324.22 
       0.455999         575.351         300.946 
       0.471626         585.069         280.299 
        0.48727         551.986         261.944 
       0.502856         519.267         245.174 
       0.518488         512.672         229.644 
       0.534347         483.938         215.304 
       0.550082         463.829         202.401 
       0.565732         459.458          190.59 
       0.581496         447.478         179.598 
       0.597222         435.174         169.497 
       0.612804         425.384         160.296 
       0.628434         407.856          151.76 
       0.644267          393.54         143.741 
       0.660051         388.396         136.321 
       0.675724          380.79         129.469 
       0.691403         372.228         123.084 
       0.707174         358.022         117.096 
       0.722871         351.929         111.532 
        0.73838         347.742          106.39 
       0.754018         335.216         101.535 
       0.769845         332.858         96.9316 
        0.78569         325.234         92.6109 
       0.801365         315.186         88.5973 
       0.817031         311.935         84.8255 
       0.832809         306.643         81.2503 
       0.848511         299.249         77.8982 
       0.864097         291.815          74.759 
       0.879701         289.743         71.7906 
       0.895507         281.081         68.9491 
       0.911279         274.994         66.2679 
        0.92691         272.249         63.7522 
       0.942635         270.181         61.3537 
       0.958396         261.908         59.0741 
       0.974128         258.833         56.9149 
       0.989692         249.073         54.8854 
        1.00528         248.868         52.9523 
        1.02113         245.149         51.0824 
        1.03692           239.5         49.3102 
        1.05264         235.399         47.6305 
        1.06832         234.412         46.0321 
        1.08405         228.479         44.5032 
        1.09979         226.331          43.043 
        1.11537         221.152         41.6632 
        1.13105         217.675         40.3358 
        1.14679         215.586         39.0614 
        1.16256         212.604         37.8399 
        1.17828         209.802         36.6748 
        1.19395         204.023         35.5628 
         1.2097         203.595         34.4916 
        1.22537         201.662         33.4698 
          1.241         196.134         32.4926 
        1.25666         194.363         31.5521 
        1.27241         190.702         30.6446 
        1.28819         188.259         29.7714 
        1.30392         185.706         28.9349 
        1.31957         181.113         28.1344 
        1.33529         178.765         27.3613 
        1.35108         177.374         26.6143 
        1.36674         173.715         25.9006 
         1.3824         172.314         25.2139 
        1.39811         169.798         24.5498 
        1.41389         166.215         23.9072 
        1.42964         164.286         23.2887 
        1.44531         162.607         22.6953 
        1.46101         159.391         22.1213 
        1.47667         158.189         21.5689 
        1.49229         155.662         21.0369 
        1.50793         153.054         20.5224 
        1.52367         151.614         20.0217 
        1.53953         148.099         19.5345 
        1.55526          147.77         19.0674 
        1.57092         146.194         18.6176 
        1.58662         142.294         18.1812 
        1.60235         141.201         17.7581 
        1.61809         138.765         17.3482 
        1.63369         136.829         16.9549 
        1.64941         135.783         16.5711 
        1.66519         133.846         16.1977 
        1.68085         131.382         15.8386 
        1.69652         130.016         15.4903 
        1.71228         128.543         15.1505 
        1.72806         127.129         14.8206 
        1.74368         125.258         14.5039 
        1.75933         124.142         14.1959 
        1.77505         121.935         13.8953 
        1.79081          120.17          13.603 
         1.8065         118.189         13.3203 
        1.82218         116.689          13.046 
        1.83797         116.194         12.7775 
        1.85367         114.446          12.518 
        1.86928         113.355         12.2674 
        1.88497         111.508         12.0222 
        1.90073         110.652         11.7829 
        1.91647         108.678         11.5503 
        1.93218         107.567         11.3245 
        1.94787         105.707          11.105 
        1.96363         105.103         10.8905 
        1.97935         103.793         10.6822 
        1.99499         102.858         10.4805 
        2.01064         100.509         10.2837 
         2.0264         99.8588         10.0907 
        2.04216         97.8992         9.90276 
        2.05781         97.3358         9.72083 
        2.07353         95.9696         9.54282 
        2.08928         94.5662         9.36889 
        2.10499         93.6303         9.19977 
        2.12065         92.8731         9.03533 
        2.13633         91.7833         8.87478 
        2.15211         90.3038         8.71711 
        2.16785         89.0663          8.5637 
        2.18349         87.8913         8.41496 
        2.19916         86.8076         8.26944 
        2.21489         86.0521         8.12689 
        2.23063         84.5676         7.98761 
         2.2463         84.0845         7.85222 
        2.26194         82.9328         7.72031 
        2.27765         81.8712         7.59075 
        2.29341         81.0296         7.46384 
        2.30914         80.0588          7.3401 
        2.32486         78.6182         7.21923 
        2.34061         78.1603         7.10089 
        2.35635          76.991         6.98531 
        2.37203          75.972          6.8727 
        2.38768         75.1435         6.76282 
        2.40339         74.6543         6.65494 
        2.41914         73.2247         6.54916 
        2.43483         72.6809         6.44606 
         2.4505          71.628         6.34536 
        2.46622         71.0427         6.24646 
        2.48195         70.0504         6.14967 
        2.49759         69.1575         6.05545 
        2.51328         68.3681         5.96295 
        2.52906         67.2232         5.87181 
        2.54479         66.7564         5.78291 
        2.56049          65.935         5.69603 
        2.57618         65.0007         5.61101 
        2.59189         64.5953          5.5276 
        2.60758         63.5338         5.44602 
        2.62325         62.9412         5.36618 
        2.63898         62.2993         5.28767 
        2.65468         61.7054         5.21089 
        2.67044         60.9522         5.13531 
        2.68618         60.3834         5.06141 
        2.70184         59.5161         4.98926 
        2.71755         58.7708         4.91833 
        2.73329         58.1527         4.84868 
        2.74897         57.6068          4.7806 
        2.76462         57.1819         4.71398 
        2.78034         56.5474         4.64836 
        2.79607         55.7394         4.58392 
        2.81179         55.1097         4.52077 
        2.82749         54.5916         4.45889 
        2.84321         54.1322         4.39809 
        2.85893         53.4903         4.33845 
        2.87462         52.8061         4.28002 
        2.89033         52.1853         4.22261 
        2.90605         51.6072          4.1662 
        2.92176         51.1452         4.11085 
        2.93747         50.4387         4.05654 
        2.95318         50.0662          4.0032 
        2.96891         49.3403         3.95079 
        2.98456         48.9151         3.89956 
        3.00023         48.2622         3.84916 
        3.01596         47.8371         3.79949 
        3.03164         47.4143         3.75084 
        3.04738          46.918          3.7029 
         3.0631          46.192         3.65582 
        3.07883           45.81         3.60955 
        3.09456         45.2076          3.5641 
        3.11026         44.8477         3.51949 
        3.12596         44.4508         3.47566 
        3.14163         43.8081         3.43267 
        3.15734         43.4057         3.39031 
        3.17308         42.9636         3.34856 
        3.18879         42.6234         3.30763 
        3.20447         42.2352         3.26744 
         3.2202         41.6243          3.2278 
         3.2359         41.3184         3.18888 
        3.25157         40.9455          3.1507 
        3.26729         40.4362         3.11303 
        3.28304         40.0779          3.0759 
        3.29877         39.5242         3.03943 
        3.31446         39.2362         3.00363 
        3.33014         38.8602         2.96843 
        3.34585         38.3573         2.93375 
        3.36158         37.9808         2.89957 
        3.37727          37.646         2.86604 
        3.39294         37.2913         2.83307 
        3.40867         36.9366          2.8005 
        3.42439         36.4686         2.76846 
        3.44008         36.1404         2.73699 
        3.45578         35.7465         2.70598 
        3.47153         35.4499         2.67538 
        3.48724         35.0388         2.64531 
        3.50292         34.7028         2.61577 
        3.51859         34.5003          2.5867 
        3.53431         34.1634         2.55798 
        3.55007         33.6174         2.52962 
        3.56577         33.5762         2.50181 
        3.58146          33.075         2.47443 
        3.59719         32.7986         2.44739 
        3.61292         32.5228         2.42077 
        3.62859         32.1422         2.39464 
        3.64429         31.8739         2.36885 
        3.66003         31.5604         2.34336 
        3.67578         31.2711         2.31826 
        3.69146         31.0004         2.29361 
        3.70712         30.6041         2.26937 
        3.72284         30.3416         2.24539 
        3.73853          30.164          2.2218 
        3.75422         29.8273         2.19854 
        3.76993         29.5348         2.17559 
        3.78564         29.3312         2.15298 
        3.80137          29.038         2.13065 
        3.81707          28.752         2.10869 
        3.83279         28.4779         2.08702 
        3.84853         28.2039         2.06562 
        3.86424         27.8919         2.04456 
        3.87992         27.6505         2.02382 
        3.89561         27.4493         2.00337 
        3.91134         27.1408         1.98317 
        3.92704         26.8669         1.96326 
        3.94273         26.6654         1.94365 
        3.95845         26.4382         1.92427 
        3.97418         26.1209         1.90515 
        3.98988         25.8876         1.88631 
        4.00554         25.6322         1.86778 
        4.02125         25.4683         1.84945 
        4.03698         25.2405         1.83133 
        4.05268         25.0015          1.8135 
        4.06839         24.7711         1.79589 
         4.0841         24.5681         1.77853 
        4.09983         24.2934         1.76136 
        4.11555          24.039         1.74443 
        4.13124          23.957         1.72777 
        4.14693         23.6256         1.71132 
        4.16266         23.4386         1.69504 
        4.17839          23.308         1.67898 
        4.19408         23.0134         1.66316 
        4.20977         22.8965         1.64754 
        4.22551         22.6934         1.63209 
        4.24123         22.4742         1.61685 
        4.25691         22.2303         1.60184 
        4.27259          22.099         1.58702 
        4.28831         21.8649         1.57236 
        4.30404         21.7181         1.55787 
        4.31974         21.4577          1.5436 
        4.33543         21.3021         1.52951 
        4.35116         21.1097         1.51556 
        4.36688         20.9256         1.50179 
        4.38255         20.7729         1.48825 
        4.39825         20.5752         1.47484 
        4.41398         20.4043         1.46157 
         4.4297         20.2267         1.44848 
        4.44541         20.0191         1.43555 
        4.46111         19.8392         1.42279 
        4.47683         19.6867         1.41017 
        4.49251          19.556         1.39773 
        4.50819         19.3895         1.38545 
         4.5239         19.2179          1.3733 
        4.53962          19.076         1.36127 
        4.55535         18.8902         1.34939 
        4.57106         18.7796         1.33766 
        4.58678         18.6041         1.32607 
         4.6025         18.3885         1.31462 
        4.61821         18.2449          1.3033 
        4.63391         18.1074         1.29213 
         4.6496         18.0036         1.28109 
        4.66532         17.8164         1.27017 
        4.68103         17.6631         1.25938 
        4.69673           17.59         1.24873 
        4.71241         17.4627         1.23821 
        4.72811         17.2638         1.22779 
        4.74384         17.1223         1.21748 
        4.75955          17.021          1.2073 
        4.77525         16.8872         1.19725 
        4.79096         16.7068         1.18729 
        4.80669         16.5765         1.17745 
         4.8224         16.4367         1.16773 
        4.83809         16.3173         1.15813 
        4.85379         16.1763         1.14863 
         4.8695         16.0562         1.13923 
        4.88521         15.9457         1.12994 
        4.90093         15.8165         1.12075 
        4.91663         15.6583         1.11167 
        4.93234          15.542         1.10268 
        4.94807         15.4478         1.09379 
        4.96377         15.3083         1.08501 
        4.97943         15.1915         1.07634 
        4.99514         15.0531         1.06775 
        5.01086         14.9646         1.05924 
        5.02654          14.867         1.05085 
        5.04227          14.713         1.04253 
          5.058         14.5965         1.03429 
        5.07371          14.498         1.02616 
        5.08942         14.4218         1.01811 
        5.10513         14.2758         1.01015 
        5.12084          14.173         1.00227 
        5.13656         14.0506        0.994473 
        5.15225         13.9543        0.986774 
        5.16796         13.8157        0.979144 
        5.18369         13.7156        0.971588 
         5.1994         13.6443        0.964126 
        5.21509           13.51        0.956748 
        5.23079         13.4409        0.949439 
        5.24649         13.3245        0.942212 
        5.26217          13.225        0.935066 
        5.27788         13.1446        0.927983 
        5.29359         12.9894        0.920972 
        5.30933         12.9416        0.914024 
        5.32504         12.8288        0.907159 
        5.34073         12.7421        0.900372 
        5.35646         12.6587        0.893641 
        5.37218         12.5131        0.886977 
        5.38789         12.4243        0.880392 
        5.40357         12.3459        0.873882 
        5.41929         12.2792        0.867422 
        5.43502         12.1814        0.861028 
         5.4507         12.0823        0.854713 
        5.46639         11.9817         0.84846 
        5.48212         11.8984        0.842256 
        5.49786         11.8182        0.836105 
        5.51353         11.7471        0.830047 
        5.52921          11.649        0.824043 
        5.54495         11.5906        0.818081 
        5.56066         11.4826        0.812184 
        5.57637         11.3907        0.806346 
        5.59207         11.3225         0.80057 
        5.60778         11.2304        0.794849 
        5.62346         11.1405        0.789192 
        5.63916         11.0727        0.783584 
        5.65487         11.0024        0.778028 
         5.6706         10.9058        0.772519 
        5.68633         10.8259        0.767062 
        5.70203          10.752        0.761668 
        5.71773         10.6774        0.756328 
        5.73344          10.587        0.751035 
        5.74916         10.5368        0.745789 
        5.76486         10.4566        0.740599 
        5.78054          10.375        0.735467 
        5.79626         10.3211         0.73037 
          5.812         10.2274        0.725315 
         5.8277         10.1494        0.720323 
        5.84339         10.0903        0.715378 
        5.85911         10.0125         0.71047 
        5.87484         9.93377        0.705609 
        5.89053         9.87179        0.700803 
        5.90623         9.80213        0.696039 
        5.92195         9.73088        0.691312 
        5.93767         9.68876        0.686631 
        5.95336         9.59925        0.682001 
        5.96905         9.53375        0.677415 
        5.98476          9.4875        0.672866 
        6.00048         9.41527        0.668356 
        6.01617         9.34628        0.663894 
        6.03185         9.27684        0.659478 
        6.04756         9.19685        0.655091 
        6.06331         9.14919        0.650735 
        6.07903         9.10624        0.646428 
        6.09473         9.03901        0.642164 
        6.11044         8.96917        0.637934 
        6.12616         8.91733        0.633743 
        6.14186         8.83798        0.629594 
        6.15755          8.7886        0.625482 
        6.17326         8.74138        0.621404 
        6.18898          8.6769         0.61736 
        6.20467         8.59948         0.61336 
        6.22036         8.55063        0.609395 
         6.2361         8.50265        0.605455 
         6.2518         8.44289        0.601555 
        6.26748         8.37786        0.597699 
        6.28319         8.33267        0.593866 
        6.29893         8.27444        0.590063 
        6.31463         8.20755          0.5863 
        6.33033         8.16992        0.582571 
        6.34604         8.11283        0.578871 
        6.36177         8.05289        0.575201 
        6.37747         8.00475        0.571569 
