# k  (h/Mpc)    Pcb(k)  (Mpc/h)^3    Pcb_linear(k) (Mpc/h)^3   ShotnoiseSubtracted = true
      0.0200456         12513.1         12699.8 
      0.0350414         9413.22         9157.06 
      0.0492313         6776.12         6857.76 
      0.0637834          5502.4         5731.97 
      0.0800726         4171.68         4345.14 
       0.096163         3292.91         3174.23 
       0.111083         2790.86         2671.02 
       0.126058         2307.12         2340.89 
       0.142273         1916.58         1871.12 
       0.158546         1591.44         1505.84 
        0.17375         1434.96         1337.74 
       0.188953         1321.02         1190.51 
       0.204907         1106.52         1003.89 
       0.220756          997.21         861.651 
        0.23588         898.946         780.215 
         0.2514         803.858         702.337 
       0.267535         773.049         614.673 
       0.283568         677.199         545.905 
       0.299022         648.313         498.476 
       0.314451         656.675         454.255 
       0.330372         563.601         408.922 
       0.346141         522.267         371.624 
       0.361624           499.4          342.22 
       0.377134         468.448         315.132 
       0.392932         453.517         288.936 
       0.408854         431.406         266.031 
       0.424564         417.245         246.711 
       0.440253         378.044         229.054 
       0.455999         362.017         212.611 
       0.471626         363.756         198.025 
        0.48727         344.562         185.057 
       0.502856         317.122         173.209 
       0.518488         317.981         162.237 
       0.534347         295.709         152.107 
       0.550082         286.839         142.992 
       0.565732         285.135         134.647 
       0.581496          271.15         126.881 
       0.597222         263.653         119.746 
       0.612804         256.473         113.245 
       0.628434         246.766         107.214 
       0.644267         236.093          101.55 
       0.660051         232.157         96.3076 
       0.675724         229.381         91.4666 
       0.691403         223.026         86.9559 
       0.707174         215.007         82.7253 
       0.722871         211.589         78.7943 
        0.73838         210.005         75.1619 
       0.754018         198.941          71.732 
       0.769845         198.591         68.4798 
        0.78569         193.303         65.4273 
       0.801365         188.042         62.5918 
       0.817031         183.795         59.9271 
       0.832809         180.703         57.4013 
       0.848511         176.145         55.0331 
       0.864097         172.046         52.8154 
       0.879701         170.923         50.7183 
       0.895507         166.734         48.7108 
       0.911279         161.835         46.8167 
        0.92691         159.426         45.0393 
       0.942635         157.389         43.3449 
       0.958396         154.348         41.7344 
       0.974128         151.053         40.2089 
       0.989692         146.822         38.7751 
        1.00528         145.705         37.4095 
        1.02113         142.309         36.0884 
        1.03692         140.561         34.8364 
        1.05264         138.558         33.6498 
        1.06832         136.085         32.5206 
        1.08405         133.471         31.4404 
        1.09979         132.647         30.4088 
        1.11537         129.487          29.434 
        1.13105         127.993         28.4963 
        1.14679         125.821         27.5959 
        1.16256         123.686         26.7329 
        1.17828          122.07         25.9098 
        1.19395         119.183         25.1243 
         1.2097         118.287         24.3674 
        1.22537         116.233         23.6456 
          1.241         114.983         22.9552 
        1.25666         111.991         22.2908 
        1.27241         109.984         21.6497 
        1.28819         109.328         21.0328 
        1.30392         107.283         20.4418 
        1.31957         105.571         19.8762 
        1.33529         104.408         19.3301 
        1.35108         103.296         18.8023 
        1.36674         101.417         18.2981 
         1.3824         101.004          17.813 
        1.39811         98.2841         17.3438 
        1.41389          97.548         16.8898 
        1.42964         95.5203         16.4529 
        1.44531         94.7049         16.0336 
        1.46101          93.305         15.6281 
        1.47667         92.6638         15.2379 
        1.49229         91.5895         14.8621 
        1.50793         89.7105         14.4985 
        1.52367         89.0084         14.1449 
        1.53953         87.7497         13.8006 
        1.55526         86.3668         13.4707 
        1.57092         85.9884         13.1529 
        1.58662         84.6937         12.8446 
        1.60235         83.2219         12.5456 
        1.61809         82.4762         12.2561 
        1.63369         81.0516         11.9782 
        1.64941         81.0079         11.7071 
        1.66519         79.2198         11.4433 
        1.68085         78.2701         11.1896 
        1.69652         76.8407         10.9435 
        1.71228         76.1339         10.7034 
        1.72806         75.5743         10.4704 
        1.74368         74.3272         10.2467 
        1.75933         73.6229          10.029 
        1.77505         72.9738         9.81671 
        1.79081         71.5782         9.61018 
         1.8065         71.2712         9.41049 
        1.82218         69.7036         9.21666 
        1.83797         69.4257         9.02697 
        1.85367         68.2222         8.84368 
        1.86928         67.5759          8.6666 
        1.88497         66.8878          8.4934 
        1.90073          65.975         8.32431 
        1.91647         65.0656         8.15998 
        1.93218         64.4502         8.00045 
        1.94787         63.6141         7.84542 
        1.96363         62.8139          7.6939 
        1.97935         62.2007         7.54669 
        1.99499         61.4806         7.40418 
        2.01064         60.8085         7.26515 
         2.0264         59.9892         7.12882 
        2.04216         59.2498         6.99606 
        2.05781         58.5951         6.86752 
        2.07353         57.9031         6.74177 
        2.08928          57.198         6.61889 
        2.10499         56.6146         6.49941 
        2.12065         56.1057         6.38324 
        2.13633         55.5332         6.26982 
        2.15211         54.7188         6.15842 
        2.16785         53.8678         6.05004 
        2.18349         53.3445         5.94496 
        2.19916         52.7246         5.84216 
        2.21489         52.3034         5.74145 
        2.23063         51.4935         5.64305 
         2.2463         51.0515          5.5474 
        2.26194         50.7112         5.45421 
        2.27765         49.8577         5.36268 
        2.29341         49.2569         5.27302 
        2.30914         48.6434          5.1856 
        2.32486         48.1214         5.10021 
        2.34061         47.7896          5.0166 
        2.35635         46.9861         4.93495 
        2.37203         46.6154          4.8554 
        2.38768         46.1915         4.77776 
        2.40339         45.6799         4.70155 
        2.41914          45.165         4.62682 
        2.43483         44.4327         4.55399 
         2.4505         44.2272         4.48284 
        2.46622         43.7172         4.41297 
        2.48195         43.0965         4.34459 
        2.49759         42.5996         4.27802 
        2.51328         42.2811         4.21268 
        2.52906         41.7521         4.14829 
        2.54479         41.4161         4.08549 
        2.56049         40.6897         4.02411 
        2.57618         40.4134         3.96404 
        2.59189         39.9781         3.90511 
        2.60758         39.4128         3.84748 
        2.62325         39.2248         3.79107 
        2.63898           38.74         3.73561 
        2.65468          38.375         3.68137 
        2.67044         38.0524         3.62797 
        2.68618         37.6576         3.57576 
        2.70184         37.0197         3.52479 
        2.71755         36.8264         3.47468 
        2.73329         36.2083         3.42547 
        2.74897         35.9806         3.37738 
        2.76462         35.4554         3.33031 
        2.78034          35.229         3.28395 
        2.79607         34.7673         3.23842 
        2.81179         34.4688         3.19381 
        2.82749         34.0642         3.15009 
        2.84321         33.6676         3.10714 
        2.85893         33.3107         3.06501 
        2.87462         32.9742         3.02372 
        2.89033         32.7687         2.98317 
        2.90605         32.3778         2.94332 
        2.92176         32.1193         2.90422 
        2.93747          31.849         2.86585 
        2.95318          31.413         2.82816 
        2.96891         31.1206         2.79114 
        2.98456         30.8472         2.75494 
        3.00023         30.4532         2.71933 
        3.01596         30.2107         2.68425 
        3.03164         29.8512         2.64988 
        3.04738         29.6153         2.61601 
         3.0631         29.3816         2.58275 
        3.07883         28.9748         2.55006 
        3.09456          28.594         2.51795 
        3.11026         28.3551         2.48643 
        3.12596         28.0582         2.45546 
        3.14163          27.818         2.42509 
        3.15734         27.5078         2.39517 
        3.17308         27.2267         2.36567 
        3.18879         26.9694         2.33676 
        3.20447         26.7359         2.30837 
         3.2202         26.3944         2.28036 
         3.2359         26.1562         2.25287 
        3.25157         25.9489         2.22589 
        3.26729         25.6832         2.19928 
        3.28304         25.3088         2.17305 
        3.29877         25.0963         2.14728 
        3.31446         24.8641         2.12199 
        3.33014          24.681         2.09712 
        3.34585         24.4324         2.07262 
        3.36158         24.2032         2.04847 
        3.37727         23.9339         2.02478 
        3.39294         23.7051         2.00149 
        3.40867         23.4882         1.97848 
        3.42439         23.2813         1.95585 
        3.44008         23.0175         1.93361 
        3.45578         22.9251         1.91171 
        3.47153         22.5831         1.89009 
        3.48724         22.3763         1.86885 
        3.50292         22.1744         1.84798 
        3.51859         21.9722         1.82744 
        3.53431          21.759         1.80715 
        3.55007         21.5441         1.78712 
        3.56577         21.3841         1.76747 
        3.58146         21.1766         1.74812 
        3.59719         20.9314         1.72902 
        3.61292         20.7663         1.71021 
        3.62859         20.5309         1.69176 
        3.64429         20.2989         1.67353 
        3.66003         20.2258         1.65553 
        3.67578         20.0202         1.63779 
        3.69146         19.7814         1.62038 
        3.70712         19.6578         1.60326 
        3.72284         19.4426         1.58631 
        3.73853         19.2865         1.56965 
        3.75422         19.0343         1.55321 
        3.76993         18.9076           1.537 
        3.78564         18.7485         1.52103 
        3.80137         18.5821         1.50525 
        3.81707         18.4187         1.48974 
        3.83279          18.218         1.47443 
        3.84853         18.0482         1.45931 
        3.86424         17.8724         1.44443 
        3.87992         17.6979         1.42978 
        3.89561         17.6081         1.41533 
        3.91134         17.3458         1.40106 
        3.92704         17.2504         1.38699 
        3.94273         17.0798         1.37314 
        3.95845         16.9418         1.35945 
        3.97418         16.7549         1.34594 
        3.98988         16.6165         1.33263 
        4.00554          16.529         1.31954 
        4.02125          16.303         1.30659 
        4.03698         16.1394         1.29379 
        4.05268         16.0649         1.28119 
        4.06839         15.9181         1.26876 
         4.0841         15.7449         1.25648 
        4.09983         15.5989         1.24436 
        4.11555         15.4619          1.2324 
        4.13124         15.3673         1.22063 
        4.14693         15.2536           1.209 
        4.16266         15.1302          1.1975 
        4.17839         14.9754         1.18616 
        4.19408         14.8135         1.17498 
        4.20977         14.7072         1.16395 
        4.22551         14.5695         1.15303 
        4.24123          14.431         1.14226 
        4.25691         14.2729         1.13166 
        4.27259         14.2093         1.12119 
        4.28831         14.1175         1.11084 
        4.30404         13.9423          1.1006 
        4.31974         13.8532         1.09051 
        4.33543         13.7307         1.08056 
        4.35116         13.5985         1.07071 
        4.36688         13.4839         1.06098 
        4.38255         13.3875         1.05141 
        4.39825         13.2182         1.04194 
        4.41398         13.1589         1.03256 
         4.4297         13.0194         1.02331 
        4.44541         12.9082         1.01418 
        4.46111         12.8266         1.00516 
        4.47683         12.7142        0.996251 
        4.49251         12.5938        0.987464 
        4.50819         12.4985        0.978786 
         4.5239         12.3928          0.9702 
        4.53962         12.3039        0.961705 
        4.55535         12.1983        0.953309 
        4.57106         12.0979        0.945024 
        4.58678         12.0028        0.936837 
         4.6025         11.9105        0.928744 
        4.61821         11.8067        0.920748 
        4.63391         11.7092        0.912857 
         4.6496         11.6148        0.905062 
        4.66532         11.5112        0.897345 
        4.68103         11.4101        0.889722 
        4.69673         11.3068        0.882194 
        4.71241         11.2455        0.874762 
        4.72811         11.1728        0.867402 
        4.74384         11.0499        0.860118 
        4.75955          10.971        0.852928 
        4.77525         10.8739        0.845825 
        4.79096         10.8249        0.838794 
        4.80669         10.7388        0.831839 
         4.8224         10.6494        0.824971 
        4.83809         10.5553        0.818188 
        4.85379         10.4719        0.811477 
         4.8695         10.3626        0.804836 
        4.88521         10.3152        0.798272 
        4.90093         10.2396         0.79178 
        4.91663         10.1451        0.785366 
        4.93234          10.055        0.779017 
        4.94807          9.9852        0.772733 
        4.96377         9.91275        0.766531 
        4.97943         9.84076        0.760409 
        4.99514         9.71514        0.754339 
        5.01086          9.6913         0.74833 
        5.02654         9.61515        0.742402 
        5.04227         9.50571        0.736521 
          5.058         9.46681          0.7307 
        5.07371         9.37698        0.724954 
        5.08942         9.34212        0.719269 
        5.10513         9.23616        0.713644 
        5.12084         9.18549        0.708077 
        5.13656         9.10618         0.70257 
        5.15225         9.02571        0.697131 
        5.16796         8.96043        0.691741 
        5.18369         8.90711        0.686403 
         5.1994         8.83354        0.681131 
        5.21509         8.75025        0.675919 
        5.23079         8.68485        0.670755 
        5.24649         8.63033         0.66565 
        5.26217         8.54408        0.660601 
        5.27788         8.52256        0.655597 
        5.29359         8.42093        0.650644 
        5.30933         8.39257        0.645735 
        5.32504         8.32613        0.640885 
        5.34073         8.26607        0.636091 
        5.35646         8.18738        0.631335 
        5.37218         8.13414        0.626627 
        5.38789         8.06052        0.621975 
        5.40357         8.00447        0.617376 
        5.41929         7.96956        0.612812 
        5.43502         7.90245        0.608295 
         5.4507         7.83957        0.603833 
        5.46639         7.78868        0.599416 
        5.48212         7.72147        0.595033 
        5.49786         7.67149        0.590688 
        5.51353         7.62277        0.586408 
        5.52921          7.5807        0.582166 
        5.54495         7.51699        0.577954 
        5.56066         7.44954        0.573788 
        5.57637         7.40532        0.569663 
        5.59207         7.35369        0.565583 
        5.60778         7.30258        0.561541 
        5.62346         7.24513        0.557544 
        5.63916         7.20981        0.553583 
        5.65487         7.15535        0.549658 
         5.6706         7.08891        0.545766 
        5.68633         7.05025         0.54191 
        5.70203          6.9925          0.5381 
        5.71773         6.95292        0.534327 
        5.73344         6.91076        0.530588 
        5.74916         6.86109        0.526881 
        5.76486         6.81779        0.523215 
        5.78054         6.75785         0.51959 
        5.79626         6.70562        0.515988 
          5.812         6.67661        0.512417 
         5.8277         6.62449        0.508891 
        5.84339          6.5762        0.505397 
        5.85911         6.51913         0.50193 
        5.87484         6.48339        0.498495 
        5.89053          6.4463          0.4951 
        5.90623         6.40497        0.491735 
        5.92195         6.35616        0.488395 
        5.93767         6.30612        0.485088 
        5.95336         6.26739        0.481817 
        5.96905         6.23367        0.478577 
        5.98476         6.18178        0.475363 
        6.00048         6.14642        0.472177 
        6.01617         6.10452        0.469025 
        6.03185         6.05991        0.465905 
        6.04756          6.0186        0.462806 
        6.06331         5.98575        0.459728 
        6.07903          5.9416        0.456685 
        6.09473         5.90342        0.453673 
        6.11044         5.87449        0.450685 
        6.12616         5.81557        0.447724 
        6.14186          5.7882        0.444793 
        6.15755         5.74868        0.441888 
        6.17326         5.71436        0.439007 
        6.18898         5.67161         0.43615 
        6.20467         5.63126        0.433324 
        6.22036         5.59871        0.430523 
         6.2361         5.55546        0.427739 
         6.2518           5.518        0.424984 
        6.26748         5.49686         0.42226 
        6.28319          5.4523        0.419552 
        6.29893         5.42259        0.416865 
        6.31463         5.38908        0.414206 
        6.33033         5.35509        0.411572 
        6.34604         5.30869        0.408958 
        6.36177         5.28457        0.406365 
        6.37747         5.25024        0.403799 
