# k  (h/Mpc)    Pcb(k)  (Mpc/h)^3    Pcb_linear(k) (Mpc/h)^3   ShotnoiseSubtracted = true
      0.0200456         13252.7         13453.1 
      0.0350414         9975.89          9700.2 
      0.0492313         7171.27         7264.52 
      0.0637834         5820.82         6071.95 
      0.0800726         4412.43         4602.86 
       0.096163         3489.92         3362.51 
       0.111083         2957.65         2829.45 
       0.126058          2442.9         2479.74 
       0.142273         2033.31          1982.1 
       0.158546          1688.3         1595.16 
        0.17375         1523.36         1417.09 
       0.188953         1405.41         1261.12 
       0.204907         1178.97         1063.43 
       0.220756         1062.89         912.759 
        0.23588         958.067         826.492 
         0.2514         857.141         743.995 
       0.267535         825.047         651.131 
       0.283568          723.58         578.284 
       0.299022         692.925         528.042 
       0.314451         704.245         481.199 
       0.330372         605.002         433.176 
       0.346141         560.277         393.667 
       0.361624         536.137         362.519 
       0.377134         504.212         333.823 
       0.392932         487.563         306.074 
       0.408854         464.071         281.811 
       0.424564         449.364         261.344 
       0.440253         407.797          242.64 
       0.455999         390.665         225.222 
       0.471626         393.594          209.77 
        0.48727         372.456         196.033 
       0.502856         343.684         183.483 
       0.518488         344.208          171.86 
       0.534347         320.503         161.129 
       0.550082         310.258         151.473 
       0.565732         308.474         142.634 
       0.581496          294.76         134.407 
       0.597222         286.387         126.848 
       0.612804         278.828         119.962 
       0.628434         268.027         113.574 
       0.644267         256.718         107.573 
       0.660051         252.703          102.02 
       0.675724         249.467         96.8918 
       0.691403         242.699         92.1135 
       0.707174         233.757         87.6321 
       0.722871         230.063         83.4679 
        0.73838         228.294           79.62 
       0.754018         216.945         75.9867 
       0.769845         216.442         72.5416 
        0.78569          210.75          69.308 
       0.801365         205.104         66.3044 
       0.817031         200.789         63.4816 
       0.832809         197.434          60.806 
       0.848511         192.345         58.2973 
       0.864097          187.74         55.9481 
       0.879701         186.716         53.7266 
       0.895507         182.238            51.6 
       0.911279          176.84         49.5935 
        0.92691         174.425         47.7108 
       0.942635         172.589         45.9158 
       0.958396         168.861         44.2098 
       0.974128         165.398         42.5939 
       0.989692         160.508          41.075 
        1.00528         159.512         39.6284 
        1.02113           156.1          38.229 
        1.03692         153.677         36.9027 
        1.05264         151.421         35.6457 
        1.06832         149.472         34.4495 
        1.08405         146.074         33.3052 
        1.09979         145.222         32.2125 
        1.11537         141.974         31.1798 
        1.13105         140.129         30.1865 
        1.14679         137.989         29.2328 
        1.16256         135.703         28.3186 
        1.17828         133.907         27.4466 
        1.19395         130.716         26.6145 
         1.2097         129.751         25.8128 
        1.22537         127.893         25.0481 
          1.241          126.03         24.3168 
        1.25666         123.185         23.6129 
        1.27241         120.635         22.9338 
        1.28819         119.827         22.2803 
        1.30392         117.706         21.6543 
        1.31957         115.624         21.0552 
        1.33529          114.47         20.4766 
        1.35108         112.986         19.9176 
        1.36674         111.031         19.3835 
         1.3824         110.597         18.8695 
        1.39811         107.631         18.3725 
        1.41389         106.885         17.8916 
        1.42964         104.633         17.4288 
        1.44531         103.717         16.9847 
        1.46101         101.945         16.5551 
        1.47667         101.501         16.1417 
        1.49229         100.249         15.7436 
        1.50793         98.1499         15.3585 
        1.52367         97.2081         14.9838 
        1.53953         95.8573         14.6192 
        1.55526         94.6065         14.2697 
        1.57092         93.9385          13.933 
        1.58662         92.5252         13.6065 
        1.60235         90.8589         13.2898 
        1.61809         90.2099          12.983 
        1.63369         88.5703         12.6887 
        1.64941         88.4656         12.4014 
        1.66519         86.6557          12.122 
        1.68085          85.478         11.8533 
        1.69652         84.0004         11.5926 
        1.71228         83.2341         11.3383 
        1.72806         82.4175         11.0914 
        1.74368         81.0498         10.8544 
        1.75933         80.3743         10.6239 
        1.77505          79.574          10.399 
        1.79081         78.0974         10.1802 
         1.8065         77.5859         9.96866 
        1.82218         76.1949         9.76333 
        1.83797         75.8487         9.56239 
        1.85367         74.3456         9.36823 
        1.86928         73.7463         9.18064 
        1.88497         73.0169         8.99717 
        1.90073         72.0604         8.81805 
        1.91647         70.8873         8.64398 
        1.93218         70.1516         8.47498 
        1.94787         69.3103         8.31076 
        1.96363         68.4409         8.15025 
        1.97935         67.8428         7.99431 
        1.99499         66.9875         7.84335 
        2.01064         66.1274         7.69607 
         2.0264         65.1897         7.55165 
        2.04216         64.4317         7.41102 
        2.05781         63.7678         7.27486 
        2.07353         63.0089         7.14164 
        2.08928         62.1792         7.01148 
        2.10499         61.5197         6.88491 
        2.12065         60.9854         6.76185 
        2.13633         60.3261          6.6417 
        2.15211         59.4382          6.5237 
        2.16785         58.4373         6.40889 
        2.18349         57.9777         6.29758 
        2.19916         57.2997         6.18867 
        2.21489         56.6231         6.08199 
        2.23063         55.8789         5.97775 
         2.2463         55.3879         5.87643 
        2.26194         54.9369         5.77771 
        2.27765         54.0731         5.68076 
        2.29341         53.4662         5.58578 
        2.30914         52.7247         5.49317 
        2.32486         52.1303         5.40272 
        2.34061         51.7921         5.31415 
        2.35635         50.9329         5.22766 
        2.37203         50.4929         5.14339 
        2.38768         50.0012         5.06115 
        2.40339         49.4564         4.98041 
        2.41914         48.8184         4.90125 
        2.43483         48.2211          4.8241 
         2.4505         47.8718         4.74873 
        2.46622         47.3246         4.67472 
        2.48195         46.6702         4.60228 
        2.49759         46.0929         4.53177 
        2.51328         45.7899         4.46255 
        2.52906         45.1329         4.39434 
        2.54479         44.7596         4.32781 
        2.56049         43.9763         4.26279 
        2.57618         43.6405         4.19916 
        2.59189         43.2776         4.13674 
        2.60758         42.5666         4.07568 
        2.62325         42.2614         4.01593 
        2.63898         41.8666         3.95718 
        2.65468         41.4577         3.89972 
        2.67044         41.0309         3.84316 
        2.68618         40.6351         3.78785 
        2.70184         39.9603         3.73385 
        2.71755         39.7155         3.68077 
        2.73329         39.1441         3.62865 
        2.74897         38.9079          3.5777 
        2.76462         38.3244         3.52784 
        2.78034         37.9959         3.47873 
        2.79607         37.5343         3.43051 
        2.81179         37.2383         3.38325 
        2.82749         36.7412         3.33694 
        2.84321         36.3951         3.29144 
        2.85893         35.9232          3.2468 
        2.87462         35.5203         3.20307 
        2.89033         35.3057         3.16011 
        2.90605         34.8368          3.1179 
        2.92176         34.5939         3.07648 
        2.93747         34.3071         3.03583 
        2.95318         33.8818         2.99591 
        2.96891         33.4756         2.95669 
        2.98456         33.2438         2.91835 
        3.00023         32.8335         2.88063 
        3.01596         32.5231         2.84346 
        3.03164         32.1798         2.80705 
        3.04738         31.8468         2.77118 
         3.0631         31.6761         2.73594 
        3.07883         31.2154         2.70131 
        3.09456         30.7774         2.66729 
        3.11026         30.5361         2.63391 
        3.12596         30.2445         2.60111 
        3.14163         29.9558         2.56894 
        3.15734         29.6203         2.53723 
        3.17308          29.357         2.50599 
        3.18879         29.0248         2.47536 
        3.20447         28.7437         2.44528 
         3.2202         28.4638         2.41562 
         3.2359         28.2035         2.38649 
        3.25157         27.9734         2.35792 
        3.26729         27.6091         2.32973 
        3.28304         27.2888         2.30194 
        3.29877         26.9881         2.27464 
        3.31446         26.7712         2.24785 
        3.33014          26.537         2.22151 
        3.34585         26.2915         2.19555 
        3.36158         26.0369         2.16997 
        3.37727         25.7723         2.14488 
        3.39294         25.4846         2.12021 
        3.40867         25.2375         2.09583 
        3.42439         25.0637         2.07186 
        3.44008         24.8071          2.0483 
        3.45578         24.6438          2.0251 
        3.47153         24.3093          2.0022 
        3.48724         24.0617         1.97969 
        3.50292         23.8475         1.95759 
        3.51859         23.5924         1.93583 
        3.53431         23.3792         1.91434 
        3.55007          23.141         1.89312 
        3.56577         22.9318          1.8723 
        3.58146         22.7593         1.85181 
        3.59719         22.5109         1.83158 
        3.61292         22.3229         1.81165 
        3.62859         22.1074          1.7921 
        3.64429           21.84          1.7728 
        3.66003         21.7237         1.75372 
        3.67578         21.4929         1.73493 
        3.69146         21.3019         1.71649 
        3.70712         21.1183         1.69835 
        3.72284         20.9415          1.6804 
        3.73853         20.7604         1.66275 
        3.75422         20.4491         1.64534 
        3.76993         20.3063         1.62817 
        3.78564         20.1285         1.61125 
        3.80137          19.955         1.59454 
        3.81707         19.8139          1.5781 
        3.83279         19.6065         1.56188 
        3.84853          19.407         1.54586 
        3.86424         19.2187          1.5301 
        3.87992         19.0396         1.51459 
        3.89561          18.942         1.49928 
        3.91134         18.6381         1.48416 
        3.92704         18.5741         1.46926 
        3.94273         18.3476         1.45458 
        3.95845         18.2181         1.44008 
        3.97418         17.9954         1.42577 
        3.98988         17.8712         1.41168 
        4.00554         17.7623         1.39781 
        4.02125          17.522         1.38409 
        4.03698          17.367         1.37053 
        4.05268         17.2339         1.35719 
        4.06839         17.0992         1.34401 
         4.0841         16.8922         1.33101 
        4.09983          16.739         1.31817 
        4.11555         16.6114          1.3055 
        4.13124         16.5036         1.29303 
        4.14693         16.3449         1.28071 
        4.16266         16.2575         1.26853 
        4.17839         16.0884         1.25651 
        4.19408         15.9068         1.24467 
        4.20977         15.7986         1.23299 
        4.22551         15.6502         1.22142 
        4.24123         15.5069         1.21001 
        4.25691         15.3269         1.19879 
        4.27259         15.2646         1.18769 
        4.28831         15.1398         1.17672 
        4.30404         14.9852         1.16588 
        4.31974         14.8868         1.15519 
        4.33543         14.7539         1.14465 
        4.35116         14.5997         1.13421 
        4.36688         14.5018         1.12391 
        4.38255         14.3826         1.11377 
        4.39825         14.1965         1.10374 
        4.41398         14.1451         1.09381 
         4.4297         14.0061         1.08401 
        4.44541         13.8485         1.07433 
        4.46111         13.7772         1.06478 
        4.47683         13.6289         1.05534 
        4.49251         13.5301         1.04603 
        4.50819         13.4156         1.03684 
         4.5239         13.2991         1.02775 
        4.53962         13.2043         1.01875 
        4.55535         13.0846         1.00985 
        4.57106         13.0055         1.00108 
        4.58678         12.8674        0.992404 
         4.6025         12.7811        0.983831 
        4.61821         12.6746        0.975361 
        4.63391         12.5691        0.967002 
         4.6496         12.4499        0.958744 
        4.66532         12.3391         0.95057 
        4.68103         12.2511        0.942494 
        4.69673         12.1471         0.93452 
        4.71241         12.0657        0.926647 
        4.72811         11.9586        0.918851 
        4.74384         11.8727        0.911134 
        4.75955         11.7735        0.903519 
        4.77525         11.6614        0.895994 
        4.79096         11.5865        0.888546 
        4.80669         11.5108        0.881179 
         4.8224          11.405        0.873903 
        4.83809         11.3372        0.866718 
        4.85379         11.2257        0.859609 
         4.8695         11.1414        0.852574 
        4.88521         11.0599         0.84562 
        4.90093         10.9737        0.838744 
        4.91663         10.9005        0.831949 
        4.93234         10.8084        0.825223 
        4.94807         10.7295        0.818567 
        4.96377          10.643        0.811996 
        4.97943         10.5691        0.805512 
        4.99514          10.449        0.799081 
        5.01086         10.3932        0.792716 
        5.02654          10.302        0.786436 
        5.04227         10.1855        0.780206 
          5.058         10.1482        0.774041 
        5.07371         10.0757        0.767954 
        5.08942         10.0147        0.761931 
        5.10513         9.91401        0.755973 
        5.12084         9.85475        0.750076 
        5.13656         9.77643        0.744242 
        5.15225         9.68681         0.73848 
        5.16796         9.62442        0.732771 
        5.18369         9.56197        0.727116 
         5.1994         9.46164        0.721531 
        5.21509         9.40631         0.71601 
        5.23079         9.30594         0.71054 
        5.24649         9.25795        0.705132 
        5.26217         9.17949        0.699783 
        5.27788         9.13537        0.694483 
        5.29359         9.03945        0.689236 
        5.30933          9.0019        0.684036 
        5.32504         8.91549        0.678899 
        5.34073         8.87274        0.673819 
        5.35646          8.7833        0.668782 
        5.37218          8.7276        0.663795 
        5.38789         8.65359        0.658867 
        5.40357         8.58659        0.653994 
        5.41929         8.53413         0.64916 
        5.43502         8.46702        0.644375 
         5.4507         8.39812        0.639649 
        5.46639         8.35911         0.63497 
        5.48212         8.27526        0.630326 
        5.49786         8.20923        0.625724 
        5.51353         8.17141         0.62119 
        5.52921         8.11017        0.616696 
        5.54495          8.0576        0.612234 
        5.56066         7.98581        0.607821 
        5.57637         7.92652        0.603452 
        5.59207         7.87828         0.59913 
        5.60778         7.81433        0.594848 
        5.62346          7.7734        0.590614 
        5.63916         7.72274        0.586418 
        5.65487         7.66558         0.58226 
         5.6706         7.59342        0.578137 
        5.68633         7.54396        0.574053 
        5.70203         7.48067        0.570016 
        5.71773         7.44532         0.56602 
        5.73344         7.40393        0.562059 
        5.74916         7.34561        0.558133 
        5.76486         7.30296        0.554249 
        5.78054         7.23988        0.550408 
        5.79626          7.1719        0.546593 
          5.812          7.1353        0.542811 
         5.8277         7.09908        0.539075 
        5.84339         7.04664        0.535374 
        5.85911         6.98314        0.531701 
        5.87484         6.94907        0.528063 
        5.89053         6.89021        0.524466 
        5.90623         6.84259        0.520901 
        5.92195         6.80125        0.517363 
        5.93767         6.75151         0.51386 
        5.95336         6.71982        0.510395 
        5.96905         6.66306        0.506963 
        5.98476         6.61797        0.503558 
        6.00048         6.57753        0.500183 
        6.01617         6.52938        0.496844 
        6.03185         6.49029        0.493539 
        6.04756         6.44271        0.490256 
        6.06331         6.39547        0.486996 
        6.07903         6.35245        0.483773 
        6.09473         6.31433        0.480582 
        6.11044         6.28534        0.477416 
        6.12616         6.21994         0.47428 
        6.14186         6.19512        0.471175 
        6.15755         6.14336        0.468098 
        6.17326         6.11823        0.465046 
        6.18898         6.06685        0.462019 
        6.20467         6.02901        0.459026 
        6.22036         6.00116        0.456058 
         6.2361         5.94429        0.453109 
         6.2518         5.90597        0.450191 
        6.26748         5.86775        0.447305 
        6.28319         5.83052        0.444437 
        6.29893         5.79718        0.441591 
        6.31463         5.75681        0.438774 
        6.33033           5.728        0.435984 
        6.34604          5.6836        0.433215 
        6.36177         5.63811        0.430468 
        6.37747         5.62092         0.42775 
