# k  (h/Mpc)    Pcb(k)  (Mpc/h)^3    Pcb_linear(k) (Mpc/h)^3   ShotnoiseSubtracted = true
      0.0200456         8919.63         9044.62 
      0.0350414         6686.94         6521.51 
      0.0492313         4848.01         4883.99 
      0.0637834         3946.57         4082.22 
      0.0800726         2994.47         3094.54 
       0.096163         2337.91         2260.64 
       0.111083         1981.12         1902.26 
       0.126058         1646.67         1667.15 
       0.142273         1354.39         1332.58 
       0.158546          1123.4         1072.44 
        0.17375         1009.95         952.716 
       0.188953         919.476          847.86 
       0.204907         764.028         714.952 
       0.220756         687.297         613.654 
        0.23588         619.614         555.656 
         0.2514         553.627         500.193 
       0.267535         527.252          437.76 
       0.283568         460.336         388.785 
       0.299022         438.927         355.006 
       0.314451         435.506         323.513 
       0.330372         374.024         291.228 
       0.346141          346.79         264.665 
       0.361624         329.657         243.724 
       0.377134         304.981         224.432 
       0.392932         296.446         205.775 
       0.408854         280.733         189.463 
       0.424564         269.625         175.703 
       0.440253         243.389         163.128 
       0.455999         231.045         151.418 
       0.471626         228.133          141.03 
        0.48727         217.914         131.795 
       0.502856         199.003         123.357 
       0.518488          198.48         115.543 
       0.534347          184.76         108.328 
       0.550082         180.541         101.836 
       0.565732         177.999         95.8937 
       0.581496         165.265         90.3628 
       0.597222         161.592          85.281 
       0.612804         156.376         80.6512 
       0.628434         151.557         76.3565 
       0.644267         144.162         72.3221 
       0.660051         140.269         68.5887 
       0.675724         138.698         65.1411 
       0.691403          134.96         61.9286 
       0.707174         130.261         58.9157 
       0.722871          128.08          56.116 
        0.73838         125.851         53.5291 
       0.754018             118         51.0864 
       0.769845         117.599         48.7702 
        0.78569         114.369         46.5963 
       0.801365         110.801         44.5769 
       0.817031         107.435         42.6791 
       0.832809         105.513         40.8803 
       0.848511         103.051         39.1937 
       0.864097         101.209         37.6143 
       0.879701         99.5687         36.1208 
       0.895507          96.014         34.6911 
       0.911279         94.3045         33.3421 
        0.92691         91.8161         32.0763 
       0.942635         89.8316         30.8695 
       0.958396         89.3087         29.7225 
       0.974128         87.2232         28.6362 
       0.989692         85.2491          27.615 
        1.00528          83.727         26.6424 
        1.02113         81.6713         25.7016 
        1.03692          81.499         24.8099 
        1.05264         80.1537         23.9648 
        1.06832          77.411         23.1606 
        1.08405         76.7255         22.3913 
        1.09979         76.0829         21.6567 
        1.11537          73.929         20.9624 
        1.13105         72.6984         20.2946 
        1.14679         71.6301         19.6534 
        1.16256         70.2504         19.0388 
        1.17828         69.5827         18.4526 
        1.19395         67.6413         17.8931 
         1.2097         67.8103         17.3541 
        1.22537          66.076           16.84 
          1.241         65.7621         16.3483 
        1.25666         63.5311         15.8752 
        1.27241         63.4318         15.4186 
        1.28819         62.6662         14.9792 
        1.30392         61.3721         14.5583 
        1.31957         61.0221         14.1555 
        1.33529         60.0187         13.7666 
        1.35108         59.2912         13.3907 
        1.36674         58.3703         13.0316 
         1.3824         57.5759         12.6861 
        1.39811         56.4574          12.352 
        1.41389          55.623         12.0287 
        1.42964         55.1685         11.7175 
        1.44531         54.3267         11.4189 
        1.46101         53.8074         11.1301 
        1.47667          52.961         10.8522 
        1.49229         52.2504         10.5845 
        1.50793         51.7074         10.3256 
        1.52367         51.1585         10.0737 
        1.53953         50.4408          9.8286 
        1.55526         49.5996         9.59359 
        1.57092         49.3224         9.36726 
        1.58662         48.5827         9.14772 
        1.60235         47.9638          8.9348 
        1.61809         47.1961         8.72858 
        1.63369         46.5912         8.53071 
        1.64941         46.1911         8.33757 
        1.66519         45.2903         8.14974 
        1.68085         45.0179         7.96904 
        1.69652         44.1334         7.79379 
        1.71228         43.9693         7.62282 
        1.72806         43.2922         7.45685 
        1.74368         42.7198         7.29751 
        1.75933         42.4368         7.14251 
        1.77505         42.0224          6.9913 
        1.79081         41.4559         6.84422 
         1.8065         40.8303           6.702 
        1.82218         40.0066         6.56396 
        1.83797         39.7916         6.42887 
        1.85367         39.3723         6.29833 
        1.86928         39.2257         6.17221 
        1.88497         38.3944         6.04886 
        1.90073         38.0094         5.92844 
        1.91647         37.8523         5.81141 
        1.93218         37.6559         5.69779 
        1.94787         37.0341         5.58738 
        1.96363         36.3635         5.47947 
        1.97935         36.1509         5.37463 
        1.99499         35.7215         5.27314 
        2.01064         35.2356         5.17412 
         2.0264         35.0228         5.07703 
        2.04216         34.6483         4.98248 
        2.05781         34.1904         4.89094 
        2.07353         33.7053         4.80138 
        2.08928         33.6392         4.71387 
        2.10499         33.2622         4.62877 
        2.12065         32.7953         4.54604 
        2.13633         32.6247         4.46526 
        2.15211         31.9965         4.38593 
        2.16785         31.6421         4.30874 
        2.18349         31.3651         4.23391 
        2.19916         31.0421         4.16069 
        2.21489         30.7862         4.08897 
        2.23063         30.5191         4.01889 
         2.2463         30.2673         3.95077 
        2.26194         29.7895          3.8844 
        2.27765          29.516         3.81922 
        2.29341         29.2102         3.75536 
        2.30914         28.8727          3.6931 
        2.32486         28.5496         3.63229 
        2.34061         28.3426         3.57274 
        2.35635         28.0518         3.51459 
        2.37203         27.8048         3.45793 
        2.38768         27.5414         3.40265 
        2.40339         27.3378         3.34837 
        2.41914         27.0284         3.29515 
        2.43483         26.8859         3.24328 
         2.4505         26.4259         3.19261 
        2.46622         26.1292         3.14285 
        2.48195         25.9551         3.09415 
        2.49759         25.5234         3.04674 
        2.51328          25.376          3.0002 
        2.52906         25.2072         2.95435 
        2.54479          24.891         2.90962 
        2.56049         24.8342          2.8659 
        2.57618         24.4897         2.82313 
        2.59189         24.1684         2.78116 
        2.60758         24.0134         2.74011 
        2.62325           23.69         2.69994 
        2.63898         23.6064         2.66044 
        2.65468         23.2916         2.62181 
        2.67044         23.0584         2.58378 
        2.68618         22.8074          2.5466 
        2.70184         22.5557          2.5103 
        2.71755          22.384         2.47461 
        2.73329         22.1128         2.43957 
        2.74897         21.9935         2.40531 
        2.76462         21.8194         2.37179 
        2.78034         21.4894         2.33878 
        2.79607         21.2938         2.30635 
        2.81179         21.1119         2.27458 
        2.82749         20.9257         2.24345 
        2.84321         20.7296         2.21286 
        2.85893         20.5305         2.18285 
        2.87462         20.3576         2.15345 
        2.89033         20.1857         2.12456 
        2.90605         19.9136         2.09618 
        2.92176         19.6663         2.06834 
        2.93747         19.5763         2.04101 
        2.95318         19.4604         2.01417 
        2.96891         19.1707          1.9878 
        2.98456         19.0774         1.96203 
        3.00023         18.7794         1.93667 
        3.01596         18.5779         1.91168 
        3.03164         18.4714          1.8872 
        3.04738          18.322         1.86308 
         3.0631         18.1369         1.83939 
        3.07883         17.9576         1.81611 
        3.09456         17.8108         1.79324 
        3.11026         17.6309          1.7708 
        3.12596         17.4231         1.74874 
        3.14163          17.315         1.72711 
        3.15734         17.1743          1.7058 
        3.17308         17.0232         1.68479 
        3.18879         16.7894          1.6642 
        3.20447         16.7125         1.64398 
         3.2202         16.4774         1.62404 
         3.2359         16.3593         1.60446 
        3.25157          16.241         1.58525 
        3.26729          16.081         1.56629 
        3.28304         15.9919         1.54761 
        3.29877         15.8837         1.52926 
        3.31446         15.6943         1.51125 
        3.33014         15.4961         1.49354 
        3.34585          15.457         1.47609 
        3.36158         15.2608         1.45889 
        3.37727         15.1229         1.44202 
        3.39294         14.9684         1.42543 
        3.40867         14.8707         1.40904 
        3.42439         14.7263         1.39292 
        3.44008          14.583         1.37709 
        3.45578         14.4472         1.36149 
        3.47153         14.3469         1.34609 
        3.48724         14.2247         1.33096 
        3.50292         14.1295          1.3161 
        3.51859         13.9873         1.30147 
        3.53431         13.8549         1.28702 
        3.55007         13.7353         1.27276 
        3.56577         13.6378         1.25876 
        3.58146         13.4919         1.24498 
        3.59719         13.3817         1.23138 
        3.61292         13.2641         1.21799 
        3.62859         13.1319         1.20484 
        3.64429         13.0326         1.19186 
        3.66003         12.9321         1.17904 
        3.67578         12.8455         1.16641 
        3.69146         12.7409         1.15401 
        3.70712         12.5883         1.14181 
        3.72284         12.4713         1.12975 
        3.73853         12.4026         1.11788 
        3.75422         12.2498         1.10617 
        3.76993         12.1572         1.09463 
        3.78564         12.0832         1.08325 
        3.80137         11.9639         1.07202 
        3.81707         11.8344         1.06097 
        3.83279         11.7959         1.05006 
        3.84853         11.6555          1.0393 
        3.86424         11.5644          1.0287 
        3.87992         11.4655         1.01827 
        3.89561         11.3639         1.00798 
        3.91134         11.2864        0.997811 
        3.92704         11.2023        0.987796 
        3.94273         11.1105        0.977928 
        3.95845         10.9983        0.968176 
        3.97418         10.8992        0.958556 
        3.98988         10.8404         0.94908 
        4.00554         10.7274        0.939757 
        4.02125         10.6402        0.930533 
        4.03698         10.5815        0.921418 
        4.05268         10.4719        0.912446 
        4.06839         10.3662        0.903587 
         4.0841         10.2847        0.894849 
        4.09983         10.2141        0.886213 
        4.11555         10.1293        0.877695 
        4.13124         10.0376        0.869313 
        4.14693          9.9491        0.861032 
        4.16266         9.88951        0.852841 
        4.17839         9.79207        0.844761 
        4.19408          9.7264        0.836804 
        4.20977         9.62208        0.828945 
        4.22551         9.56507        0.821169 
        4.24123          9.4992        0.813501 
        4.25691          9.3926        0.805952 
        4.27259         9.31938        0.798496 
        4.28831         9.23921        0.791119 
        4.30404         9.19567        0.783828 
        4.31974         9.10537        0.776646 
        4.33543         9.02417        0.769557 
        4.35116         8.96323         0.76254 
        4.36688         8.88664        0.755612 
        4.38255         8.82954        0.748797 
        4.39825         8.73049        0.742051 
        4.41398         8.66688        0.735375 
         4.4297         8.59078        0.728788 
        4.44541         8.54931        0.722282 
        4.46111         8.45357        0.715861 
        4.47683         8.40412        0.709514 
        4.49251         8.32461        0.703256 
        4.50819         8.28019        0.697076 
         4.5239         8.21863        0.690961 
        4.53962         8.12663        0.684911 
        4.55535         8.08474        0.678931 
        4.57106         8.00602        0.673031 
        4.58678         7.97494          0.6672 
         4.6025         7.88388        0.661437 
        4.61821         7.82096        0.655742 
        4.63391         7.75902        0.650122 
         4.6496         7.70726         0.64457 
        4.66532         7.65558        0.639075 
        4.68103          7.5716        0.633646 
        4.69673         7.53406        0.628285 
        4.71241         7.46045        0.622991 
        4.72811          7.3937         0.61775 
        4.74384         7.37601        0.612562 
        4.75955         7.31296        0.607442 
        4.77525         7.26447        0.602383 
        4.79096         7.20057        0.597376 
        4.80669         7.12866        0.592423 
         4.8224           7.086        0.587531 
        4.83809         7.04118        0.582701 
        4.85379         6.98633        0.577921 
         4.8695         6.95048        0.573191 
        4.88521         6.86884        0.568517 
        4.90093         6.84525        0.563893 
        4.91663         6.79385        0.559325 
        4.93234          6.7324        0.554803 
        4.94807         6.67469        0.550328 
        4.96377         6.63564        0.545911 
        4.97943         6.56632        0.541551 
        4.99514         6.52874        0.537228 
        5.01086         6.48345        0.532949 
        5.02654         6.43307        0.528727 
        5.04227         6.38883        0.524538 
          5.058         6.33668        0.520393 
        5.07371         6.32357        0.516301 
        5.08942         6.25072        0.512252 
        5.10513         6.21767        0.508246 
        5.12084         6.16317        0.504281 
        5.13656         6.12214        0.500359 
        5.15225         6.07139        0.496486 
        5.16796          6.0361        0.492647 
        5.18369         5.99385        0.488845 
         5.1994         5.95054        0.485091 
        5.21509         5.90231        0.481379 
        5.23079         5.86546        0.477701 
        5.24649         5.82118        0.474065 
        5.26217         5.78592        0.470469 
        5.27788         5.74182        0.466906 
        5.29359         5.70963        0.463378 
        5.30933         5.66032        0.459882 
        5.32504         5.62814        0.456428 
        5.34073         5.58791        0.453014 
        5.35646         5.54653        0.449627 
        5.37218         5.50999        0.446274 
        5.38789         5.46787        0.442961 
        5.40357         5.42012        0.439685 
        5.41929         5.39091        0.436435 
        5.43502         5.35539        0.433218 
         5.4507         5.31647         0.43004 
        5.46639         5.27322        0.426895 
        5.48212         5.25003        0.423773 
        5.49786         5.20814        0.420678 
        5.51353         5.17629         0.41763 
        5.52921         5.13336        0.414609 
        5.54495         5.10691        0.411609 
        5.56066         5.07313        0.408642 
        5.57637         5.03717        0.405705 
        5.59207         4.99749        0.402799 
        5.60778         4.96991        0.399921 
        5.62346         4.93269        0.397074 
        5.63916         4.89018        0.394253 
        5.65487         4.86213        0.391457 
         5.6706         4.83252        0.388686 
        5.68633         4.80505         0.38594 
        5.70203         4.76398        0.383226 
        5.71773         4.74105        0.380539 
        5.73344         4.70871        0.377876 
        5.74916         4.67256        0.375236 
        5.76486         4.65115        0.372625 
        5.78054         4.60916        0.370043 
        5.79626         4.57618        0.367478 
          5.812         4.54978        0.364935 
         5.8277         4.52389        0.362424 
        5.84339          4.4931        0.359936 
        5.85911          4.4674        0.357466 
        5.87484         4.42269         0.35502 
        5.89053         4.40089        0.352602 
        5.90623         4.38111        0.350206 
        5.92195         4.35781        0.347827 
        5.93767         4.30589        0.345472 
        5.95336         4.29548        0.343142 
        5.96905          4.2754        0.340835 
        5.98476         4.24239        0.338546 
        6.00048         4.21258        0.336277 
        6.01617         4.18722        0.334032 
        6.03185          4.1576         0.33181 
        6.04756         4.13485        0.329603 
        6.06331         4.10893        0.327411 
        6.07903         4.07949        0.325244 
        6.09473         4.05936        0.323098 
        6.11044         4.02576         0.32097 
        6.12616         4.00991        0.318862 
        6.14186          3.9724        0.316774 
        6.15755         3.95178        0.314705 
        6.17326         3.92694        0.312654 
        6.18898         3.90634        0.310619 
        6.20467         3.87369        0.308606 
        6.22036         3.85961        0.306611 
         6.2361          3.8242        0.304629 
         6.2518         3.80391        0.302667 
        6.26748           3.779        0.300727 
        6.28319         3.76353        0.298798 
        6.29893         3.73776        0.296885 
        6.31463         3.71862        0.294991 
        6.33033         3.69512        0.293115 
        6.34604         3.66938        0.291254 
        6.36177         3.65093        0.289407 
        6.37747         3.63335        0.287579 
