# k  (h/Mpc)    Pcb(k)  (Mpc/h)^3    Pcb_linear(k) (Mpc/h)^3   ShotnoiseSubtracted = true
      0.0200456         6918.97         7012.68 
      0.0350414         5175.15         5056.41 
      0.0492313         3768.41         3786.77 
      0.0637834         3073.34         3165.12 
      0.0800726         2333.08         2399.33 
       0.096163         1808.24         1752.77 
       0.111083          1531.4          1474.9 
       0.126058         1278.29         1292.61 
       0.142273         1045.22         1033.21 
       0.158546         865.286         831.507 
        0.17375         776.871         738.682 
       0.188953          702.49         657.382 
       0.204907         581.116         554.333 
       0.220756         521.955         475.793 
        0.23588          470.42         430.824 
         0.2514         420.698         387.821 
       0.267535         396.528         339.414 
       0.283568         346.332         301.441 
       0.299022         328.672         275.252 
       0.314451         321.273         250.834 
       0.330372         277.251         225.801 
       0.346141         256.591         205.206 
       0.361624         242.557          188.97 
       0.377134         222.876         174.012 
       0.392932         216.586         159.547 
       0.408854         204.118         146.899 
       0.424564         195.177          136.23 
       0.440253           176.6          126.48 
       0.455999         165.853         117.401 
       0.471626         161.673         109.347 
        0.48727         155.536         102.186 
       0.502856         142.182         95.6439 
       0.518488         140.046         89.5854 
       0.534347         131.127         83.9914 
       0.550082         127.909         78.9581 
       0.565732         125.074         74.3505 
       0.581496         115.345         70.0622 
       0.597222          112.58          66.122 
       0.612804         108.801         62.5324 
       0.628434         105.849         59.2024 
       0.644267         100.377         56.0744 
       0.660051         97.1567         53.1798 
       0.675724         95.3342         50.5067 
       0.691403         93.0922         48.0159 
       0.707174         89.8499         45.6799 
       0.722871         87.9608         43.5092 
        0.73838         85.3148         41.5034 
       0.754018         80.3305         39.6095 
       0.769845          79.732         37.8137 
        0.78569         77.2801         36.1281 
       0.801365         74.9838         34.5624 
       0.817031         72.4069          33.091 
       0.832809         71.0776         31.6963 
       0.848511          69.394         30.3886 
       0.864097         68.1203          29.164 
       0.879701         66.7207          28.006 
       0.895507         64.2123         26.8975 
       0.911279         63.2587         25.8516 
        0.92691         61.3853         24.8701 
       0.942635         60.1042         23.9345 
       0.958396         59.8803         23.0452 
       0.974128         58.3982         22.2029 
       0.989692         56.8314         21.4111 
        1.00528         55.7695          20.657 
        1.02113         54.5635         19.9276 
        1.03692         54.2345         19.2362 
        1.05264         53.0104          18.581 
        1.06832         51.6176         17.9574 
        1.08405         50.7054          17.361 
        1.09979         50.4641         16.7914 
        1.11537         48.9745         16.2531 
        1.13105         47.8215         15.7353 
        1.14679          47.287         15.2381 
        1.16256         46.5799         14.7616 
        1.17828         45.9905         14.3071 
        1.19395         44.7732         13.8733 
         1.2097         44.7539         13.4554 
        1.22537         43.6592         13.0568 
          1.241         43.0367         12.6756 
        1.25666         42.1321         12.3087 
        1.27241         41.9342         11.9547 
        1.28819         40.8267          11.614 
        1.30392          40.468         11.2877 
        1.31957         40.0656         10.9754 
        1.33529         39.3237         10.6738 
        1.35108         38.6275         10.3824 
        1.36674           38.17          10.104 
         1.3824         37.5481         9.83609 
        1.39811         36.8549         9.57703 
        1.41389         36.4039         9.32635 
        1.42964         36.1173         9.08509 
        1.44531         35.3079         8.85357 
        1.46101         35.1073         8.62965 
        1.47667         34.6435         8.41417 
        1.49229         34.0272         8.20664 
        1.50793         33.7129         8.00591 
        1.52367         33.1353         7.81061 
        1.53953         32.9488         7.62054 
        1.55526         32.3905         7.43833 
        1.57092         32.0082         7.26284 
        1.58662         31.5187         7.09262 
        1.60235         31.1339         6.92754 
        1.61809          30.796         6.76764 
        1.63369         30.4595         6.61422 
        1.64941         30.0322         6.46448 
        1.66519         29.5684         6.31884 
        1.68085         29.1766         6.17874 
        1.69652         28.8766         6.04286 
        1.71228          28.705          5.9103 
        1.72806          28.181         5.78162 
        1.74368         27.8483         5.65807 
        1.75933         27.6275          5.5379 
        1.77505         27.4113         5.42066 
        1.79081         27.0248         5.30662 
         1.8065          26.628         5.19635 
        1.82218         26.3339         5.08932 
        1.83797         26.1679         4.98458 
        1.85367         25.7951         4.88337 
        1.86928         25.7565         4.78558 
        1.88497         25.2325         4.68995 
        1.90073         25.0082         4.59658 
        1.91647         24.7538         4.50584 
        1.93218         24.7284         4.41774 
        1.94787         24.3535         4.33214 
        1.96363         24.0324         4.24847 
        1.97935         23.7166         4.16719 
        1.99499         23.5801         4.08849 
        2.01064         23.2274         4.01172 
         2.0264         23.0372         3.93644 
        2.04216         22.9185         3.86313 
        2.05781         22.6192         3.79216 
        2.07353         22.3916         3.72272 
        2.08928         22.0172         3.65486 
        2.10499         21.8587         3.58889 
        2.12065         21.6398         3.52474 
        2.13633         21.5006         3.46211 
        2.15211         21.1335          3.4006 
        2.16785         21.1023         3.34076 
        2.18349         20.8038         3.28273 
        2.19916         20.6237         3.22596 
        2.21489         20.3808         3.17035 
        2.23063         20.2821         3.11602 
         2.2463         20.0279          3.0632 
        2.26194         19.8315         3.01174 
        2.27765         19.5541          2.9612 
        2.29341         19.3849         2.91169 
        2.30914         19.1973         2.86342 
        2.32486         19.0858         2.81627 
        2.34061          18.899          2.7701 
        2.35635         18.6215         2.72501 
        2.37203         18.5095         2.68109 
        2.38768         18.3345         2.63822 
        2.40339         18.2452         2.59613 
        2.41914         18.0213         2.55487 
        2.43483         17.8372         2.51465 
         2.4505         17.5909         2.47537 
        2.46622         17.5176         2.43679 
        2.48195         17.3123         2.39903 
        2.49759         17.0689         2.36227 
        2.51328         17.0101         2.32619 
        2.52906         16.8758         2.29063 
        2.54479         16.6721         2.25595 
        2.56049         16.5337         2.22206 
        2.57618         16.4728         2.18889 
        2.59189         16.2188         2.15635 
        2.60758         16.0243         2.12453 
        2.62325         15.9386         2.09338 
        2.63898         15.8356         2.06275 
        2.65468         15.6362          2.0328 
        2.67044         15.4794         2.00332 
        2.68618         15.3922         1.97449 
        2.70184         15.2168         1.94634 
        2.71755         15.0691         1.91867 
        2.73329         14.9493          1.8915 
        2.74897         14.8183         1.86494 
        2.76462         14.7076         1.83895 
        2.78034          14.533         1.81335 
        2.79607          14.437         1.78822 
        2.81179         14.3102         1.76358 
        2.82749         14.1723         1.73944 
        2.84321         14.0614         1.71572 
        2.85893         13.8641         1.69246 
        2.87462         13.8265         1.66966 
        2.89033         13.6765         1.64727 
        2.90605         13.5655         1.62526 
        2.92176         13.4357         1.60367 
        2.93747          13.319         1.58248 
        2.95318         13.2155         1.56167 
        2.96891         13.0945         1.54123 
        2.98456         12.9833         1.52124 
        3.00023         12.8716         1.50158 
        3.01596         12.7903         1.48221 
        3.03164         12.6708         1.46323 
        3.04738           12.55         1.44453 
         3.0631         12.4235         1.42616 
        3.07883         12.3468         1.40811 
        3.09456         12.2346         1.39038 
        3.11026          12.156         1.37298 
        3.12596         12.0464         1.35588 
        3.14163         11.9272         1.33911 
        3.15734         11.8149         1.32258 
        3.17308         11.7617         1.30629 
        3.18879         11.6139         1.29033 
        3.20447         11.5668         1.27465 
         3.2202         11.4352         1.25918 
         3.2359         11.3357           1.244 
        3.25157         11.2886         1.22911 
        3.26729         11.1437         1.21441 
        3.28304         11.0465         1.19993 
        3.29877         11.0101          1.1857 
        3.31446         10.8929         1.17173 
        3.33014         10.8152           1.158 
        3.34585          10.688         1.14447 
        3.36158         10.6176         1.13114 
        3.37727          10.568         1.11806 
        3.39294         10.4612          1.1052 
        3.40867         10.3585         1.09249 
        3.42439         10.2668         1.07999 
        3.44008         10.2177         1.06772 
        3.45578         10.0933         1.05562 
        3.47153         10.0505         1.04368 
        3.48724         9.97672         1.03195 
        3.50292         9.88508         1.02043 
        3.51859         9.80543         1.00909 
        3.53431         9.69348        0.997884 
        3.55007         9.64137        0.986823 
        3.56577         9.53732        0.975973 
        3.58146         9.45619         0.96529 
        3.59719         9.38308        0.954743 
        3.61292         9.35478        0.944358 
        3.62859         9.26705        0.934165 
        3.64429         9.17766        0.924104 
        3.66003         9.11837         0.91416 
        3.67578         9.03203        0.904366 
        3.69146         8.98291        0.894753 
        3.70712         8.89749        0.885297 
        3.72284         8.82344        0.875942 
        3.73853         8.76392        0.866739 
        3.75422         8.70046        0.857665 
        3.76993         8.60159        0.848713 
        3.78564         8.55815        0.839892 
        3.80137         8.49243        0.831182 
        3.81707         8.41294        0.822614 
        3.83279         8.32778         0.81416 
        3.84853         8.28849        0.805811 
        3.86424         8.22993        0.797595 
        3.87992         8.18565        0.789506 
        3.89561         8.10159        0.781529 
        3.91134         8.03538        0.773646 
        3.92704         7.96674        0.765881 
        3.94273         7.91005        0.758229 
        3.95845         7.85148        0.750669 
        3.97418         7.78448         0.74321 
        3.98988         7.74052        0.735862 
        4.00554         7.67088        0.728634 
        4.02125         7.62747        0.721482 
        4.03698         7.56083        0.714415 
        4.05268         7.49167        0.707459 
        4.06839          7.4167         0.70059 
         4.0841         7.37648        0.693815 
        4.09983         7.32003        0.687119 
        4.11555         7.23483        0.680515 
        4.13124         7.19347        0.674015 
        4.14693          7.1364        0.667595 
        4.16266         7.08516        0.661244 
        4.17839         7.03948        0.654979 
        4.19408         6.99573         0.64881 
        4.20977         6.90389        0.642717 
        4.22551         6.87873        0.636688 
        4.24123          6.8409        0.630743 
        4.25691         6.78832        0.624889 
        4.27259         6.70106        0.619108 
        4.28831         6.67026        0.613389 
        4.30404         6.62362        0.607736 
        4.31974         6.56783        0.602167 
        4.33543         6.50927        0.596671 
        4.35116         6.45451         0.59123 
        4.36688         6.41689        0.585859 
        4.38255         6.37347        0.580575 
        4.39825          6.3126        0.575344 
        4.41398         6.26711        0.570168 
         4.4297         6.22666         0.56506 
        4.44541         6.17792        0.560017 
        4.46111         6.15541        0.555038 
        4.47683         6.09277        0.550117 
        4.49251         6.05618        0.545265 
        4.50819         6.01076        0.540473 
         4.5239          5.9447        0.535732 
        4.53962         5.91577        0.531041 
        4.55535         5.86544        0.526405 
        4.57106         5.82673         0.52183 
        4.58678         5.78237        0.517309 
         4.6025         5.73899         0.51284 
        4.61821         5.71151        0.508425 
        4.63391         5.64911        0.504068 
         4.6496         5.61816        0.499763 
        4.66532         5.57721        0.495502 
        4.68103         5.54288        0.491293 
        4.69673         5.50288        0.487136 
        4.71241         5.45769        0.483032 
        4.72811         5.41728        0.478968 
        4.74384         5.39769        0.474946 
        4.75955         5.34328        0.470976 
        4.77525         5.30793        0.467054 
        4.79096         5.27522        0.463171 
        4.80669         5.22598        0.459331 
         4.8224         5.19838        0.455538 
        4.83809          5.1578        0.451793 
        4.85379         5.11219        0.448087 
         4.8695         5.08793         0.44442 
        4.88521         5.05645        0.440795 
        4.90093         5.01049        0.437211 
        4.91663         4.97298        0.433669 
        4.93234         4.95224        0.430163 
        4.94807          4.9072        0.426693 
        4.96377         4.87436        0.423268 
        4.97943         4.84253        0.419888 
        4.99514         4.80044        0.416536 
        5.01086         4.77818        0.413218 
        5.02654         4.74949        0.409945 
        5.04227         4.71031        0.406697 
          5.058         4.66774        0.403483 
        5.07371         4.64126         0.40031 
        5.08942         4.61887        0.397171 
        5.10513         4.58613        0.394065 
        5.12084         4.55715        0.390991 
        5.13656         4.50897         0.38795 
        5.15225         4.48583        0.384947 
        5.16796         4.46276         0.38197 
        5.18369         4.41934        0.379023 
         5.1994          4.3913        0.376112 
        5.21509         4.36803        0.373234 
        5.23079         4.33942        0.370382 
        5.24649         4.30838        0.367563 
        5.26217          4.2766        0.364775 
        5.27788         4.25918        0.362012 
        5.29359         4.22247        0.359277 
        5.30933         4.19851        0.356567 
        5.32504         4.17183        0.353889 
        5.34073         4.14487        0.351241 
        5.35646         4.12027        0.348615 
        5.37218         4.07785        0.346016 
        5.38789         4.06348        0.343447 
        5.40357         4.02995        0.340907 
        5.41929         4.00596        0.338387 
        5.43502         3.97598        0.335892 
         5.4507         3.95576        0.333429 
        5.46639         3.92563         0.33099 
        5.48212         3.91085        0.328569 
        5.49786         3.87738         0.32617 
        5.51353         3.85242        0.323807 
        5.52921         3.83516        0.321465 
        5.54495         3.80527        0.319139 
        5.56066         3.78158        0.316838 
        5.57637         3.75268        0.314561 
        5.59207           3.729        0.312308 
        5.60778           3.714        0.310076 
        5.62346         3.68653        0.307869 
        5.63916         3.65902        0.305681 
        5.65487         3.64124        0.303514 
         5.6706         3.62518        0.301365 
        5.68633         3.59965        0.299236 
        5.70203         3.57131        0.297132 
        5.71773         3.55157        0.295048 
        5.73344         3.52929        0.292984 
        5.74916         3.50875        0.290937 
        5.76486         3.48261        0.288913 
        5.78054         3.46499        0.286911 
        5.79626         3.44152        0.284922 
          5.812         3.41955         0.28295 
         5.8277         3.39275        0.281003 
        5.84339         3.38432        0.279074 
        5.85911         3.35862        0.277159 
        5.87484         3.33701        0.275263 
        5.89053         3.31635        0.273388 
        5.90623         3.29994        0.271529 
        5.92195         3.27826        0.269685 
        5.93767         3.25592        0.267859 
        5.95336          3.2424        0.266053 
        5.96905         3.21362        0.264264 
        5.98476         3.20583        0.262489 
        6.00048         3.17361         0.26073 
        6.01617         3.15878        0.258989 
        6.03185         3.14373        0.257266 
        6.04756         3.11632        0.255555 
        6.06331         3.10348        0.253856 
        6.07903         3.08054        0.252176 
        6.09473         3.06929        0.250512 
        6.11044         3.04497        0.248862 
        6.12616         3.03087        0.247227 
        6.14186          3.0117        0.245609 
        6.15755         2.99378        0.244005 
        6.17326         2.97676        0.242414 
        6.18898         2.95526        0.240836 
        6.20467         2.93966        0.239276 
        6.22036         2.92262        0.237729 
         6.2361         2.91051        0.236192 
         6.2518         2.89143        0.234671 
        6.26748         2.87496        0.233166 
        6.28319         2.85471        0.231671 
        6.29893         2.84267        0.230187 
        6.31463         2.82642        0.228719 
        6.33033         2.81279        0.227265 
        6.34604         2.79396        0.225821 
        6.36177         2.78228        0.224389 
        6.37747         2.75983        0.222973 
