# k  (h/Mpc)    Pcb(k)  (Mpc/h)^3    Pcb_linear(k) (Mpc/h)^3   ShotnoiseSubtracted = true
      0.0200456         12454.5         12699.8 
      0.0350414         8873.12         9157.06 
      0.0492313         6775.01         6857.76 
      0.0637834         5825.95         5731.97 
      0.0800726         4440.13         4345.14 
       0.096163          3110.8         3174.23 
       0.111083         2581.81         2671.02 
       0.126058         2363.13         2340.89 
       0.142273         1964.12         1871.12 
       0.158546         1671.71         1505.84 
        0.17375         1379.93         1337.74 
       0.188953         1323.26         1190.51 
       0.204907         1217.25         1003.89 
       0.220756         1043.74         861.651 
        0.23588         931.555         780.215 
         0.2514         811.564         702.337 
       0.267535         786.784         614.673 
       0.283568         714.713         545.905 
       0.299022         670.437         498.476 
       0.314451         631.696         454.255 
       0.330372         581.395         408.922 
       0.346141         530.923         371.624 
       0.361624         510.857          342.22 
       0.377134         474.415         315.132 
       0.392932         452.083         288.936 
       0.408854          434.68         266.031 
       0.424564         411.609         246.711 
       0.440253         399.862         229.054 
       0.455999         376.213         212.611 
       0.471626         352.449         198.025 
        0.48727         341.727         185.057 
       0.502856         330.825         173.209 
       0.518488         327.314         162.237 
       0.534347         306.885         152.107 
       0.550082         290.128         142.992 
       0.565732          287.03         134.647 
       0.581496         271.312         126.881 
       0.597222         265.756         119.746 
       0.612804         256.961         113.245 
       0.628434         247.134         107.214 
       0.644267         239.504          101.55 
       0.660051          235.78         96.3076 
       0.675724         231.375         91.4666 
       0.691403         224.545         86.9559 
       0.707174         215.505         82.7253 
       0.722871         213.311         78.7943 
        0.73838           208.9         75.1619 
       0.754018          203.25          71.732 
       0.769845         196.484         68.4798 
        0.78569         195.222         65.4273 
       0.801365         188.812         62.5918 
       0.817031         183.051         59.9271 
       0.832809         180.536         57.4013 
       0.848511         175.855         55.0331 
       0.864097         173.446         52.8154 
       0.879701         169.534         50.7183 
       0.895507         165.167         48.7108 
       0.911279          161.01         46.8167 
        0.92691         160.524         45.0393 
       0.942635         156.368         43.3449 
       0.958396         156.019         41.7344 
       0.974128         151.678         40.2089 
       0.989692         147.868         38.7751 
        1.00528         145.548         37.4095 
        1.02113         144.672         36.0884 
        1.03692         139.512         34.8364 
        1.05264         137.615         33.6498 
        1.06832         134.996         32.5206 
        1.08405         133.033         31.4404 
        1.09979         132.491         30.4088 
        1.11537         128.118          29.434 
        1.13105         127.261         28.4963 
        1.14679         126.386         27.5959 
        1.16256         124.316         26.7329 
        1.17828         121.474         25.9098 
        1.19395           119.8         25.1243 
         1.2097             118         24.3674 
        1.22537         116.874         23.6456 
          1.241         114.513         22.9552 
        1.25666         112.513         22.2908 
        1.27241         110.864         21.6497 
        1.28819         109.296         21.0328 
        1.30392         107.878         20.4418 
        1.31957         106.417         19.8762 
        1.33529         104.137         19.3301 
        1.35108         103.075         18.8023 
        1.36674         102.185         18.2981 
         1.3824         100.018          17.813 
        1.39811         99.0594         17.3438 
        1.41389         97.5809         16.8898 
        1.42964         95.9262         16.4529 
        1.44531         93.9112         16.0336 
        1.46101         93.0175         15.6281 
        1.47667         92.3431         15.2379 
        1.49229         90.6453         14.8621 
        1.50793         89.8156         14.4985 
        1.52367         88.6121         14.1449 
        1.53953         87.1133         13.8006 
        1.55526         86.3507         13.4707 
        1.57092         85.5294         13.1529 
        1.58662         83.7435         12.8446 
        1.60235         83.3827         12.5456 
        1.61809         81.8957         12.2561 
        1.63369         81.1055         11.9782 
        1.64941         80.2953         11.7071 
        1.66519         78.3708         11.4433 
        1.68085         77.8832         11.1896 
        1.69652         76.2101         10.9435 
        1.71228         76.1623         10.7034 
        1.72806         74.8925         10.4704 
        1.74368         74.0196         10.2467 
        1.75933         72.8786          10.029 
        1.77505         72.2679         9.81671 
        1.79081         71.0199         9.61018 
         1.8065         70.3126         9.41049 
        1.82218         69.1925         9.21666 
        1.83797         68.6476         9.02697 
        1.85367         67.8285         8.84368 
        1.86928         67.5381          8.6666 
        1.88497          66.097          8.4934 
        1.90073         65.2151         8.32431 
        1.91647         64.9306         8.15998 
        1.93218         63.8293         8.00045 
        1.94787         63.0234         7.84542 
        1.96363         62.1085          7.6939 
        1.97935         61.8991         7.54669 
        1.99499         60.8263         7.40418 
        2.01064         60.4338         7.26515 
         2.0264         59.1413         7.12882 
        2.04216         58.6335         6.99606 
        2.05781           57.96         6.86752 
        2.07353         57.1522         6.74177 
        2.08928         56.4619         6.61889 
        2.10499         56.0144         6.49941 
        2.12065         55.3992         6.38324 
        2.13633         54.8918         6.26982 
        2.15211         54.4687         6.15842 
        2.16785         53.7303         6.05004 
        2.18349         53.2981         5.94496 
        2.19916         52.5039         5.84216 
        2.21489          52.067         5.74145 
        2.23063         51.4967         5.64305 
         2.2463         50.8927          5.5474 
        2.26194         50.0263         5.45421 
        2.27765         49.7073         5.36268 
        2.29341          49.101         5.27302 
        2.30914         48.3621          5.1856 
        2.32486         47.6579         5.10021 
        2.34061         47.3079          5.0166 
        2.35635         46.7952         4.93495 
        2.37203         46.1982          4.8554 
        2.38768         45.8073         4.77776 
        2.40339         45.2836         4.70155 
        2.41914         44.9241         4.62682 
        2.43483         44.4735         4.55399 
         2.4505         44.0098         4.48284 
        2.46622         43.5586         4.41297 
        2.48195         43.0182         4.34459 
        2.49759         42.4149         4.27802 
        2.51328         41.9497         4.21268 
        2.52906         41.5468         4.14829 
        2.54479         41.0563         4.08549 
        2.56049         40.5061         4.02411 
        2.57618         40.2336         3.96404 
        2.59189          39.722         3.90511 
        2.60758         39.3599         3.84748 
        2.62325         38.8798         3.79107 
        2.63898         38.5402         3.73561 
        2.65468         37.9761         3.68137 
        2.67044         37.4821         3.62797 
        2.68618         37.2909         3.57576 
        2.70184         36.8957         3.52479 
        2.71755          36.639         3.47468 
        2.73329         36.0142         3.42547 
        2.74897         35.6816         3.37738 
        2.76462         35.1982         3.33031 
        2.78034         35.0382         3.28395 
        2.79607         34.5896         3.23842 
        2.81179          34.251         3.19381 
        2.82749         33.7583         3.15009 
        2.84321         33.5279         3.10714 
        2.85893         33.1481         3.06501 
        2.87462         32.7103         3.02372 
        2.89033         32.4118         2.98317 
        2.90605         32.2364         2.94332 
        2.92176         31.8711         2.90422 
        2.93747         31.5789         2.86585 
        2.95318         31.1322         2.82816 
        2.96891         30.7686         2.79114 
        2.98456         30.5791         2.75494 
        3.00023          30.182         2.71933 
        3.01596          29.835         2.68425 
        3.03164         29.6793         2.64988 
        3.04738         29.3765         2.61601 
         3.0631         29.0482         2.58275 
        3.07883         28.7411         2.55006 
        3.09456         28.4485         2.51795 
        3.11026         28.1704         2.48643 
        3.12596         27.9291         2.45546 
        3.14163         27.6032         2.42509 
        3.15734         27.3959         2.39517 
        3.17308         27.0102         2.36567 
        3.18879         26.8082         2.33676 
        3.20447         26.5549         2.30837 
         3.2202         26.2572         2.28036 
         3.2359         26.0347         2.25287 
        3.25157         25.8855         2.22589 
        3.26729         25.6023         2.19928 
        3.28304         25.2932         2.17305 
        3.29877         24.9769         2.14728 
        3.31446         24.7878         2.12199 
        3.33014         24.5603         2.09712 
        3.34585         24.4298         2.07262 
        3.36158         24.0308         2.04847 
        3.37727         23.8115         2.02478 
        3.39294         23.6598         2.00149 
        3.40867           23.37         1.97848 
        3.42439         23.1442         1.95585 
        3.44008         22.9435         1.93361 
        3.45578         22.7827         1.91171 
        3.47153         22.5004         1.89009 
        3.48724         22.2596         1.86885 
        3.50292         22.1475         1.84798 
        3.51859         21.8644         1.82744 
        3.53431         21.6879         1.80715 
        3.55007         21.4457         1.78712 
        3.56577         21.2433         1.76747 
        3.58146         21.1361         1.74812 
        3.59719         20.8555         1.72902 
        3.61292         20.6977         1.71021 
        3.62859         20.4634         1.69176 
        3.64429         20.2918         1.67353 
        3.66003         20.1215         1.65553 
        3.67578         19.8833         1.63779 
        3.69146         19.7612         1.62038 
        3.70712         19.5385         1.60326 
        3.72284         19.3838         1.58631 
        3.73853         19.1754         1.56965 
        3.75422         18.9982         1.55321 
        3.76993         18.8475           1.537 
        3.78564         18.6374         1.52103 
        3.80137         18.5012         1.50525 
        3.81707         18.3547         1.48974 
        3.83279         18.1613         1.47443 
        3.84853         17.9903         1.45931 
        3.86424         17.8467         1.44443 
        3.87992         17.6793         1.42978 
        3.89561         17.4924         1.41533 
        3.91134         17.3902         1.40106 
        3.92704          17.208         1.38699 
        3.94273         17.0622         1.37314 
        3.95845         16.8738         1.35945 
        3.97418         16.7584         1.34594 
        3.98988         16.5791         1.33263 
        4.00554          16.453         1.31954 
        4.02125         16.2922         1.30659 
        4.03698          16.136         1.29379 
        4.05268         16.0263         1.28119 
        4.06839         15.8387         1.26876 
         4.0841         15.7804         1.25648 
        4.09983         15.5572         1.24436 
        4.11555         15.4538          1.2324 
        4.13124         15.3411         1.22063 
        4.14693         15.1552           1.209 
        4.16266         15.0398          1.1975 
        4.17839         14.9264         1.18616 
        4.19408          14.781         1.17498 
        4.20977          14.662         1.16395 
        4.22551         14.5477         1.15303 
        4.24123         14.4541         1.14226 
        4.25691         14.3272         1.13166 
        4.27259         14.1816         1.12119 
        4.28831         14.0242         1.11084 
        4.30404         13.9503          1.1006 
        4.31974         13.8092         1.09051 
        4.33543         13.6896         1.08056 
        4.35116         13.5733         1.07071 
        4.36688         13.4733         1.06098 
        4.38255         13.3397         1.05141 
        4.39825         13.2654         1.04194 
        4.41398         13.1406         1.03256 
         4.4297         13.0072         1.02331 
        4.44541         12.9302         1.01418 
        4.46111         12.8328         1.00516 
        4.47683         12.7027        0.996251 
        4.49251         12.6031        0.987464 
        4.50819         12.5042        0.978786 
         4.5239         12.4156          0.9702 
        4.53962         12.2899        0.961705 
        4.55535           12.19        0.953309 
        4.57106         12.0908        0.945024 
        4.58678         11.9751        0.936837 
         4.6025         11.8821        0.928744 
        4.61821         11.7931        0.920748 
        4.63391         11.7276        0.912857 
         4.6496         11.5931        0.905062 
        4.66532         11.4905        0.897345 
        4.68103         11.3842        0.889722 
        4.69673         11.3382        0.882194 
        4.71241         11.2187        0.874762 
        4.72811         11.1342        0.867402 
        4.74384         11.0374        0.860118 
        4.75955         10.9567        0.852928 
        4.77525         10.8702        0.845825 
        4.79096          10.789        0.838794 
        4.80669         10.6996        0.831839 
         4.8224         10.6117        0.824971 
        4.83809         10.5569        0.818188 
        4.85379         10.4479        0.811477 
         4.8695         10.4082        0.804836 
        4.88521         10.2821        0.798272 
        4.90093         10.2152         0.79178 
        4.91663         10.1182        0.785366 
        4.93234         10.0467        0.779017 
        4.94807         9.96902        0.772733 
        4.96377          9.8902        0.766531 
        4.97943         9.82408        0.760409 
        4.99514         9.74747        0.754339 
        5.01086         9.67017         0.74833 
        5.02654         9.59438        0.742402 
        5.04227         9.53066        0.736521 
          5.058         9.43223          0.7307 
        5.07371         9.38674        0.724954 
        5.08942         9.30993        0.719269 
        5.10513         9.22319        0.713644 
        5.12084         9.16979        0.708077 
        5.13656          9.1076         0.70257 
        5.15225         9.04135        0.697131 
        5.16796         8.95312        0.691741 
        5.18369         8.90094        0.686403 
         5.1994         8.82145        0.681131 
        5.21509         8.76964        0.675919 
        5.23079         8.68398        0.670755 
        5.24649         8.62916         0.66565 
        5.26217         8.55104        0.660601 
        5.27788         8.50219        0.655597 
        5.29359         8.43648        0.650644 
        5.30933         8.36686        0.645735 
        5.32504          8.3056        0.640885 
        5.34073         8.26165        0.636091 
        5.35646         8.18355        0.631335 
        5.37218          8.1255        0.626627 
        5.38789         8.08102        0.621975 
        5.40357         8.02838        0.617376 
        5.41929         7.95058        0.612812 
        5.43502         7.88843        0.608295 
         5.4507         7.83265        0.603833 
        5.46639         7.78128        0.599416 
        5.48212         7.72826        0.595033 
        5.49786         7.68036        0.590688 
        5.51353         7.61328        0.586408 
        5.52921         7.56945        0.582166 
        5.54495         7.51552        0.577954 
        5.56066          7.4567        0.573788 
        5.57637         7.40219        0.569663 
        5.59207         7.36007        0.565583 
        5.60778         7.29867        0.561541 
        5.62346         7.24644        0.557544 
        5.63916         7.19935        0.553583 
        5.65487         7.14612        0.549658 
         5.6706         7.08921        0.545766 
        5.68633         7.04542         0.54191 
        5.70203         7.00135          0.5381 
        5.71773          6.9465        0.534327 
        5.73344         6.89829        0.530588 
        5.74916         6.85921        0.526881 
        5.76486         6.81922        0.523215 
        5.78054         6.75336         0.51959 
        5.79626         6.70864        0.515988 
          5.812         6.65776        0.512417 
         5.8277         6.62321        0.508891 
        5.84339         6.58169        0.505397 
        5.85911         6.53186         0.50193 
        5.87484         6.49707        0.498495 
        5.89053         6.44246          0.4951 
        5.90623         6.39245        0.491735 
        5.92195         6.35689        0.488395 
        5.93767           6.313        0.485088 
        5.95336         6.27167        0.481817 
        5.96905         6.22378        0.478577 
        5.98476         6.19075        0.475363 
        6.00048         6.15056        0.472177 
        6.01617         6.10775        0.469025 
        6.03185         6.05911        0.465905 
        6.04756         6.02511        0.462806 
        6.06331         5.98911        0.459728 
        6.07903         5.95162        0.456685 
        6.09473         5.90451        0.453673 
        6.11044         5.85271        0.450685 
        6.12616         5.82134        0.447724 
        6.14186         5.79771        0.444793 
        6.15755          5.7491        0.441888 
        6.17326         5.70064        0.439007 
        6.18898         5.66464         0.43615 
        6.20467         5.63526        0.433324 
        6.22036         5.59489        0.430523 
         6.2361         5.55568        0.427739 
         6.2518         5.52104        0.424984 
        6.26748         5.48949         0.42226 
        6.28319         5.44413        0.419552 
        6.29893         5.41491        0.416865 
        6.31463         5.38423        0.414206 
        6.33033         5.34132        0.411572 
        6.34604         5.30769        0.408958 
        6.36177         5.28001        0.406365 
        6.37747         5.25447        0.403799 
