# k  (h/Mpc)    Pcb(k)  (Mpc/h)^3    Pcb_linear(k) (Mpc/h)^3   ShotnoiseSubtracted = true
      0.0200456         26327.8         26817.1 
      0.0350414         19989.8         19336.1 
      0.0492313         14067.2         14480.9 
      0.0637834         11371.6         12103.7 
      0.0800726         8602.33         9175.22 
       0.096163         6999.33         6702.73 
       0.111083         5905.77         5640.15 
       0.126058            4849         4943.05 
       0.142273         4149.77         3951.07 
       0.158546         3429.42         3179.75 
        0.17375         3146.07         2824.78 
       0.188953         2995.77         2513.88 
       0.204907         2557.57         2119.81 
       0.220756         2327.32         1819.47 
        0.23588         2093.92         1647.51 
         0.2514         1906.98         1483.06 
       0.267535         1827.24         1297.95 
       0.283568         1644.92         1152.74 
       0.299022         1568.18         1052.58 
       0.314451         1636.54         959.209 
       0.330372         1472.26         863.483 
       0.346141         1354.46         784.725 
       0.361624         1299.06         722.635 
       0.377134         1253.26         665.434 
       0.392932          1186.1         610.119 
       0.408854         1146.01         561.754 
       0.424564         1124.47         520.956 
       0.440253         1054.64         483.672 
       0.455999         1008.72         448.951 
       0.471626          1018.9          418.15 
        0.48727          966.76         390.767 
       0.502856          942.89          365.75 
       0.518488         906.178         342.582 
       0.534347         879.076          321.19 
       0.550082         842.742         301.942 
       0.565732         825.053         284.322 
       0.581496          806.38         267.923 
       0.597222         796.487         252.856 
       0.612804         775.503         239.129 
       0.628434             746         226.395 
       0.644267         727.133         214.433 
       0.660051          718.94         203.364 
       0.675724         707.004         193.142 
       0.691403         680.256         183.617 
       0.707174         665.016         174.683 
       0.722871         662.405         166.383 
        0.73838         641.903         158.712 
       0.754018          632.76          151.47 
       0.769845         621.428         144.602 
        0.78569         607.503         138.157 
       0.801365         590.359         132.169 
       0.817031         582.452         126.543 
       0.832809         572.238         121.209 
       0.848511         561.411         116.208 
       0.864097         553.563         111.525 
       0.879701          555.93         107.097 
       0.895507         534.896         102.858 
       0.911279         530.377         98.8584 
        0.92691         520.084         95.1054 
       0.942635         512.455         91.5274 
       0.958396         501.818         88.1266 
       0.974128         492.779         84.9055 
       0.989692         482.626         81.8779 
        1.00528         474.923         78.9941 
        1.02113         466.927         76.2046 
        1.03692         460.651         73.5608 
        1.05264         454.718         71.0552 
        1.06832         444.773         68.6707 
        1.08405         442.034         66.3897 
        1.09979         432.017         64.2115 
        1.11537         422.547          62.153 
        1.13105         417.682         60.1729 
        1.14679         410.396         58.2718 
        1.16256         407.645         56.4495 
        1.17828         401.413         54.7114 
        1.19395         392.718         53.0526 
         1.2097         386.405         51.4545 
        1.22537         381.761         49.9301 
          1.241         374.492         48.4724 
        1.25666         370.181         47.0694 
        1.27241         367.635         45.7156 
        1.28819         357.913          44.413 
        1.30392         355.347         43.1651 
        1.31957         348.938         41.9708 
        1.33529         343.589         40.8175 
        1.35108         343.475         39.7032 
        1.36674         334.751         38.6385 
         1.3824         327.985          37.614 
        1.39811         324.478         36.6233 
        1.41389         319.986         35.6647 
        1.42964          314.74         34.7421 
        1.44531         309.374         33.8568 
        1.46101         302.239         33.0005 
        1.47667         301.642         32.1765 
        1.49229         298.314         31.3829 
        1.50793         291.517         30.6152 
        1.52367         287.013         29.8684 
        1.53953         283.814         29.1415 
        1.55526         278.203         28.4448 
        1.57092         276.048         27.7737 
        1.58662         270.966         27.1227 
        1.60235         266.802         26.4915 
        1.61809         264.582           25.88 
        1.63369         259.499         25.2933 
        1.64941           256.9         24.7207 
        1.66519         252.703         24.1638 
        1.68085         248.476          23.628 
        1.69652         245.519         23.1084 
        1.71228         242.017         22.6015 
        1.72806         238.608         22.1094 
        1.74368         235.051         21.6369 
        1.75933         232.989         21.1774 
        1.77505         229.132          20.729 
        1.79081         226.101         20.2929 
         1.8065         224.608         19.8713 
        1.82218         219.089          19.462 
        1.83797          217.54         19.0614 
        1.85367          213.96         18.6744 
        1.86928         210.099         18.3005 
        1.88497         208.307         17.9347 
        1.90073         206.382         17.5777 
        1.91647         203.075         17.2307 
        1.93218         199.664         16.8938 
        1.94787         196.188         16.5665 
        1.96363         195.204         16.2465 
        1.97935         192.045         15.9357 
        1.99499         190.171         15.6347 
        2.01064         185.729         15.3411 
         2.0264         185.115         15.0533 
        2.04216         181.541         14.7729 
        2.05781         179.925         14.5015 
        2.07353         178.259          14.236 
        2.08928         176.439         13.9765 
        2.10499         172.955         13.7242 
        2.12065         171.244         13.4789 
        2.13633         168.766         13.2394 
        2.15211         166.736         13.0042 
        2.16785         164.878         12.7753 
        2.18349         162.541         12.5534 
        2.19916         161.681         12.3363 
        2.21489         158.272         12.1237 
        2.23063         156.484         11.9159 
         2.2463         154.895         11.7139 
        2.26194          152.97         11.5171 
        2.27765         150.941         11.3239 
        2.29341         149.283         11.1346 
        2.30914         146.926         10.9499 
        2.32486         145.661         10.7696 
        2.34061         143.082         10.5931 
        2.35635         141.345         10.4207 
        2.37203         140.485         10.2527 
        2.38768         138.388         10.0888 
        2.40339         136.895         9.92783 
        2.41914         134.663         9.77003 
        2.43483         133.404         9.61623 
         2.4505         132.076           9.466 
        2.46622         129.856         9.31847 
        2.48195         128.463         9.17407 
        2.49759          126.59         9.03351 
        2.51328         125.309         8.89553 
        2.52906         124.173         8.75956 
        2.54479         122.508         8.62694 
        2.56049         120.909         8.49733 
        2.57618         119.946          8.3705 
        2.59189         118.559         8.24606 
        2.60758         117.534         8.12436 
        2.62325         115.235         8.00526 
        2.63898          113.67         7.88813 
        2.65468           112.7          7.7736 
        2.67044         111.659         7.66085 
        2.68618         109.936          7.5506 
        2.70184         109.236         7.44297 
        2.71755         107.534         7.33716 
        2.73329         106.117         7.23325 
        2.74897         104.931         7.13169 
        2.76462         104.122         7.03231 
        2.78034         103.112         6.93441 
        2.79607         101.851         6.83828 
        2.81179         100.779         6.74408 
        2.82749         99.7212         6.65176 
        2.84321         98.3077         6.56107 
        2.85893         97.1056         6.47209 
        2.87462         95.9627         6.38492 
        2.89033         95.1705         6.29928 
        2.90605         93.8327         6.21513 
        2.92176         92.9261         6.13256 
        2.93747         92.1132         6.05154 
        2.95318         90.8092         5.97197 
        2.96891         90.3056         5.89379 
        2.98456         88.7283         5.81736 
        3.00023         87.9827         5.74217 
        3.01596         87.3319         5.66807 
        3.03164         86.0715          5.5955 
        3.04738         85.4926         5.52399 
         3.0631         84.6049         5.45375 
        3.07883         83.5849         5.38473 
        3.09456         82.4772         5.31691 
        3.11026         82.0521         5.25037 
        3.12596         80.8225         5.18498 
        3.14163         79.9749         5.12085 
        3.15734         79.0766         5.05765 
        3.17308         78.2348         4.99537 
        3.18879         77.5472         4.93431 
        3.20447         76.9024         4.87436 
         3.2202         75.8256         4.81522 
         3.2359         75.2518         4.75717 
        3.25157         74.7089         4.70021 
        3.26729          73.631         4.64402 
        3.28304         72.7959         4.58863 
        3.29877         72.1898         4.53422 
        3.31446         71.5392         4.48081 
        3.33014          70.796          4.4283 
        3.34585         70.1503         4.37656 
        3.36158         69.4513         4.32557 
        3.37727         68.5646         4.27555 
        3.39294         67.8954         4.22637 
        3.40867         67.2657         4.17778 
        3.42439          66.188         4.12999 
        3.44008         65.7931         4.08303 
        3.45578         65.4551         4.03677 
        3.47153         64.7103         3.99113 
        3.48724         63.9626         3.94627 
        3.50292         63.5297         3.90221 
        3.51859         62.8621         3.85883 
        3.53431         62.0647         3.81599 
        3.55007         61.5525         3.77369 
        3.56577         60.9484          3.7322 
        3.58146         60.2691         3.69135 
        3.59719         59.8364         3.65102 
        3.61292         59.2435          3.6113 
        3.62859         58.6315         3.57232 
        3.64429         58.2749         3.53385 
        3.66003          57.455         3.49582 
        3.67578         56.8813         3.45837 
        3.69146           56.43         3.42161 
        3.70712         55.7147         3.38545 
        3.72284         55.1936         3.34967 
        3.73853         54.8787         3.31448 
        3.75422         54.3893         3.27978 
        3.76993         53.8897         3.24555 
        3.78564          53.267         3.21181 
        3.80137         52.8054         3.17851 
        3.81707         52.2489         3.14574 
        3.83279          51.804         3.11341 
        3.84853         51.3706         3.08149 
        3.86424         50.9566         3.05007 
        3.87992         50.2996         3.01914 
        3.89561         49.9968         2.98863 
        3.91134         49.4926         2.95848 
        3.92704         49.0307         2.92879 
        3.94273         48.6133         2.89953 
        3.95845          48.208         2.87062 
        3.97418          47.678         2.84209 
        3.98988         47.2681           2.814 
        4.00554         46.7835         2.78636 
        4.02125         46.2365         2.75901 
        4.03698         46.0224         2.73198 
        4.05268         45.5973         2.70538 
        4.06839         45.1077         2.67911 
         4.0841         44.8676          2.6532 
        4.09983         44.4674          2.6276 
        4.11555         44.0651         2.60234 
        4.13124         43.6058         2.57749 
        4.14693          43.267         2.55294 
        4.16266         42.9691         2.52865 
        4.17839         42.4582         2.50469 
        4.19408         42.1605          2.4811 
        4.20977         41.6625          2.4578 
        4.22551         41.3296         2.43475 
        4.24123         41.0566         2.41201 
        4.25691         40.5808         2.38963 
        4.27259          40.299         2.36752 
        4.28831         40.0075         2.34565 
        4.30404         39.6894         2.32403 
        4.31974         39.1897         2.30273 
        4.33543         38.8606         2.28172 
        4.35116         38.5537         2.26091 
        4.36688         38.2845         2.24037 
        4.38255         37.9553         2.22016 
        4.39825         37.6693         2.20016 
        4.41398         37.3829         2.18037 
         4.4297         36.9852         2.16084 
        4.44541         36.7442         2.14155 
        4.46111         36.4796         2.12251 
        4.47683          36.203         2.10369 
        4.49251         35.8442         2.08514 
        4.50819          35.538         2.06681 
         4.5239         35.1381         2.04868 
        4.53962         34.8911         2.03074 
        4.55535         34.5246         2.01301 
        4.57106          34.279         1.99552 
        4.58678         33.9954         1.97823 
         4.6025         33.7046         1.96114 
        4.61821         33.4686         1.94426 
        4.63391         33.1846          1.9276 
         4.6496         32.9385         1.91113 
        4.66532         32.7401         1.89484 
        4.68103         32.4662         1.87874 
        4.69673         32.0387         1.86285 
        4.71241         31.8994         1.84715 
        4.72811         31.5803         1.83161 
        4.74384          31.371         1.81623 
        4.75955         31.0742         1.80105 
        4.77525         30.8226         1.78605 
        4.79096         30.6191          1.7712 
        4.80669         30.3635         1.75652 
         4.8224         30.0918         1.74202 
        4.83809         29.8723         1.72769 
        4.85379         29.5775         1.71352 
         4.8695         29.3599          1.6995 
        4.88521         29.0972         1.68564 
        4.90093         28.8853         1.67193 
        4.91663         28.7303         1.65839 
        4.93234           28.44         1.64498 
        4.94807         28.2552         1.63171 
        4.96377         27.9919         1.61861 
        4.97943         27.8205         1.60569 
        4.99514         27.5353         1.59287 
        5.01086         27.3692         1.58018 
        5.02654          27.097         1.56766 
        5.04227         26.9006         1.55524 
          5.058         26.8452         1.54295 
        5.07371          26.545         1.53082 
        5.08942         26.3754         1.51881 
        5.10513         26.1493         1.50694 
        5.12084          25.903         1.49518 
        5.13656          25.758         1.48355 
        5.15225         25.5201         1.47207 
        5.16796         25.3585         1.46069 
        5.18369         25.1573         1.44941 
         5.1994         24.9326         1.43828 
        5.21509         24.7202         1.42728 
        5.23079         24.5189         1.41637 
        5.24649         24.3596         1.40559 
        5.26217         24.2249         1.39493 
        5.27788         24.0088         1.38436 
        5.29359         23.7753         1.37391 
        5.30933         23.5989         1.36354 
        5.32504         23.4924          1.3533 
        5.34073         23.3067         1.34317 
        5.35646         23.1665         1.33313 
        5.37218         22.9493         1.32319 
        5.38789         22.7893         1.31337 
        5.40357         22.5697         1.30366 
        5.41929         22.4417         1.29402 
        5.43502         22.2228         1.28448 
         5.4507         22.1583         1.27506 
        5.46639          21.973         1.26573 
        5.48212          21.773         1.25648 
        5.49786         21.6186          1.2473 
        5.51353         21.4676         1.23826 
        5.52921         21.2602         1.22931 
        5.54495         21.1428         1.22041 
        5.56066         20.9982         1.21161 
        5.57637         20.8414         1.20291 
        5.59207         20.7411         1.19429 
        5.60778         20.5566         1.18575 
        5.62346         20.4084         1.17731 
        5.63916         20.2196         1.16895 
        5.65487         20.0714         1.16066 
         5.6706         19.9397         1.15244 
        5.68633         19.8045          1.1443 
        5.70203         19.6465         1.13626 
        5.71773         19.5581         1.12829 
        5.73344         19.4045         1.12039 
        5.74916         19.2542         1.11257 
        5.76486         19.1208         1.10483 
        5.78054          18.974         1.09717 
        5.79626         18.8716         1.08956 
          5.812         18.7421         1.08202 
         5.8277         18.5701         1.07458 
        5.84339         18.4595          1.0672 
        5.85911         18.2816         1.05988 
        5.87484         18.1942         1.05263 
        5.89053         18.0605         1.04546 
        5.90623         17.9429         1.03835 
        5.92195         17.8513          1.0313 
        5.93767          17.666         1.02432 
        5.95336         17.5802         1.01741 
        5.96905         17.4374         1.01057 
        5.98476         17.3402         1.00378 
        6.00048         17.1888        0.997053 
        6.01617           17.07        0.990396 
        6.03185         16.9639        0.983808 
        6.04756         16.8298        0.977264 
        6.06331          16.739        0.970766 
        6.07903         16.6232         0.96434 
        6.09473         16.4897        0.957979 
        6.11044         16.3863        0.951669 
        6.12616         16.2754        0.945417 
        6.14186         16.1406        0.939228 
        6.15755         16.0604        0.933094 
        6.17326         15.9834         0.92701 
        6.18898         15.8774        0.920977 
        6.20467         15.7156        0.915009 
        6.22036         15.6207        0.909095 
         6.2361         15.5319        0.903216 
         6.2518         15.4191          0.8974 
        6.26748         15.3156        0.891647 
        6.28319         15.2029        0.885928 
        6.29893         15.1022        0.880255 
        6.31463         15.0207        0.874641 
        6.33033         14.8919        0.869078 
        6.34604         14.7818         0.86356 
        6.36177         14.7121        0.858084 
        6.37747         14.5922        0.852665 
