# k  (h/Mpc)    Pcb(k)  (Mpc/h)^3    Pcb_linear(k) (Mpc/h)^3   ShotnoiseSubtracted = true
      0.0200456         13188.9         13453.1 
      0.0350414          9387.4          9700.2 
      0.0492313         7170.07         7264.52 
      0.0637834         6171.68         6071.95 
      0.0800726         4703.38         4602.86 
       0.096163         3292.51         3362.51 
       0.111083         2733.29         2829.45 
       0.126058          2502.7         2479.74 
       0.142273         2081.95          1982.1 
       0.158546         1777.89         1595.16 
        0.17375         1465.36         1417.09 
       0.188953         1407.54         1261.12 
       0.204907         1296.11         1063.43 
       0.220756         1113.06         912.759 
        0.23588         993.764         826.492 
         0.2514         865.258         743.995 
       0.267535         841.538         651.131 
       0.283568           764.4         578.284 
       0.299022         717.767         528.042 
       0.314451         677.674         481.199 
       0.330372         623.684         433.176 
       0.346141         571.365         393.667 
       0.361624         549.713         362.519 
       0.377134         510.237         333.823 
       0.392932         487.514         306.074 
       0.408854         469.267         281.811 
       0.424564         443.376         261.344 
       0.440253         431.907          242.64 
       0.455999         406.615         225.222 
       0.471626         381.997          209.77 
        0.48727         370.036         196.033 
       0.502856         358.497         183.483 
       0.518488         354.827          171.86 
       0.534347         332.211         161.129 
       0.550082         315.048         151.473 
       0.565732         312.416         142.634 
       0.581496         294.839         134.407 
       0.597222         289.309         126.848 
       0.612804         280.039         119.962 
       0.628434         269.111         113.574 
       0.644267         261.065         107.573 
       0.660051         256.494          102.02 
       0.675724         252.084         96.8918 
       0.691403         244.577         92.1135 
       0.707174         235.053         87.6321 
       0.722871         232.473         83.4679 
        0.73838         227.976           79.62 
       0.754018         221.922         75.9867 
       0.769845          214.25         72.5416 
        0.78569         213.482          69.308 
       0.801365         206.194         66.3044 
       0.817031         200.053         63.4816 
       0.832809         197.536          60.806 
       0.848511         192.297         58.2973 
       0.864097         189.803         55.9481 
       0.879701         185.753         53.7266 
       0.895507         180.989            51.6 
       0.911279         175.972         49.5935 
        0.92691         175.808         47.7108 
       0.942635         171.221         45.9158 
       0.958396         170.601         44.2098 
       0.974128         166.105         42.5939 
       0.989692         161.976          41.075 
        1.00528         159.682         39.6284 
        1.02113         158.662          38.229 
        1.03692         153.427         36.9027 
        1.05264          150.84         35.6457 
        1.06832         148.118         34.4495 
        1.08405         145.878         33.3052 
        1.09979         145.216         32.2125 
        1.11537         140.578         31.1798 
        1.13105         139.304         30.1865 
        1.14679         138.655         29.2328 
        1.16256         136.294         28.3186 
        1.17828         133.311         27.4466 
        1.19395         131.387         26.6145 
         1.2097         129.917         25.8128 
        1.22537         128.013         25.0481 
          1.241         125.795         24.3168 
        1.25666         123.679         23.6129 
        1.27241          121.72         22.9338 
        1.28819         120.127         22.2803 
        1.30392         118.511         21.6543 
        1.31957         117.102         21.0552 
        1.33529         114.337         20.4766 
        1.35108         113.405         19.9176 
        1.36674          112.41         19.3835 
         1.3824         109.978         18.8695 
        1.39811         109.121         18.3725 
        1.41389         107.392         17.8916 
        1.42964         105.303         17.4288 
        1.44531         103.228         16.9847 
        1.46101         102.289         16.5551 
        1.47667         101.334         16.1417 
        1.49229         99.7053         15.7436 
        1.50793         98.7593         15.3585 
        1.52367         97.4717         14.9838 
        1.53953         95.7115         14.6192 
        1.55526         94.8943         14.2697 
        1.57092         93.8067          13.933 
        1.58662         91.9361         13.6065 
        1.60235         91.6141         13.2898 
        1.61809         89.8308          12.983 
        1.63369         89.1202         12.6887 
        1.64941         88.2652         12.4014 
        1.66519         86.1769          12.122 
        1.68085         85.6349         11.8533 
        1.69652         83.6023         11.5926 
        1.71228         83.7139         11.3383 
        1.72806         82.3177         11.0914 
        1.74368         81.3017         10.8544 
        1.75933         80.0312         10.6239 
        1.77505         79.2365          10.399 
        1.79081         77.9039         10.1802 
         1.8065         77.1193         9.96866 
        1.82218         75.7647         9.76333 
        1.83797         75.1223         9.56239 
        1.85367         74.2574         9.36823 
        1.86928         73.9557         9.18064 
        1.88497         72.3231         8.99717 
        1.90073         71.5672         8.81805 
        1.91647         71.0088         8.64398 
        1.93218          69.825         8.47498 
        1.94787         69.0412         8.31076 
        1.96363         67.9034         8.15025 
        1.97935         67.6089         7.99431 
        1.99499         66.5516         7.84335 
        2.01064         65.9683         7.69607 
         2.0264         64.6746         7.55165 
        2.04216          63.997         7.41102 
        2.05781         63.2928         7.27486 
        2.07353         62.3074         7.14164 
        2.08928         61.5241         7.01148 
        2.10499         61.0461         6.88491 
        2.12065           60.49         6.76185 
        2.13633         59.8085          6.6417 
        2.15211          59.203          6.5237 
        2.16785         58.5221         6.40889 
        2.18349         57.9838         6.29758 
        2.19916         57.1036         6.18867 
        2.21489         56.6091         6.08199 
        2.23063         56.1159         5.97775 
         2.2463         55.3057         5.87643 
        2.26194         54.4813         5.77771 
        2.27765         54.1645         5.68076 
        2.29341         53.5085         5.58578 
        2.30914         52.6311         5.49317 
        2.32486          51.905         5.40272 
        2.34061         51.4436         5.31415 
        2.35635         50.9567         5.22766 
        2.37203          50.215         5.14339 
        2.38768         49.7676         5.06115 
        2.40339         49.1376         4.98041 
        2.41914         48.7918         4.90125 
        2.43483          48.418          4.8241 
         2.4505         47.8885         4.74873 
        2.46622          47.344         4.67472 
        2.48195         46.7676         4.60228 
        2.49759         46.0319         4.53177 
        2.51328         45.6232         4.46255 
        2.52906         45.1378         4.39434 
        2.54479         44.6335         4.32781 
        2.56049         44.0495         4.26279 
        2.57618          43.733         4.19916 
        2.59189          43.221         4.13674 
        2.60758         42.7961         4.07568 
        2.62325         42.2345         4.01593 
        2.63898         41.8881         3.95718 
        2.65468         41.3107         3.89972 
        2.67044         40.6835         3.84316 
        2.68618         40.5259         3.78785 
        2.70184         40.0219         3.73385 
        2.71755         39.8059         3.68077 
        2.73329         39.0615         3.62865 
        2.74897         38.7368          3.5777 
        2.76462          38.282         3.52784 
        2.78034         38.0452         3.47873 
        2.79607         37.5426         3.43051 
        2.81179         37.1795         3.38325 
        2.82749         36.5514         3.33694 
        2.84321         36.3426         3.29144 
        2.85893         35.9462          3.2468 
        2.87462         35.4428         3.20307 
        2.89033         35.1539         3.16011 
        2.90605         34.8975          3.1179 
        2.92176         34.4994         3.07648 
        2.93747         34.1803         3.03583 
        2.95318         33.7555         2.99591 
        2.96891           33.25         2.95669 
        2.98456         33.1181         2.91835 
        3.00023         32.7029         2.88063 
        3.01596         32.3183         2.84346 
        3.03164         32.0499         2.80705 
        3.04738         31.7983         2.77118 
         3.0631         31.3403         2.73594 
        3.07883         31.0775         2.70131 
        3.09456         30.7507         2.66729 
        3.11026         30.4361         2.63391 
        3.12596         30.1351         2.60111 
        3.14163         29.8108         2.56894 
        3.15734         29.5395         2.53723 
        3.17308         29.2114         2.50599 
        3.18879         28.9486         2.47536 
        3.20447         28.6593         2.44528 
         3.2202         28.3357         2.41562 
         3.2359         28.1336         2.38649 
        3.25157         27.8848         2.35792 
        3.26729         27.6141         2.32973 
        3.28304         27.3079         2.30194 
        3.29877          26.949         2.27464 
        3.31446         26.7538         2.24785 
        3.33014         26.4952         2.22151 
        3.34585         26.3217         2.19555 
        3.36158          25.935         2.16997 
        3.37727          25.703         2.14488 
        3.39294         25.4847         2.12021 
        3.40867         25.2104         2.09583 
        3.42439         24.9848         2.07186 
        3.44008         24.7312          2.0483 
        3.45578         24.4863          2.0251 
        3.47153          24.269          2.0022 
        3.48724         23.9685         1.97969 
        3.50292         23.8022         1.95759 
        3.51859           23.53         1.93583 
        3.53431         23.3771         1.91434 
        3.55007         23.1125         1.89312 
        3.56577         22.8889          1.8723 
        3.58146         22.7604         1.85181 
        3.59719         22.4694         1.83158 
        3.61292         22.2759         1.81165 
        3.62859         22.0557          1.7921 
        3.64429          21.863          1.7728 
        3.66003         21.6428         1.75372 
        3.67578         21.4627         1.73493 
        3.69146         21.2524         1.71649 
        3.70712          21.024         1.69835 
        3.72284         20.8622          1.6804 
        3.73853         20.6621         1.66275 
        3.75422         20.4508         1.64534 
        3.76993         20.2969         1.62817 
        3.78564         20.0427         1.61125 
        3.80137          19.886         1.59454 
        3.81707         19.7774          1.5781 
        3.83279         19.4905         1.56188 
        3.84853           19.34         1.54586 
        3.86424         19.2042          1.5301 
        3.87992         19.0181         1.51459 
        3.89561         18.8278         1.49928 
        3.91134         18.7185         1.48416 
        3.92704         18.5137         1.46926 
        3.94273         18.3525         1.45458 
        3.95845         18.1583         1.44008 
        3.97418         18.0231         1.42577 
        3.98988         17.8301         1.41168 
        4.00554         17.7088         1.39781 
        4.02125         17.5325         1.38409 
        4.03698         17.3315         1.37053 
        4.05268         17.2206         1.35719 
        4.06839         17.0145         1.34401 
         4.0841         16.9716         1.33101 
        4.09983         16.7501         1.31817 
        4.11555         16.6019          1.3055 
        4.13124         16.4624         1.29303 
        4.14693         16.2897         1.28071 
        4.16266         16.1443         1.26853 
        4.17839          16.029         1.25651 
        4.19408         15.8863         1.24467 
        4.20977         15.7546         1.23299 
        4.22551          15.632         1.22142 
        4.24123          15.499         1.21001 
        4.25691         15.4013         1.19879 
        4.27259         15.2339         1.18769 
        4.28831         15.0736         1.17672 
        4.30404         14.9624         1.16588 
        4.31974         14.8279         1.15519 
        4.33543         14.6954         1.14465 
        4.35116          14.589         1.13421 
        4.36688         14.4485         1.12391 
        4.38255         14.3396         1.11377 
        4.39825         14.2594         1.10374 
        4.41398         14.1022         1.09381 
         4.4297         13.9783         1.08401 
        4.44541         13.8886         1.07433 
        4.46111         13.7734         1.06478 
        4.47683         13.6361         1.05534 
        4.49251         13.5591         1.04603 
        4.50819          13.418         1.03684 
         4.5239         13.3192         1.02775 
        4.53962         13.1891         1.01875 
        4.55535         13.1031         1.00985 
        4.57106         12.9989         1.00108 
        4.58678         12.8698        0.992404 
         4.6025           12.76        0.983831 
        4.61821         12.6561        0.975361 
        4.63391          12.606        0.967002 
         4.6496         12.4388        0.958744 
        4.66532          12.335         0.95057 
        4.68103         12.2374        0.942494 
        4.69673         12.1834         0.93452 
        4.71241         12.0496        0.926647 
        4.72811          11.969        0.918851 
        4.74384         11.8505        0.911134 
        4.75955         11.7698        0.903519 
        4.77525         11.6909        0.895994 
        4.79096         11.6101        0.888546 
        4.80669         11.5057        0.881179 
         4.8224         11.3865        0.873903 
        4.83809         11.3325        0.866718 
        4.85379         11.2183        0.859609 
         4.8695         11.1673        0.852574 
        4.88521         11.0509         0.84562 
        4.90093         10.9498        0.838744 
        4.91663         10.8893        0.831949 
        4.93234         10.7905        0.825223 
        4.94807         10.7041        0.818567 
        4.96377         10.6322        0.811996 
        4.97943         10.5508        0.805512 
        4.99514          10.468        0.799081 
        5.01086         10.3817        0.792716 
        5.02654         10.2937        0.786436 
        5.04227         10.2344        0.780206 
          5.058         10.1449        0.774041 
        5.07371         10.0804        0.767954 
        5.08942         9.97308        0.761931 
        5.10513         9.90523        0.755973 
        5.12084         9.85321        0.750076 
        5.13656          9.7688        0.744242 
        5.15225         9.70374         0.73848 
        5.16796         9.62474        0.732771 
        5.18369         9.54045        0.727116 
         5.1994         9.47844        0.721531 
        5.21509         9.40336         0.71601 
        5.23079          9.3205         0.71054 
        5.24649         9.28879        0.705132 
        5.26217         9.16504        0.699783 
        5.27788         9.12118        0.694483 
        5.29359         9.04689        0.689236 
        5.30933         8.99965        0.684036 
        5.32504         8.91449        0.678899 
        5.34073         8.86383        0.673819 
        5.35646         8.78561        0.668782 
        5.37218         8.71606        0.663795 
        5.38789         8.66782        0.658867 
        5.40357         8.60001        0.653994 
        5.41929         8.53551         0.64916 
        5.43502         8.47822        0.644375 
         5.4507         8.40545        0.639649 
        5.46639         8.33726         0.63497 
        5.48212         8.28337        0.630326 
        5.49786         8.23316        0.625724 
        5.51353         8.16621         0.62119 
        5.52921         8.11854        0.616696 
        5.54495         8.04772        0.612234 
        5.56066         7.98331        0.607821 
        5.57637         7.92951        0.603452 
        5.59207          7.8758         0.59913 
        5.60778         7.81716        0.594848 
        5.62346         7.75864        0.590614 
        5.63916         7.72041        0.586418 
        5.65487         7.65364         0.58226 
         5.6706         7.61337        0.578137 
        5.68633         7.54746        0.574053 
        5.70203           7.501        0.570016 
        5.71773         7.44673         0.56602 
        5.73344         7.39455        0.562059 
        5.74916         7.34217        0.558133 
        5.76486         7.30765        0.554249 
        5.78054         7.23973        0.550408 
        5.79626         7.18936        0.546593 
          5.812         7.14353        0.542811 
         5.8277         7.10089        0.539075 
        5.84339         7.05667        0.535374 
        5.85911         6.99638        0.531701 
        5.87484         6.95926        0.528063 
        5.89053          6.9067        0.524466 
        5.90623         6.85101        0.520901 
        5.92195          6.8161        0.517363 
        5.93767         6.77174         0.51386 
        5.95336         6.71933        0.510395 
        5.96905         6.67305        0.506963 
        5.98476         6.63934        0.503558 
        6.00048         6.58769        0.500183 
        6.01617         6.54639        0.496844 
        6.03185         6.49442        0.493539 
        6.04756         6.45926        0.490256 
        6.06331         6.42141        0.486996 
        6.07903         6.38132        0.483773 
        6.09473         6.32805        0.480582 
        6.11044         6.27565        0.477416 
        6.12616         6.24359         0.47428 
        6.14186         6.22128        0.471175 
        6.15755         6.15714        0.468098 
        6.17326         6.11354        0.465046 
        6.18898         6.08388        0.462019 
        6.20467         6.04642        0.459026 
        6.22036         5.99273        0.456058 
         6.2361         5.96171        0.453109 
         6.2518         5.91476        0.450191 
        6.26748         5.88232        0.447305 
        6.28319         5.83168        0.444437 
        6.29893         5.80113        0.441591 
        6.31463         5.76934        0.438774 
        6.33033         5.71962        0.435984 
        6.34604         5.69946        0.433215 
        6.36177         5.65946        0.430468 
        6.37747         5.63238         0.42775 
