# k  (h/Mpc)    Pcb(k)  (Mpc/h)^3    Pcb_linear(k) (Mpc/h)^3   ShotnoiseSubtracted = true
      0.0200456         23233.6         23646.5 
      0.0350414         17609.6           17050 
      0.0492313         12449.6         12768.8 
      0.0637834         10069.3         10672.7 
      0.0800726         7619.87         8090.44 
       0.096163         6164.04         5910.27 
       0.111083         5208.51         4973.32 
       0.126058         4276.56         4358.63 
       0.142273          3640.4         3483.94 
       0.158546         3012.34         2803.81 
        0.17375         2751.18         2490.81 
       0.188953         2601.82         2216.67 
       0.204907         2215.88         1869.19 
       0.220756         2010.55         1604.35 
        0.23588         1809.23         1452.72 
         0.2514         1640.49         1307.72 
       0.267535         1575.55         1144.49 
       0.283568         1409.31         1016.45 
       0.299022         1345.55         928.138 
       0.314451         1402.35         845.802 
       0.330372         1245.63         761.393 
       0.346141         1144.28         691.947 
       0.361624         1098.86         637.198 
       0.377134         1055.46          586.76 
       0.392932         1004.26         537.985 
       0.408854         965.321         495.338 
       0.424564         946.382         459.363 
       0.440253         880.078         426.487 
       0.455999         842.035         395.872 
       0.471626         855.365         368.713 
        0.48727         808.002         344.567 
       0.502856         779.483         322.507 
       0.518488          754.75         302.078 
       0.534347         726.995         283.216 
       0.550082         694.154         266.244 
       0.565732         682.875         250.707 
       0.581496         668.117         236.247 
       0.597222         655.657         222.961 
       0.612804         640.068         210.857 
       0.628434         613.962         199.628 
       0.644267          597.43         189.081 
       0.660051         591.231          179.32 
       0.675724         578.921         170.307 
       0.691403         561.298         161.908 
       0.707174          545.16         154.031 
       0.722871         540.222         146.711 
        0.73838         527.845         139.948 
       0.754018         516.008         133.562 
       0.769845         508.932         127.506 
        0.78569         497.733         121.823 
       0.801365         481.432         116.543 
       0.817031         477.145         111.581 
       0.832809         469.884         106.879 
       0.848511         461.981         102.469 
       0.864097         452.346         98.3398 
       0.879701         451.882         94.4351 
       0.895507         433.768         90.6973 
       0.911279         428.816         87.1704 
        0.92691          423.06         83.8611 
       0.942635         418.112         80.7061 
       0.958396         405.018         77.7074 
       0.974128         399.546         74.8672 
       0.989692         388.472         72.1975 
        1.00528          384.37         69.6547 
        1.02113         378.097          67.195 
        1.03692         372.666         64.8638 
        1.05264         366.932         62.6543 
        1.06832         358.826         60.5517 
        1.08405         357.536         58.5405 
        1.09979         349.708         56.6198 
        1.11537         340.331         54.8047 
        1.13105           337.2         53.0587 
        1.14679         331.057         51.3823 
        1.16256         329.049         49.7755 
        1.17828         323.761         48.2429 
        1.19395          315.45         46.7802 
         1.2097          313.24          45.371 
        1.22537         308.313         44.0269 
          1.241         301.966         42.7415 
        1.25666         298.749         41.5044 
        1.27241         294.925         40.3107 
        1.28819         287.397          39.162 
        1.30392         287.393         38.0617 
        1.31957         279.795         37.0086 
        1.33529         275.801         35.9917 
        1.35108         274.381         35.0091 
        1.36674         267.366         34.0703 
         1.3824         264.292         33.1669 
        1.39811         260.914         32.2934 
        1.41389         255.386         31.4481 
        1.42964         251.945         30.6346 
        1.44531         248.723         29.8539 
        1.46101         244.198         29.0989 
        1.47667          241.66         28.3723 
        1.49229           238.4         27.6725 
        1.50793         234.427         26.9956 
        1.52367         231.118         26.3371 
        1.53953         227.064         25.6962 
        1.55526         224.534         25.0817 
        1.57092         222.608           24.49 
        1.58662         217.717          23.916 
        1.60235         215.196         23.3594 
        1.61809         213.138         22.8202 
        1.63369         209.052         22.3029 
        1.64941         206.239          21.798 
        1.66519         203.178         21.3069 
        1.68085         199.871         20.8345 
        1.69652         197.799         20.3763 
        1.71228         194.871         19.9293 
        1.72806          192.38         19.4954 
        1.74368         189.948         19.0788 
        1.75933         188.693         18.6736 
        1.77505         185.648         18.2783 
        1.79081         182.369         17.8937 
         1.8065          181.09         17.5219 
        1.82218         176.672          17.161 
        1.83797         175.412         16.8078 
        1.85367         172.985         16.4665 
        1.86928         170.181         16.1368 
        1.88497         168.682         15.8143 
        1.90073         167.047         15.4995 
        1.91647         163.636         15.1935 
        1.93218         161.292         14.8965 
        1.94787         159.191         14.6078 
        1.96363         158.261         14.3257 
        1.97935         156.525         14.0516 
        1.99499         154.026         13.7862 
        2.01064         150.764         13.5274 
         2.0264         150.257         13.2735 
        2.04216         147.543         13.0263 
        2.05781         145.206          12.787 
        2.07353         144.467         12.5529 
        2.08928         142.363         12.3241 
        2.10499         140.707         12.1016 
        2.12065         139.093         11.8853 
        2.13633         137.136         11.6741 
        2.15211         135.008         11.4667 
        2.16785         133.684         11.2649 
        2.18349         132.236         11.0692 
        2.19916         130.192         10.8778 
        2.21489          128.72         10.6903 
        2.23063         127.196         10.5071 
         2.2463         125.305          10.329 
        2.26194         124.237         10.1555 
        2.27765         122.244         9.98506 
        2.29341         121.266         9.81812 
        2.30914         119.801         9.65534 
        2.32486         117.744         9.49635 
        2.34061         116.326         9.34068 
        2.35635         115.539         9.18864 
        2.37203         113.684         9.04052 
        2.38768          112.79         8.89597 
        2.40339         110.668         8.75406 
        2.41914         109.679         8.61492 
        2.43483          108.55         8.47931 
         2.4505         107.297         8.34684 
        2.46622         105.576         8.21675 
        2.48195         104.616         8.08942 
        2.49759         102.952         7.96548 
        2.51328         101.927         7.84381 
        2.52906         101.044         7.72392 
        2.54479         99.7719         7.60698 
        2.56049         98.4118         7.49269 
        2.57618         97.2781         7.38086 
        2.59189         96.5708         7.27113 
        2.60758         95.0481         7.16382 
        2.62325          94.363          7.0588 
        2.63898         93.1576         6.95552 
        2.65468         92.1673         6.85453 
        2.67044         91.2259         6.75511 
        2.68618           89.76          6.6579 
        2.70184         88.9495         6.56299 
        2.71755         88.2114         6.46969 
        2.73329         86.7026         6.37806 
        2.74897         85.8421         6.28851 
        2.76462         85.5125         6.20088 
        2.78034         84.0486         6.11456 
        2.79607         82.9513         6.02979 
        2.81179         82.2406         5.94673 
        2.82749         81.5695         5.86532 
        2.84321         80.3084         5.78535 
        2.85893          79.015          5.7069 
        2.87462         78.6576         5.63003 
        2.89033         77.6714         5.55451 
        2.90605         76.8009         5.48032 
        2.92176         76.2301         5.40751 
        2.93747         75.3165         5.33607 
        2.95318         74.0956          5.2659 
        2.96891         73.7603         5.19697 
        2.98456         72.6896         5.12957 
        3.00023         71.9623         5.06327 
        3.01596         71.3577         4.99794 
        3.03164         70.4182         4.93395 
        3.04738         70.1087         4.87089 
         3.0631         68.9467         4.80895 
        3.07883         68.3537         4.74809 
        3.09456         67.4093          4.6883 
        3.11026         67.0836         4.62962 
        3.12596         66.1328         4.57196 
        3.14163         65.4697         4.51541 
        3.15734         64.6088         4.45969 
        3.17308         64.2161         4.40477 
        3.18879         63.4204         4.35093 
        3.20447         62.8669         4.29807 
         3.2202         61.8731         4.24592 
         3.2359         61.3212         4.19473 
        3.25157         60.9029         4.14451 
        3.26729         60.1792         4.09496 
        3.28304         59.4528         4.04612 
        3.29877         58.9718         3.99814 
        3.31446         58.1523         3.95104 
        3.33014          57.765         3.90475 
        3.34585          57.118         3.85912 
        3.36158         56.7497         3.81416 
        3.37727         56.1295         3.77005 
        3.39294         55.5091         3.72668 
        3.40867          55.016         3.68384 
        3.42439         54.4034          3.6417 
        3.44008          53.866          3.6003 
        3.45578         53.3406         3.55951 
        3.47153         52.7824         3.51926 
        3.48724         52.4231          3.4797 
        3.50292         51.8538         3.44085 
        3.51859          51.399         3.40261 
        3.53431         50.7197         3.36483 
        3.55007         50.1533         3.32753 
        3.56577         49.6022         3.29094 
        3.58146          49.159         3.25492 
        3.59719         48.7408         3.21936 
        3.61292         48.1306         3.18434 
        3.62859         47.8198         3.14997 
        3.64429         47.4044         3.11604 
        3.66003         46.9448         3.08251 
        3.67578          46.377         3.04949 
        3.69146         45.9979         3.01707 
        3.70712         45.6388         2.98519 
        3.72284           45.17         2.95364 
        3.73853         44.7932         2.92261 
        3.75422         44.3479         2.89201 
        3.76993         44.0047         2.86183 
        3.78564         43.5483         2.83208 
        3.80137          43.122         2.80271 
        3.81707         42.6344         2.77382 
        3.83279         42.2679         2.74531 
        3.84853         41.8778         2.71716 
        3.86424         41.4521         2.68946 
        3.87992         41.0442         2.66218 
        3.89561         40.7543         2.63529 
        3.91134         40.3246          2.6087 
        3.92704         39.9773         2.58252 
        3.94273         39.6381         2.55672 
        3.95845         39.2056         2.53123 
        3.97418         38.8881         2.50607 
        3.98988         38.5775          2.4813 
        4.00554         38.0476         2.45693 
        4.02125         37.8839         2.43281 
        4.03698         37.4493         2.40898 
        4.05268         37.2139         2.38552 
        4.06839         36.8607         2.36236 
         4.0841          36.545         2.33952 
        4.09983         36.1973         2.31694 
        4.11555         35.8841         2.29467 
        4.13124          35.446         2.27275 
        4.14693         35.2576         2.25111 
        4.16266         34.9426         2.22969 
        4.17839         34.5342         2.20856 
        4.19408         34.2959         2.18776 
        4.20977          34.005         2.16722 
        4.22551         33.7054         2.14689 
        4.24123         33.4413         2.12684 
        4.25691         33.0836          2.1071 
        4.27259         32.8379         2.08761 
        4.28831         32.5463         2.06832 
        4.30404         32.3154         2.04926 
        4.31974         32.0134         2.03048 
        4.33543          31.675         2.01195 
        4.35116         31.3914          1.9936 
        4.36688         31.1043         1.97549 
        4.38255         30.9458         1.95768 
        4.39825         30.6793         1.94004 
        4.41398         30.3853         1.92258 
         4.4297         30.0873         1.90536 
        4.44541         29.9142         1.88835 
        4.46111         29.5657         1.87157 
        4.47683         29.4208         1.85497 
        4.49251          29.179         1.83861 
        4.50819         28.8601         1.82245 
         4.5239         28.5931         1.80647 
        4.53962         28.3726         1.79065 
        4.55535         28.1542         1.77502 
        4.57106         27.8469         1.75959 
        4.58678         27.6839         1.74435 
         4.6025         27.4846         1.72928 
        4.61821         27.2586         1.71439 
        4.63391         27.0646          1.6997 
         4.6496         26.7617         1.68518 
        4.66532         26.5967         1.67081 
        4.68103         26.3129         1.65662 
        4.69673         26.1758          1.6426 
        4.71241         25.9317         1.62876 
        4.72811         25.7278         1.61506 
        4.74384         25.6027          1.6015 
        4.75955         25.3929         1.58811 
        4.77525         25.0939         1.57489 
        4.79096         24.8808         1.56179 
        4.80669         24.7191         1.54885 
         4.8224          24.547         1.53606 
        4.83809         24.2644         1.52343 
        4.85379         24.1472         1.51093 
         4.8695         23.9419         1.49857 
        4.88521         23.7076         1.48635 
        4.90093         23.5571         1.47426 
        4.91663         23.4082         1.46232 
        4.93234         23.1525         1.45049 
        4.94807         22.9531         1.43879 
        4.96377         22.8071         1.42724 
        4.97943         22.6718         1.41585 
        4.99514         22.5153         1.40454 
        5.01086         22.3028         1.39335 
        5.02654         22.1458         1.38232 
        5.04227          21.952         1.37137 
          5.058         21.7555         1.36053 
        5.07371         21.5777         1.34983 
        5.08942         21.4209         1.33925 
        5.10513         21.2952         1.32877 
        5.12084         21.1018         1.31841 
        5.13656         20.9433         1.30815 
        5.15225         20.8322         1.29803 
        5.16796         20.6569         1.28799 
        5.18369         20.4601         1.27805 
         5.1994         20.2706         1.26823 
        5.21509         20.1499         1.25853 
        5.23079         20.0124         1.24891 
        5.24649         19.8719         1.23941 
        5.26217         19.6882         1.23001 
        5.27788         19.5856         1.22069 
        5.29359         19.3834         1.21147 
        5.30933         19.2444         1.20233 
        5.32504         19.1053          1.1933 
        5.34073         18.9499         1.18437 
        5.35646         18.7809         1.17552 
        5.37218         18.6995         1.16675 
        5.38789         18.5599         1.15809 
        5.40357         18.3959         1.14952 
        5.41929         18.3125         1.14103 
        5.43502         18.1474         1.13262 
         5.4507         17.9853         1.12431 
        5.46639          17.851         1.11608 
        5.48212         17.7364         1.10792 
        5.49786         17.5971         1.09983 
        5.51353         17.4846         1.09186 
        5.52921         17.3327         1.08397 
        5.54495         17.2286         1.07612 
        5.56066         17.1033         1.06837 
        5.57637         16.9472         1.06069 
        5.59207         16.8364         1.05309 
        5.60778         16.7871         1.04556 
        5.62346         16.6069         1.03812 
        5.63916         16.4632         1.03074 
        5.65487          16.322         1.02344 
         5.6706         16.2682         1.01619 
        5.68633         16.1597         1.00901 
        5.70203         16.0179         1.00192 
        5.71773         15.9228        0.994891 
        5.73344         15.8001         0.98793 
        5.74916         15.6878        0.981028 
        5.76486         15.5698        0.974202 
        5.78054         15.4533        0.967451 
        5.79626         15.3843        0.960746 
          5.812         15.2509        0.954097 
         5.8277         15.1223         0.94753 
        5.84339         15.0171        0.941026 
        5.85911         14.9336        0.934569 
        5.87484         14.8151        0.928175 
        5.89053         14.6951        0.921853 
        5.90623         14.5957        0.915587 
        5.92195         14.4846        0.909368 
        5.93767         14.4089        0.903211 
        5.95336         14.2902         0.89712 
        5.96905          14.195        0.891088 
        5.98476         14.1064        0.885103 
        6.00048         13.9824        0.879171 
        6.01617         13.9315        0.873302 
        6.03185         13.8191        0.867493 
        6.04756         13.7169        0.861722 
        6.06331         13.6399        0.855993 
        6.07903         13.4976        0.850327 
        6.09473         13.4172        0.844717 
        6.11044         13.3406        0.839154 
        6.12616         13.2571        0.833641 
        6.14186         13.1608        0.828183 
        6.15755         13.0483        0.822774 
        6.17326         12.9719         0.81741 
        6.18898           12.87        0.812091 
        6.20467         12.7741        0.806828 
        6.22036         12.7039        0.801613 
         6.2361         12.5985        0.796429 
         6.2518         12.5127          0.7913 
        6.26748         12.4585        0.786228 
        6.28319         12.3733        0.781185 
        6.29893         12.3022        0.776183 
        6.31463         12.2009        0.771233 
        6.33033         12.1236        0.766327 
        6.34604         12.0367        0.761461 
        6.36177         11.9716        0.756633 
        6.37747         11.8916        0.751855 
