# k  (h/Mpc)    Pcb(k)  (Mpc/h)^3    Pcb_linear(k) (Mpc/h)^3   ShotnoiseSubtracted = true
      0.0200456         83.1119         84.0821 
      0.0350414         56.4724         55.9005 
      0.0492313         40.1437         39.9715 
      0.0637834         32.7599         32.9213 
      0.0800726         24.3916           24.42 
       0.096163         17.4121         17.2142 
       0.111083         14.3861         14.2843 
       0.126058         12.4797         12.5411 
       0.142273         9.89311         9.89207 
       0.158546         7.82099         7.77956 
        0.17375         6.89559         6.87479 
       0.188953         6.11857         6.13115 
       0.204907         5.09553         5.12236 
       0.220756         4.34466         4.33394 
        0.23588           3.905         3.90911 
         0.2514         3.51652         3.52095 
       0.267535         3.06768         3.06214 
       0.283568         2.69921          2.6946 
       0.299022         2.45145         2.45228 
       0.314451         2.24451         2.23295 
       0.330372         2.00636          2.0012 
       0.346141         1.81242         1.80777 
       0.361624         1.66004         1.65969 
       0.377134         1.52344         1.52586 
       0.392932         1.40739         1.39443 
       0.408854         1.27842         1.27859 
       0.424564         1.19041         1.18252 
       0.440253         1.09841         1.09575 
       0.455999         1.01269         1.01443 
       0.471626        0.939849        0.941996 
        0.48727        0.882135        0.878189 
       0.502856        0.825183        0.820391 
       0.518488        0.764805        0.766736 
       0.534347        0.713169        0.717193 
       0.550082        0.674531        0.672791 
       0.565732        0.637739        0.632374 
       0.581496        0.596035        0.594746 
       0.597222        0.561135        0.560216 
       0.612804        0.529396         0.52884 
       0.628434        0.499703        0.499768 
       0.644267        0.474028        0.472512 
       0.660051        0.449088        0.447355 
       0.675724        0.424105         0.42418 
       0.691403        0.402428        0.402635 
       0.707174        0.382356        0.382469 
       0.722871        0.366881        0.363765 
        0.73838        0.346015        0.346512 
       0.754018        0.329473        0.330246 
       0.769845         0.31297        0.314844 
        0.78569        0.300425        0.300408 
       0.801365        0.287506        0.287015 
       0.817031        0.274983        0.274445 
       0.832809        0.262199        0.262546 
       0.848511        0.251235        0.251403 
       0.864097        0.241574        0.240982 
       0.879701        0.232407         0.23114 
       0.895507        0.220896         0.22173 
       0.911279        0.213086        0.212863 
        0.92691        0.205617        0.204553 
       0.942635        0.196209         0.19664 
       0.958396        0.189254        0.189128 
       0.974128        0.182207        0.182022 
       0.989692        0.175444         0.17535 
        1.00528        0.168163        0.169003 
        1.02113        0.163392         0.16287 
        1.03692         0.15768        0.157065 
        1.05264        0.151487        0.151568 
        1.06832        0.146399        0.146343 
        1.08405        0.141076         0.14135 
        1.09979        0.136654        0.136587 
        1.11537        0.131371         0.13209 
        1.13105        0.126958        0.127768 
        1.14679        0.123267        0.123623 
        1.16256        0.119679        0.119654 
        1.17828        0.115896        0.115871 
        1.19395        0.112341        0.112265 
         1.2097        0.108518        0.108793 
        1.22537        0.104946        0.105485 
          1.241        0.101855        0.102324 
        1.25666       0.0991829       0.0992843 
        1.27241       0.0959451       0.0963537 
        1.28819        0.093041       0.0935362 
        1.30392       0.0907243       0.0908393 
        1.31957       0.0878442       0.0882605 
        1.33529       0.0857065       0.0857721 
        1.35108         0.08284       0.0833697 
        1.36674       0.0809309       0.0810762 
         1.3824       0.0784442       0.0788708 
        1.39811       0.0761282         0.07674 
        1.41389       0.0744497       0.0746796 
        1.42964       0.0723078       0.0726981 
        1.44531       0.0703571       0.0707981 
        1.46101       0.0684181       0.0689617 
        1.47667       0.0668222       0.0671957 
        1.49229       0.0651208       0.0654962 
        1.50793       0.0634448       0.0638534 
        1.52367       0.0618001       0.0622562 
        1.53953       0.0600951       0.0607028 
        1.55526       0.0586628       0.0592147 
        1.57092       0.0575236       0.0577824 
        1.58662        0.056024        0.056394 
        1.60235       0.0545984       0.0550484 
        1.61809       0.0532623       0.0537459 
        1.63369       0.0520278        0.052497 
        1.64941       0.0507584       0.0512787 
        1.66519       0.0496653       0.0500946 
        1.68085       0.0484445       0.0489562 
        1.69652        0.047431       0.0478527 
        1.71228       0.0461676       0.0467769 
        1.72806       0.0453585       0.0457332 
        1.74368        0.044242       0.0447317 
        1.75933       0.0433076       0.0437581 
        1.77505       0.0424482       0.0428088 
        1.79081       0.0414077       0.0418859 
         1.8065       0.0406229       0.0409941 
        1.82218       0.0395721        0.040129 
        1.83797       0.0387861       0.0392828 
        1.85367       0.0379524       0.0384656 
        1.86928       0.0370166       0.0376765 
        1.88497       0.0363443       0.0369051 
        1.90073       0.0354831       0.0361524 
        1.91647       0.0349987       0.0354213 
        1.93218       0.0343913       0.0347119 
        1.94787       0.0334501       0.0340229 
        1.96363        0.032806       0.0333498 
        1.97935       0.0321561       0.0326962 
        1.99499       0.0315729       0.0320638 
        2.01064       0.0308961       0.0314471 
         2.0264       0.0303872       0.0308427 
        2.04216        0.029789       0.0302544 
        2.05781       0.0291375       0.0296852 
        2.07353       0.0286167       0.0291285 
        2.08928        0.028112       0.0285848 
        2.10499       0.0276107       0.0280563 
        2.12065       0.0270665       0.0275428 
        2.13633       0.0265533       0.0270416 
        2.15211       0.0261044       0.0265497 
        2.16785       0.0254521       0.0260713 
        2.18349        0.025098       0.0256076 
        2.19916       0.0245933       0.0251542 
        2.21489       0.0241554       0.0247102 
        2.23063       0.0238065       0.0242766 
         2.2463       0.0233602       0.0238553 
        2.26194       0.0229535        0.023445 
        2.27765       0.0225945       0.0230422 
        2.29341       0.0220886       0.0226478 
        2.30914       0.0217488       0.0222635 
        2.32486       0.0213327       0.0218882 
        2.34061       0.0209637       0.0215209 
        2.35635       0.0206528       0.0211623 
        2.37203       0.0204038       0.0208131 
        2.38768        0.020098       0.0204724 
        2.40339       0.0196997       0.0201382 
        2.41914       0.0193388       0.0198106 
        2.43483       0.0190925       0.0194914 
         2.4505       0.0187049       0.0191797 
        2.46622       0.0183908       0.0188737 
        2.48195       0.0180804       0.0185744 
        2.49759       0.0178114       0.0182832 
        2.51328       0.0174807       0.0179974 
        2.52906       0.0172299       0.0177158 
        2.54479       0.0169921       0.0174413 
        2.56049       0.0166725       0.0171732 
        2.57618       0.0164536       0.0169109 
        2.59189       0.0161456       0.0166536 
        2.60758        0.015982       0.0164021 
        2.62325       0.0156248       0.0161561 
        2.63898       0.0154673       0.0159142 
        2.65468       0.0151842       0.0156777 
        2.67044        0.014949       0.0154451 
        2.68618       0.0147079       0.0152177 
        2.70184       0.0145886       0.0149957 
        2.71755       0.0143331       0.0147776 
        2.73329        0.014149       0.0145635 
        2.74897       0.0138995       0.0143543 
        2.76462       0.0136873       0.0141496 
        2.78034       0.0135247       0.0139481 
        2.79607       0.0133082       0.0137503 
        2.81179       0.0131025       0.0135565 
        2.82749       0.0129548       0.0133666 
        2.84321       0.0127308       0.0131802 
        2.85893       0.0125698       0.0129973 
        2.87462       0.0123846       0.0128183 
        2.89033       0.0122167       0.0126424 
        2.90605       0.0120148       0.0124696 
        2.92176       0.0119107       0.0123002 
        2.93747       0.0116985       0.0121339 
        2.95318       0.0115629       0.0119707 
        2.96891       0.0113758       0.0118104 
        2.98456       0.0112072       0.0116538 
        3.00023       0.0111318       0.0114997 
        3.01596       0.0109278       0.0113479 
        3.03164       0.0107848       0.0111993 
        3.04738       0.0106507       0.0110529 
         3.0631        0.010458       0.0109092 
        3.07883       0.0103726        0.010768 
        3.09456       0.0102301       0.0106293 
        3.11026       0.0100677       0.0104932 
        3.12596      0.00998527       0.0103595 
        3.14163      0.00984832       0.0102285 
        3.15734      0.00973396       0.0100994 
        3.17308      0.00960291      0.00997223 
        3.18879      0.00945514      0.00984757 
        3.20447      0.00935732      0.00972521 
         3.2202      0.00922648      0.00960455 
         3.2359      0.00911877      0.00948613 
        3.25157      0.00898902      0.00936998 
        3.26729      0.00889815      0.00925542 
        3.28304      0.00879729      0.00914254 
        3.29877      0.00867816      0.00903168 
        3.31446       0.0085528      0.00892289 
        3.33014       0.0084742      0.00881598 
        3.34585      0.00838732      0.00871064 
        3.36158      0.00826332      0.00860687 
        3.37727      0.00815238       0.0085051 
        3.39294      0.00807066      0.00840506 
        3.40867      0.00798941      0.00830626 
        3.42439      0.00788055       0.0082091 
        3.44008      0.00780146      0.00811367 
        3.45578      0.00770451      0.00801968 
        3.47153      0.00762246      0.00792697 
        3.48724      0.00752481      0.00783587 
        3.50292      0.00745952      0.00774641 
        3.51859      0.00739953      0.00765839 
        3.53431      0.00728709      0.00757145 
        3.55007      0.00720621      0.00748564 
        3.56577      0.00712541       0.0074015 
        3.58146       0.0070518      0.00731867 
        3.59719      0.00699408      0.00723692 
        3.61292      0.00691385      0.00715644 
        3.62859      0.00681148      0.00707748 
        3.64429      0.00676428      0.00699955 
        3.66003      0.00670222      0.00692255 
        3.67578      0.00661553      0.00684673 
        3.69146      0.00656273      0.00677233 
        3.70712      0.00648379      0.00669916 
        3.72284      0.00642396       0.0066268 
        3.73853      0.00634526      0.00655563 
        3.75422       0.0062891      0.00648547 
        3.76993      0.00623713      0.00641627 
        3.78564      0.00617985       0.0063481 
        3.80137      0.00611053      0.00628081 
        3.81707      0.00604214      0.00621463 
        3.83279      0.00597917      0.00614934 
        3.84853      0.00593871      0.00608489 
        3.86424      0.00587736      0.00602147 
        3.87992      0.00583176      0.00595905 
        3.89561      0.00578087      0.00589751 
        3.91134      0.00571262      0.00583671 
        3.92704      0.00567036      0.00577683 
        3.94273      0.00562587      0.00571784 
        3.95845      0.00557497      0.00565957 
        3.97418      0.00551848      0.00560209 
        3.98988      0.00545454      0.00554548 
        4.00554      0.00539951      0.00548981 
        4.02125      0.00534264      0.00543474 
        4.03698      0.00526456      0.00538033 
        4.05268      0.00520723      0.00532679 
        4.06839      0.00515576      0.00527393 
         4.0841       0.0050745       0.0052218 
        4.09983      0.00502462       0.0051703 
        4.11555      0.00495841      0.00511952 
        4.13124      0.00490522      0.00506955 
        4.14693      0.00484761       0.0050202 
        4.16266      0.00479575      0.00497139 
        4.17839      0.00474343      0.00492326 
        4.19408      0.00468124      0.00487586 
        4.20977      0.00462896      0.00482907 
        4.22551      0.00459445      0.00478278 
        4.24123      0.00454133      0.00473714 
        4.25691      0.00451895      0.00469222 
        4.27259      0.00446217      0.00464786 
        4.28831      0.00443253      0.00460398 
        4.30404      0.00438531      0.00456062 
        4.31974      0.00436822      0.00451792 
        4.33543       0.0043303      0.00447578 
        4.35116      0.00428741      0.00443407 
        4.36688       0.0042619      0.00439291 
        4.38255      0.00425152      0.00435243 
        4.39825      0.00422603      0.00431236 
        4.41398      0.00419184      0.00427271 
         4.4297      0.00416924      0.00423361 
        4.44541      0.00415723      0.00419499 
        4.46111      0.00413093      0.00415689 
        4.47683      0.00412038      0.00411923 
        4.49251      0.00410262      0.00408211 
        4.50819      0.00409188      0.00404545 
         4.5239      0.00407514      0.00400919 
        4.53962      0.00407466      0.00397332 
        4.55535      0.00405948      0.00393788 
        4.57106      0.00406565      0.00390292 
        4.58678      0.00404999      0.00386837 
         4.6025      0.00404901      0.00383422 
        4.61821      0.00405175       0.0038005 
        4.63391      0.00405255      0.00376722 
         4.6496      0.00404172      0.00373435 
        4.66532      0.00405746      0.00370182 
        4.68103      0.00405696      0.00366969 
        4.69673       0.0040563      0.00363797 
        4.71241      0.00409636      0.00360666 
        4.72811      0.00410283      0.00357566 
        4.74384      0.00410975      0.00354498 
        4.75955      0.00411679      0.00351471 
        4.77525      0.00414128       0.0034848 
        4.79096      0.00416911      0.00345521 
        4.80669      0.00418921      0.00342594 
         4.8224      0.00421717      0.00339705 
        4.83809      0.00423163      0.00336851 
        4.85379      0.00427158      0.00334028 
         4.8695      0.00428511      0.00331236 
        4.88521      0.00432698      0.00328476 
        4.90093       0.0043416      0.00325747 
        4.91663      0.00440291      0.00323051 
        4.93234      0.00441532      0.00320383 
        4.94807      0.00446222      0.00317743 
        4.96377      0.00450367      0.00315138 
        4.97943      0.00457427      0.00312567 
        4.99514      0.00458623      0.00310018 
        5.01086      0.00463886      0.00307495 
        5.02654      0.00468082      0.00305007 
        5.04227      0.00473171      0.00302539 
          5.058      0.00480398      0.00300097 
        5.07371      0.00484614      0.00297686 
        5.08942      0.00493764      0.00295302 
        5.10513      0.00497414      0.00292943 
        5.12084       0.0050338      0.00290608 
        5.13656      0.00509994        0.002883 
        5.15225      0.00517253       0.0028602 
        5.16796      0.00526924      0.00283761 
        5.18369      0.00532873      0.00281524 
         5.1994      0.00541876      0.00279316 
        5.21509      0.00547581      0.00277132 
        5.23079      0.00556768       0.0027497 
        5.24649      0.00565262      0.00272832 
        5.26217      0.00574348      0.00270718 
        5.27788      0.00583494      0.00268624 
        5.29359      0.00591744      0.00266551 
        5.30933      0.00602718      0.00264497 
        5.32504       0.0061184      0.00262468 
        5.34073      0.00621699      0.00260462 
        5.35646      0.00634091      0.00258474 
        5.37218      0.00648716      0.00256505 
        5.38789      0.00656286       0.0025456 
        5.40357      0.00667398      0.00252637 
        5.41929      0.00679604       0.0025073 
        5.43502      0.00695784      0.00248842 
         5.4507      0.00706759      0.00246978 
        5.46639       0.0071799      0.00245133 
        5.48212      0.00729761      0.00243302 
        5.49786      0.00753437      0.00241488 
        5.51353      0.00764954      0.00239701 
        5.52921      0.00775634       0.0023793 
        5.54495      0.00794561      0.00236172 
        5.56066      0.00812732      0.00234433 
        5.57637      0.00830468      0.00232712 
        5.59207      0.00844975       0.0023101 
        5.60778      0.00865367      0.00229324 
        5.62346      0.00883077      0.00227657 
        5.63916      0.00895588      0.00226005 
        5.65487      0.00915268      0.00224368 
         5.6706      0.00934533      0.00222746 
        5.68633      0.00959679      0.00221139 
        5.70203      0.00980049      0.00219551 
        5.71773        0.010043      0.00217979 
        5.73344       0.0101764      0.00216421 
        5.74916       0.0104626      0.00214877 
        5.76486       0.0107289       0.0021335 
        5.78054       0.0109288       0.0021184 
        5.79626       0.0111722      0.00210341 
          5.812         0.01146      0.00208854 
         5.8277       0.0116673      0.00207387 
        5.84339       0.0119826      0.00205933 
        5.85911       0.0123408       0.0020449 
        5.87484       0.0126087      0.00203061 
        5.89053        0.012888      0.00201649 
        5.90623       0.0132691      0.00200249 
        5.92195       0.0134852       0.0019886 
        5.93767       0.0138317      0.00197485 
        5.95336       0.0142565      0.00196125 
        5.96905       0.0146061      0.00194779 
        5.98476       0.0148711      0.00193443 
        6.00048       0.0153768      0.00192119 
        6.01617       0.0156017      0.00190809 
        6.03185       0.0160011      0.00189513 
        6.04756       0.0165597      0.00188226 
        6.06331       0.0168898      0.00186948 
        6.07903       0.0173717      0.00185685 
        6.09473       0.0177046      0.00184434 
        6.11044       0.0183677      0.00183193 
        6.12616       0.0186973      0.00181965 
        6.14186       0.0192804      0.00180748 
        6.15755       0.0198039      0.00179543 
        6.17326       0.0201772      0.00178347 
        6.18898       0.0208102      0.00177162 
        6.20467       0.0213432       0.0017599 
        6.22036       0.0220462      0.00174829 
         6.2361       0.0224904      0.00173674 
         6.2518       0.0231953      0.00172532 
        6.26748       0.0236683      0.00171403 
        6.28319       0.0246069      0.00170281 
        6.29893       0.0251979      0.00169167 
        6.31463       0.0259641      0.00168066 
        6.33033        0.026487      0.00166974 
        6.34604        0.027196      0.00165892 
        6.36177       0.0278736      0.00164818 
        6.37747       0.0289078      0.00163755 
