# k  (h/Mpc)    Pcb(k)  (Mpc/h)^3    Pcb_linear(k) (Mpc/h)^3   ShotnoiseSubtracted = true
      0.0200456         18564.3         18927.8 
      0.0350414           12141         12583.8 
      0.0492313         8882.61         8998.02 
      0.0637834         7588.19         7410.94 
      0.0800726         5675.41         5497.21 
       0.096163         3836.76          3875.1 
       0.111083         3159.84         3215.55 
       0.126058         2889.06         2823.14 
       0.142273         2398.54         2226.81 
       0.158546          2046.3         1751.26 
        0.17375         1664.77         1547.59 
       0.188953          1609.2         1380.19 
       0.204907         1476.75          1153.1 
       0.220756         1265.97         975.617 
        0.23588         1131.59         879.983 
         0.2514         979.521         792.606 
       0.267535         958.155          689.32 
       0.283568         866.198         606.585 
       0.299022         816.033         552.034 
       0.314451         772.378         502.661 
       0.330372         708.356         450.492 
       0.346141         655.245         406.949 
       0.361624         630.735         373.615 
       0.377134         582.929         343.487 
       0.392932         557.336         313.901 
       0.408854         540.095         287.825 
       0.424564         502.515         266.197 
       0.440253         493.913         246.664 
       0.455999         465.344          228.36 
       0.471626         444.158         212.054 
        0.48727         425.019          197.69 
       0.502856         412.355         184.679 
       0.518488         407.625         172.601 
       0.534347          380.08         161.448 
       0.550082         364.134         151.453 
       0.565732         362.291         142.354 
       0.581496         339.161         133.884 
       0.597222         333.882         126.111 
       0.612804         324.814         119.048 
       0.628434         312.088         112.503 
       0.644267         303.511         106.368 
       0.660051         295.282         100.704 
       0.675724         290.892         95.4876 
       0.691403         281.383         90.6375 
       0.707174           271.7         86.0979 
       0.722871         267.437         81.8876 
        0.73838         263.441         78.0036 
       0.754018         256.355         74.3419 
       0.769845          248.32         70.8749 
        0.78569         247.131         67.6251 
       0.801365         238.129         64.6102 
       0.817031         230.578         61.7805 
       0.832809         229.167         59.1019 
       0.848511         222.083         56.5935 
       0.864097         218.695         54.2476 
       0.879701          215.08          52.032 
       0.895507         210.319         49.9138 
       0.911279         203.321         47.9177 
        0.92691         203.287          46.047 
       0.942635         197.283         44.2657 
       0.958396         195.051         42.5748 
       0.974128         190.812         40.9751 
       0.989692             187         39.4733 
        1.00528         184.659         38.0445 
        1.02113         182.085         36.6639 
        1.03692         178.168          35.357 
        1.05264         174.804         34.1196 
        1.06832         171.159         32.9434 
        1.08405          168.65         31.8194 
        1.09979           165.8         30.7472 
        1.11537         163.404         29.7349 
        1.13105         159.212         28.7621 
        1.14679         159.092          27.829 
        1.16256         156.642         26.9354 
        1.17828         153.686         26.0839 
        1.19395         150.813          25.272 
         1.2097         150.418         24.4906 
        1.22537           146.9         23.7458 
          1.241         145.469         23.0342 
        1.25666         142.867           22.35 
        1.27241         140.104         21.6903 
        1.28819         138.604          21.056 
        1.30392          135.29         20.4489 
        1.31957         135.146         19.8684 
        1.33529         131.593         19.3082 
        1.35108         130.254         18.7674 
        1.36674         128.861         18.2511 
         1.3824         127.507         17.7547 
        1.39811         126.027          17.275 
        1.41389          123.78         16.8112 
        1.42964         121.484         16.3651 
        1.44531         119.722         15.9374 
        1.46101         117.683          15.524 
        1.47667         116.222         15.1265 
        1.49229         114.818         14.7439 
        1.50793         113.311         14.3741 
        1.52367          112.18         14.0146 
        1.53953         109.916         13.6649 
        1.55526         108.734         13.3299 
        1.57092         107.586         13.0075 
        1.58662         106.015         12.6949 
        1.60235         104.709          12.392 
        1.61809          103.14         12.0988 
        1.63369         101.565         11.8176 
        1.64941         100.533         11.5434 
        1.66519           99.06         11.2768 
        1.68085         98.4822         11.0206 
        1.69652           96.35         10.7722 
        1.71228         95.6091           10.53 
        1.72806         94.5109          10.295 
        1.74368         93.3759         10.0696 
        1.75933         92.1442         9.85043 
        1.77505         90.9755         9.63673 
        1.79081         89.8153         9.42898 
         1.8065         88.6479         9.22823 
        1.82218         87.0852         9.03347 
        1.83797         85.7743         8.84299 
        1.85367          85.385         8.65903 
        1.86928         83.7954         8.48138 
        1.88497         82.7535         8.30774 
        1.90073         81.8416          8.1383 
        1.91647         81.0563         7.97372 
        1.93218         80.0974         7.81403 
        1.94787         79.0422         7.65892 
        1.96363         77.9374          7.5074 
        1.97935         76.6554         7.36027 
        1.99499         76.3066         7.21791 
        2.01064         75.2453         7.07909 
         2.0264         74.1501         6.94303 
        2.04216          73.464          6.8106 
        2.05781         72.3006         6.68246 
        2.07353         71.2178         6.55713 
        2.08928         70.2433         6.43474 
        2.10499         69.1816         6.31579 
        2.12065         68.8541         6.20019 
        2.13633         68.0968         6.08737 
        2.15211         67.4793         5.97662 
        2.16785         66.2491         5.86893 
        2.18349         65.5521         5.76455 
        2.19916         64.7146         5.66248 
        2.21489         64.0296         5.56254 
        2.23063         63.2685         5.46493 
         2.2463         62.2368         5.37009 
        2.26194          62.157         5.27773 
        2.27765         61.2217         5.18706 
        2.29341         60.3744         5.09828 
        2.30914         59.7509         5.01175 
        2.32486          59.114         4.92727 
        2.34061         58.3141         4.84458 
        2.35635         57.4529         4.76386 
        2.37203         56.6072         4.68525 
        2.38768         56.0397         4.60857 
        2.40339         55.5727         4.53332 
        2.41914         54.9471         4.45957 
        2.43483         54.7052         4.38772 
         2.4505         53.9322         4.31756 
        2.46622         53.1182         4.24869 
        2.48195         52.6958          4.1813 
        2.49759         51.8448         4.11574 
        2.51328         51.3302          4.0514 
        2.52906         50.8406         3.98803 
        2.54479         50.3238         3.92624 
        2.56049         49.5242         3.86587 
        2.57618         49.2466         3.80682 
        2.59189         48.3922         3.74891 
        2.60758         48.0737         3.69229 
        2.62325         47.3402         3.63691 
        2.63898         47.0615         3.58246 
        2.65468         46.6054         3.52923 
        2.67044         45.8228         3.47686 
        2.68618         45.4982         3.42566 
        2.70184         44.9145         3.37569 
        2.71755         44.5294          3.3266 
        2.73329         43.9274         3.27839 
        2.74897         43.5962          3.2313 
        2.76462         42.9995         3.18523 
        2.78034         42.5822         3.13987 
        2.79607         42.1491         3.09533 
        2.81179         41.6498         3.05171 
        2.82749         41.0549         3.00897 
        2.84321         40.7547           2.967 
        2.85893         40.2429         2.92584 
        2.87462         39.7861         2.88553 
        2.89033         39.3988         2.84594 
        2.90605         38.8733         2.80705 
        2.92176          38.566          2.7689 
        2.93747         38.1882         2.73148 
        2.95318          37.718         2.69474 
        2.96891         37.1914         2.65866 
        2.98456         36.9175         2.62339 
        3.00023         36.4366         2.58871 
        3.01596         36.1794         2.55454 
        3.03164         35.8057         2.52109 
        3.04738         35.5682         2.48813 
         3.0631         35.0876         2.45577 
        3.07883         34.6577         2.42399 
        3.09456         34.3278         2.39277 
        3.11026         34.0084         2.36214 
        3.12596         33.6635         2.33205 
        3.14163         33.2192         2.30255 
        3.15734         32.8296         2.27349 
        3.17308         32.7335         2.24486 
        3.18879         32.4371          2.2168 
        3.20447         31.8879         2.18925 
         3.2202         31.5969         2.16209 
         3.2359         31.3554         2.13543 
        3.25157         31.1055         2.10929 
        3.26729         30.5782          2.0835 
        3.28304         30.3641         2.05809 
        3.29877         30.0143         2.03313 
        3.31446         29.8017         2.00864 
        3.33014         29.4804         1.98457 
        3.34585         29.2032         1.96086 
        3.36158         28.9223          1.9375 
        3.37727         28.6013         1.91459 
        3.39294         28.3658         1.89207 
        3.40867          28.055         1.86983 
        3.42439         27.7909         1.84796 
        3.44008         27.5542         1.82648 
        3.45578          27.185         1.80532 
        3.47153         26.9913         1.78445 
        3.48724         26.7052         1.76394 
        3.50292         26.4336          1.7438 
        3.51859         26.1555         1.72399 
        3.53431         26.0132         1.70442 
        3.55007         25.6911          1.6851 
        3.56577         25.4807         1.66616 
        3.58146         25.2505         1.64751 
        3.59719         24.9897         1.62911 
        3.61292         24.7574         1.61099 
        3.62859         24.4754         1.59322 
        3.64429         24.2879         1.57568 
        3.66003         23.9281         1.55834 
        3.67578         23.7662         1.54127 
        3.69146          23.582         1.52453 
        3.70712         23.4186         1.50806 
        3.72284         23.2373         1.49177 
        3.73853         22.9291         1.47574 
        3.75422         22.7771         1.45995 
        3.76993         22.4908         1.44437 
        3.78564         22.3422         1.42903 
        3.80137         22.1159         1.41388 
        3.81707         21.9443         1.39898 
        3.83279         21.7038         1.38428 
        3.84853         21.4896         1.36977 
        3.86424         21.3364          1.3555 
        3.87992         21.0824         1.34145 
        3.89561         20.9216         1.32759 
        3.91134         20.7352         1.31391 
        3.92704         20.5762         1.30043 
        3.94273         20.3326         1.28715 
        3.95845         20.1164         1.27403 
        3.97418         20.0068         1.26109 
        3.98988         19.7641         1.24835 
        4.00554         19.6237         1.23582 
        4.02125         19.4373         1.22342 
        4.03698         19.2777         1.21117 
        4.05268         19.0617         1.19912 
        4.06839         18.9182         1.18722 
         4.0841         18.7852         1.17549 
        4.09983         18.6185         1.16389 
        4.11555         18.4751         1.15246 
        4.13124         18.2228         1.14121 
        4.14693         18.0587          1.1301 
        4.16266         17.8882         1.11911 
        4.17839         17.7652         1.10828 
        4.19408         17.5884         1.09761 
        4.20977         17.4529         1.08708 
        4.22551         17.3244         1.07666 
        4.24123         17.1012         1.06638 
        4.25691         16.9686         1.05627 
        4.27259         16.8387         1.04628 
        4.28831         16.7055         1.03641 
        4.30404         16.5424         1.02665 
        4.31974         16.4026         1.01703 
        4.33543         16.2734         1.00755 
        4.35116         16.1183        0.998159 
        4.36688         15.9943        0.988893 
        4.38255         15.8468        0.979779 
        4.39825         15.7525        0.970759 
        4.41398         15.6256        0.961835 
         4.4297         15.4756        0.953031 
        4.44541         15.3294        0.944339 
        4.46111         15.2378        0.935761 
        4.47683           15.07        0.927283 
        4.49251         14.9885        0.918927 
        4.50819         14.8375        0.910675 
         4.5239         14.7136        0.902512 
        4.53962          14.549        0.894439 
        4.55535         14.4563         0.88646 
        4.57106         14.3436        0.878589 
        4.58678         14.2422        0.870812 
         4.6025         14.1028        0.863126 
        4.61821         13.9671        0.855534 
        4.63391         13.8965        0.848043 
         4.6496         13.7445        0.840643 
        4.66532         13.6127        0.833321 
        4.68103         13.5468        0.826088 
        4.69673         13.4217        0.818948 
        4.71241         13.3365        0.811898 
        4.72811         13.2065         0.80492 
        4.74384         13.1081        0.798014 
        4.75955         12.9917        0.791199 
        4.77525         12.9261        0.784467 
        4.79096         12.7872        0.777805 
        4.80669         12.7183        0.771217 
         4.8224         12.5982        0.764712 
        4.83809         12.4814        0.758289 
        4.85379         12.3883        0.751935 
         4.8695          12.286        0.745648 
        4.88521         12.2241        0.739435 
        4.90093          12.076        0.733292 
        4.91663         11.9953        0.727224 
        4.93234         11.9158        0.721218 
        4.94807         11.7991        0.715275 
        4.96377         11.7328         0.70941 
        4.97943         11.6409        0.703623 
        4.99514         11.5461        0.697885 
        5.01086         11.4549        0.692206 
        5.02654         11.3608        0.686605 
        5.04227         11.2789        0.681048 
          5.058         11.1922        0.675551 
        5.07371         11.1005        0.670124 
        5.08942          11.028        0.664756 
        5.10513         10.9203        0.659446 
        5.12084          10.856        0.654191 
        5.13656         10.7652        0.648994 
        5.15225         10.6829        0.643862 
        5.16796         10.6043        0.638777 
        5.18369         10.5399        0.633742 
         5.1994         10.4572         0.62877 
        5.21509         10.3763        0.623856 
        5.23079         10.2913        0.618988 
        5.24649           10.21        0.614175 
        5.26217         10.1438        0.609417 
        5.27788         10.0431        0.604702 
        5.29359         9.98787        0.600036 
        5.30933         9.93625        0.595412 
        5.32504         9.84811        0.590844 
        5.34073         9.76872        0.586329 
        5.35646         9.69536        0.581852 
        5.37218         9.59596        0.577421 
        5.38789          9.5449        0.573043 
        5.40357         9.47476        0.568714 
        5.41929         9.39176        0.564421 
        5.43502         9.33273        0.560171 
         5.4507         9.27433        0.555975 
        5.46639         9.21358        0.551821 
        5.48212         9.13858          0.5477 
        5.49786         9.06649        0.543615 
        5.51353         9.00778        0.539593 
        5.52921         8.94103        0.535606 
        5.54495          8.8805        0.531648 
        5.56066         8.79284        0.527734 
        5.57637         8.74909         0.52386 
        5.59207         8.66942        0.520028 
        5.60778         8.61884        0.516233 
        5.62346          8.5556         0.51248 
        5.63916         8.49899        0.508761 
        5.65487         8.43145        0.505077 
         5.6706         8.38033        0.501425 
        5.68633         8.31356        0.497808 
        5.70203         8.25508        0.494233 
        5.71773         8.19126        0.490694 
        5.73344          8.1395        0.487188 
        5.74916         8.09781        0.483712 
        5.76486         8.03301        0.480275 
        5.78054         7.98119        0.476876 
        5.79626         7.90172        0.473501 
          5.812         7.86835        0.470154 
         5.8277         7.80477         0.46685 
        5.84339         7.75392        0.463577 
        5.85911         7.69383        0.460329 
        5.87484         7.65412        0.457113 
        5.89053         7.58895        0.453933 
        5.90623         7.52427        0.450783 
        5.92195         7.48955        0.447656 
        5.93767          7.4366        0.444561 
        5.95336         7.39158          0.4415 
        5.96905         7.32976        0.438468 
        5.98476         7.27198        0.435461 
        6.00048         7.25711        0.432481 
        6.01617          7.1867        0.429533 
        6.03185         7.14244        0.426615 
        6.04756         7.10023        0.423717 
        6.06331         7.06469        0.420841 
        6.07903         7.01395        0.417996 
        6.09473         6.96265        0.415181 
        6.11044         6.90551        0.412388 
        6.12616          6.8752        0.409622 
        6.14186          6.8273        0.406884 
        6.15755         6.76591         0.40417 
        6.17326         6.72675         0.40148 
        6.18898         6.69154        0.398812 
        6.20467         6.63857        0.396173 
        6.22036         6.58884        0.393558 
         6.2361         6.54605         0.39096 
         6.2518         6.50519        0.388389 
        6.26748         6.46782        0.385847 
        6.28319         6.42747         0.38332 
        6.29893         6.38362        0.380814 
        6.31463         6.33887        0.378334 
        6.33033         6.29941        0.375878 
        6.34604         6.24643        0.373441 
        6.36177         6.21433        0.371023 
        6.37747         6.17057        0.368631 
