# k  (h/Mpc)    Pcb(k)  (Mpc/h)^3    Pcb_linear(k) (Mpc/h)^3   ShotnoiseSubtracted = true
      0.0200456         24010.4         24399.8 
      0.0350414         16865.5         16221.8 
      0.0492313         11390.4         11599.3 
      0.0637834         9094.72         9553.41 
      0.0800726         6750.73         7086.44 
       0.096163         5324.97         4995.38 
       0.111083         4433.36         4145.16 
       0.126058         3641.27         3639.31 
       0.142273         3064.76         2870.58 
       0.158546         2498.05         2257.55 
        0.17375         2263.81         1994.99 
       0.188953         2134.05          1779.2 
       0.204907         1800.04         1486.46 
       0.220756         1624.94         1257.66 
        0.23588         1456.12         1134.38 
         0.2514         1311.02         1021.75 
       0.267535         1257.58         888.601 
       0.283568         1115.99         781.946 
       0.299022         1060.27         711.625 
       0.314451         1104.64         647.978 
       0.330372         966.528         580.728 
       0.346141         886.021         524.596 
       0.361624         849.067         481.626 
       0.377134         812.976         442.788 
       0.392932         770.178         404.648 
       0.408854         739.934         371.035 
       0.424564         722.391         343.154 
       0.440253          666.04         317.974 
       0.455999         635.406         294.378 
       0.471626         647.198         273.358 
        0.48727         607.377         254.841 
       0.502856          583.27         238.069 
       0.518488         564.434         222.499 
       0.534347         542.395         208.122 
       0.550082         516.181         195.237 
       0.565732         507.899         183.509 
       0.581496         495.555         172.589 
       0.597222         484.246         162.569 
       0.612804         471.749         153.464 
       0.628434         451.935         145.028 
       0.644267         438.291         137.118 
       0.660051         433.459         129.818 
       0.675724         422.281         123.093 
       0.691403         411.741          116.84 
       0.707174         397.793         110.988 
       0.722871         394.152         105.561 
        0.73838         384.172         100.554 
       0.754018         373.157         95.8339 
       0.769845         370.295         91.3646 
        0.78569         361.008         87.1753 
       0.801365         348.262         83.2888 
       0.817031         346.299         79.6411 
       0.832809         340.147          76.188 
       0.848511         334.543         72.9546 
       0.864097         324.328         69.9304 
       0.879701          324.17         67.0743 
       0.895507         311.638         64.3438 
       0.911279         306.547         61.7706 
        0.92691         303.856         59.3591 
       0.942635         299.463         57.0628 
       0.958396         289.803          54.883 
       0.974128         286.466         52.8209 
       0.989692         277.698         50.8849 
        1.00528         274.883          49.043 
        1.02113         271.945         47.2634 
        1.03692         266.992         45.5785 
        1.05264         262.581         43.9835 
        1.06832         257.402         42.4672 
        1.08405         255.206         41.0183 
        1.09979         249.974         39.6361 
        1.11537         244.498         38.3311 
        1.13105         241.157         37.0771 
        1.14679         237.779         35.8742 
        1.16256         235.884         34.7223 
        1.17828         231.991         33.6247 
        1.19395         225.649         32.5781 
         1.2097         225.236         31.5707 
        1.22537         222.007         30.6107 
          1.241          215.55         29.6934 
        1.25666         214.538         28.8113 
        1.27241         211.352         27.9609 
        1.28819         206.946         27.1433 
        1.30392         206.575         26.3606 
        1.31957         200.731         25.6123 
        1.33529         197.126         24.8902 
        1.35108         196.841          24.193 
        1.36674         190.961         23.5275 
         1.3824         189.457         22.8875 
        1.39811         187.963         22.2692 
        1.41389         183.518         21.6713 
        1.42964         180.337         21.0963 
        1.44531         179.477         20.5449 
        1.46101         176.085          20.012 
        1.47667         173.996         19.4995 
        1.49229         171.849         19.0063 
        1.50793         168.863         18.5296 
        1.52367         166.319         18.0661 
        1.53953         163.779         17.6153 
        1.55526         161.852         17.1835 
        1.57092         161.012         16.7679 
        1.58662         157.308          16.365 
        1.60235         155.886         15.9745 
        1.61809         153.335         15.5965 
        1.63369          150.58         15.2341 
        1.64941         149.182         14.8806 
        1.66519         146.671         14.5369 
        1.68085          144.59         14.2066 
        1.69652          143.53         13.8864 
        1.71228         140.855         13.5742 
        1.72806         139.529         13.2713 
        1.74368          137.31         12.9807 
        1.75933         136.304         12.6982 
        1.77505           134.5         12.4227 
        1.79081          131.92         12.1549 
         1.8065          130.35         11.8961 
        1.82218         127.711          11.645 
        1.83797         126.836         11.3995 
        1.85367         125.314         11.1623 
        1.86928         123.836         10.9333 
        1.88497         122.918         10.7095 
        1.90073         121.353         10.4911 
        1.91647         119.042         10.2789 
        1.93218         117.332          10.073 
        1.94787         115.735         9.87309 
        1.96363         115.151         9.67776 
        1.97935          114.05          9.4881 
        1.99499          112.06         9.30458 
        2.01064         110.131         9.12563 
         2.0264         109.083         8.95024 
        2.04216         107.425         8.77953 
        2.05781           105.9         8.61433 
        2.07353         105.067         8.45278 
        2.08928         103.337         8.29501 
        2.10499         102.871         8.14166 
        2.12065         101.079         7.99264 
        2.13633         100.149         7.84721 
        2.15211           98.49         7.70444 
        2.16785         97.4509         7.56561 
        2.18349         96.0506         7.43106 
        2.19916         95.6205         7.29949 
        2.21489          93.851         7.17065 
        2.23063         92.4768         7.04482 
         2.2463         91.6613         6.92257 
        2.26194         90.7394         6.80351 
        2.27765         89.6394         6.68662 
        2.29341         88.5368         6.57217 
        2.30914         87.3634         6.46063 
        2.32486         86.3796         6.35172 
        2.34061         85.0653         6.24513 
        2.35635          84.488         6.14108 
        2.37203         83.1037         6.03974 
        2.38768         82.1449          5.9409 
        2.40339         81.1854         5.84389 
        2.41914         80.2856         5.74882 
        2.43483         79.6151         5.65619 
         2.4505         78.3405         5.56575 
        2.46622         77.5244         5.47697 
        2.48195         76.8158         5.39011 
        2.49759         75.5008         5.30558 
        2.51328         74.8954         5.22265 
        2.52906         73.8601         5.14095 
        2.54479         73.0798          5.0613 
        2.56049         71.9413         4.98348 
        2.57618         71.2622         4.90736 
        2.59189         70.1782         4.83271 
        2.60758         69.1627         4.75972 
        2.62325         68.6408         4.68832 
        2.63898         68.1919         4.61813 
        2.65468          67.303         4.54952 
        2.67044         66.4184           4.482 
        2.68618         65.5961         4.41601 
        2.70184         65.0186          4.3516 
        2.71755         64.2618          4.2883 
        2.73329         63.3977         4.22617 
        2.74897          62.899         4.16546 
        2.76462          62.182         4.10607 
        2.78034         61.2146         4.04759 
        2.79607         60.6326         3.99018 
        2.81179          60.059         3.93395 
        2.82749         59.6867         3.87886 
        2.84321         58.7512         3.82475 
        2.85893         58.0479          3.7717 
        2.87462         57.6258         3.71973 
        2.89033         56.7535         3.66869 
        2.90605         56.2366         3.61856 
        2.92176         55.7837         3.56938 
        2.93747         55.3432         3.52114 
        2.95318         54.5092         3.47378 
        2.96891         53.9521         3.42727 
        2.98456         53.2841          3.3818 
        3.00023         52.9149          3.3371 
        3.01596         52.2027         3.29305 
        3.03164          51.604         3.24993 
        3.04738         51.4157         3.20744 
         3.0631          50.509         3.16573 
        3.07883          49.942         3.12475 
        3.09456         49.3553         3.08451 
        3.11026         49.0555         3.04502 
        3.12596         48.4773         3.00624 
        3.14163          47.817         2.96821 
        3.15734         47.3117         2.93075 
        3.17308         46.8302         2.89384 
        3.18879         46.4388         2.85766 
        3.20447         46.0099         2.82216 
         3.2202         45.4717         2.78714 
         3.2359          44.931         2.75278 
        3.25157         44.5858         2.71907 
        3.26729          44.187         2.68583 
        3.28304         43.6853         2.65307 
        3.29877         43.2147          2.6209 
        3.31446         42.7729         2.58933 
        3.33014         42.2837         2.55831 
        3.34585         41.8185         2.52774 
        3.36158         41.4853         2.49762 
        3.37727          40.991         2.46809 
        3.39294         40.6937         2.43906 
        3.40867         40.2354         2.41039 
        3.42439         39.9122          2.3822 
        3.44008         39.4715          2.3545 
        3.45578         39.0444         2.32723 
        3.47153          38.549         2.30032 
        3.48724         38.2797         2.27389 
        3.50292         37.9326         2.24793 
        3.51859         37.5083         2.22239 
        3.53431         37.0786         2.19716 
        3.55007         36.8175         2.17226 
        3.56577          36.465         2.14784 
        3.58146         36.1248          2.1238 
        3.59719          35.771         2.10008 
        3.61292         35.3421         2.07673 
        3.62859         35.0224         2.05381 
        3.64429           34.73          2.0312 
        3.66003         34.3868         2.00885 
        3.67578         34.1025         1.98685 
        3.69146         33.7969         1.96526 
        3.70712         33.4588         1.94403 
        3.72284         33.1425         1.92303 
        3.73853         32.8423         1.90238 
        3.75422         32.4424         1.88202 
        3.76993          32.288         1.86194 
        3.78564         31.8886         1.84215 
        3.80137         31.7238         1.82263 
        3.81707          31.211         1.80342 
        3.83279         31.1099         1.78448 
        3.84853         30.7609         1.76577 
        3.86424         30.4474         1.74737 
        3.87992         30.2038         1.72926 
        3.89561         29.9496          1.7114 
        3.91134         29.6842         1.69375 
        3.92704         29.4291         1.67638 
        3.94273         29.0871         1.65926 
        3.95845         28.9062         1.64235 
        3.97418         28.6342         1.62567 
        3.98988         28.2768         1.60924 
        4.00554         28.0965         1.59309 
        4.02125         27.8297         1.57711 
        4.03698         27.5285         1.56132 
        4.05268         27.3399         1.54578 
        4.06839          27.064         1.53044 
         4.0841          26.786         1.51531 
        4.09983         26.6061         1.50037 
        4.11555         26.2988         1.48563 
        4.13124         26.1294         1.47113 
        4.14693         25.8317         1.45681 
        4.16266         25.6385         1.44265 
        4.17839         25.3878         1.42868 
        4.19408         25.2171         1.41493 
        4.20977         24.9967         1.40135 
        4.22551         24.6936         1.38791 
        4.24123         24.5232         1.37467 
        4.25691         24.3551         1.36163 
        4.27259         24.1647         1.34876 
        4.28831         23.9151         1.33603 
        4.30404          23.701         1.32345 
        4.31974         23.5052         1.31105 
        4.33543         23.3287         1.29883 
        4.35116         23.1126         1.28672 
        4.36688         22.9097         1.27478 
        4.38255         22.7205         1.26303 
        4.39825         22.4875          1.2514 
        4.41398         22.3437          1.2399 
         4.4297         22.1863         1.22855 
        4.44541         21.9395         1.21734 
        4.46111         21.7817         1.20629 
        4.47683         21.6039         1.19536 
        4.49251         21.4024         1.18459 
        4.50819         21.2358         1.17395 
         4.5239         21.0147         1.16343 
        4.53962         20.8795         1.15302 
        4.55535         20.7129         1.14273 
        4.57106         20.5457         1.13259 
        4.58678          20.372         1.12256 
         4.6025          20.245         1.11265 
        4.61821         19.9916         1.10287 
        4.63391         19.8497         1.09321 
         4.6496         19.6992         1.08367 
        4.66532         19.5623         1.07423 
        4.68103         19.4508         1.06491 
        4.69673         19.2063          1.0557 
        4.71241         19.1155         1.04662 
        4.72811         18.9183         1.03762 
        4.74384         18.7787         1.02872 
        4.75955         18.5853         1.01993 
        4.77525         18.4513         1.01125 
        4.79096         18.3605         1.00267 
        4.80669         18.1695        0.994173 
         4.8224         18.0347        0.985788 
        4.83809         17.9032        0.977507 
        4.85379         17.7498        0.969317 
         4.8695         17.6405        0.961212 
        4.88521         17.4364        0.953204 
        4.90093         17.3178        0.945285 
        4.91663          17.198        0.937462 
        4.93234         17.0218         0.92972 
        4.94807          16.943        0.922059 
        4.96377         16.7363        0.914498 
        4.97943         16.6651        0.907038 
        4.99514         16.5304        0.899641 
        5.01086         16.3792        0.892321 
        5.02654         16.2917          0.8851 
        5.04227         16.1349        0.877937 
          5.058         15.9904         0.87085 
        5.07371         15.8356        0.863855 
        5.08942         15.7491        0.856935 
        5.10513         15.6192         0.85009 
        5.12084         15.5379        0.843316 
        5.13656         15.4064        0.836616 
        5.15225         15.3041            0.83 
        5.16796          15.181        0.823445 
        5.18369         15.0724        0.816955 
         5.1994         14.9286        0.810545 
        5.21509         14.8553         0.80421 
        5.23079         14.7089        0.797935 
        5.24649         14.5957        0.791731 
        5.26217         14.4992        0.785597 
        5.27788         14.3814        0.779519 
        5.29359         14.2909        0.773504 
        5.30933         14.1726        0.767544 
        5.32504         14.0596        0.761656 
        5.34073          13.965        0.755835 
        5.35646          13.851        0.750064 
        5.37218         13.7338        0.744352 
        5.38789         13.6857        0.738707 
        5.40357          13.584        0.733128 
        5.41929         13.4461        0.727593 
        5.43502         13.3549        0.722115 
         5.4507         13.2632        0.716706 
        5.46639         13.1764        0.711351 
        5.48212         13.0591        0.706038 
        5.49786         12.9527        0.700773 
        5.51353         12.8864        0.695587 
        5.52921         12.7823        0.690448 
        5.54495         12.7005        0.685346 
        5.56066         12.5942        0.680301 
        5.57637         12.5012        0.675306 
        5.59207         12.4269        0.670367 
        5.60778         12.3142        0.665474 
        5.62346         12.2511        0.660637 
        5.63916         12.1524        0.655843 
        5.65487          12.075        0.651094 
         5.6706         11.9696        0.646386 
        5.68633            11.9        0.641722 
        5.70203         11.8229        0.637114 
        5.71773         11.7335        0.632552 
        5.73344         11.6449        0.628032 
        5.74916         11.5651        0.623551 
        5.76486         11.4787        0.619121 
        5.78054         11.4032        0.614739 
        5.79626         11.3228        0.610388 
          5.812          11.246        0.606074 
         5.8277          11.184        0.601815 
        5.84339         11.0765        0.597596 
        5.85911         11.0104        0.593409 
        5.87484         10.9271        0.589263 
        5.89053         10.8635        0.585164 
        5.90623         10.7741        0.581102 
        5.92195          10.695        0.577072 
        5.93767         10.6049        0.573082 
        5.95336         10.5537        0.569136 
        5.96905         10.4675        0.565228 
        5.98476         10.4181        0.561352 
        6.00048         10.3171         0.55751 
        6.01617         10.2692        0.553709 
        6.03185         10.1737        0.549948 
        6.04756         10.1307        0.546213 
        6.06331         10.0679        0.542504 
        6.07903         9.97842        0.538838 
        6.09473         9.94233        0.535208 
        6.11044         9.86081        0.531608 
        6.12616         9.79598        0.528042 
        6.14186         9.72497        0.524512 
        6.15755         9.64943        0.521015 
        6.17326         9.58744        0.517546 
        6.18898         9.53726        0.514107 
        6.20467         9.46594        0.510706 
        6.22036         9.37438        0.507335 
         6.2361         9.34989        0.503985 
         6.2518         9.28559        0.500671 
        6.26748         9.18347        0.497394 
        6.28319         9.15976        0.494137 
        6.29893         9.07989        0.490906 
        6.31463         9.02784         0.48771 
        6.33033         8.96988        0.484542 
        6.34604         8.89561        0.481401 
        6.36177         8.84396        0.478284 
        6.37747         8.78183        0.475201 
