# k  (h/Mpc)    Pcb(k)  (Mpc/h)^3    Pcb_linear(k) (Mpc/h)^3   ShotnoiseSubtracted = true
      0.0200456         2013.92         2037.32 
      0.0350414         1380.36         1354.47 
      0.0492313         971.007         968.512 
      0.0637834         785.805         797.684 
      0.0800726         584.516         591.698 
       0.096163         427.224         417.101 
       0.111083          354.64          346.11 
       0.126058         301.753         303.872 
       0.142273         239.903         239.686 
       0.158546         192.049         188.499 
        0.17375           170.6         166.577 
       0.188953         151.633         148.558 
       0.204907         123.965         124.115 
       0.220756         108.297         105.012 
        0.23588         97.1774          94.718 
         0.2514         87.3604          85.313 
       0.267535          77.998         74.1958 
       0.283568         68.2519         65.2904 
       0.299022         62.8337         59.4188 
       0.314451          58.756         54.1044 
       0.330372         51.8291         48.4893 
       0.346141         47.0728         43.8024 
       0.361624         43.2482         40.2144 
       0.377134         39.5223         36.9716 
       0.392932         37.6767         33.7871 
       0.408854         34.1122         30.9804 
       0.424564         32.4747         28.6524 
       0.440253         29.5944           26.55 
       0.455999          26.891         24.5798 
       0.471626         25.2914         22.8246 
        0.48727         24.3887         21.2786 
       0.502856         22.7919         19.8781 
       0.518488         21.0766         18.5781 
       0.534347         19.7197         17.3776 
       0.550082         18.8921         16.3018 
       0.565732         18.0645         15.3225 
       0.581496         16.9285         14.4107 
       0.597222         15.9363         13.5741 
       0.612804         15.0397         12.8138 
       0.628434         14.6513         12.1094 
       0.644267         13.8396          11.449 
       0.660051         13.0771         10.8394 
       0.675724         12.3914         10.2779 
       0.691403         12.0266         9.75586 
       0.707174         11.4416         9.26724 
       0.722871          11.083         8.81406 
        0.73838         10.4155           8.396 
       0.754018         9.86782         8.00187 
       0.769845         9.51068          7.6287 
        0.78569         9.23518          7.2789 
       0.801365         8.81626         6.95439 
       0.817031         8.48319         6.64982 
       0.832809         8.12377          6.3615 
       0.848511         7.86789         6.09151 
       0.864097         7.57351           5.839 
       0.879701         7.39526         5.60053 
       0.895507         7.09767         5.37253 
       0.911279         6.79096         5.15768 
        0.92691         6.60416         4.95632 
       0.942635         6.37094         4.76459 
       0.958396          6.1575         4.58258 
       0.974128          5.9903          4.4104 
       0.989692         5.69288         4.24875 
        1.00528         5.61817         4.09496 
        1.02113         5.41911         3.94636 
        1.03692         5.28064         3.80569 
        1.05264         5.10208         3.67251 
        1.06832         4.96977          3.5459 
        1.08405         4.82579         3.42492 
        1.09979         4.69132         3.30951 
        1.11537         4.55762         3.20055 
        1.13105          4.4332         3.09584 
        1.14679         4.32122          2.9954 
        1.16256         4.19043         2.89922 
        1.17828         4.11581         2.80757 
        1.19395         3.97644         2.72019 
         1.2097         3.85164         2.63607 
        1.22537         3.74895         2.55591 
          1.241         3.65357         2.47932 
        1.25666         3.62203         2.40567 
        1.27241         3.53405         2.33466 
        1.28819         3.38503         2.26639 
        1.30392         3.31768         2.20104 
        1.31957         3.25468         2.13856 
        1.33529         3.16007         2.07826 
        1.35108         3.09514         2.02005 
        1.36674         3.00828         1.96448 
         1.3824         2.97299         1.91105 
        1.39811         2.89651         1.85942 
        1.41389         2.81559         1.80949 
        1.42964         2.76656         1.76148 
        1.44531         2.70721         1.71544 
        1.46101         2.66812         1.67095 
        1.47667         2.60283         1.62816 
        1.49229         2.51791         1.58698 
        1.50793         2.46281         1.54717 
        1.52367         2.41664         1.50847 
        1.53953          2.3624         1.47083 
        1.55526         2.36009         1.43478 
        1.57092         2.29015         1.40007 
        1.58662         2.25941         1.36643 
        1.60235          2.1999         1.33383 
        1.61809         2.15854         1.30227 
        1.63369          2.1153         1.27201 
        1.64941         2.07743         1.24249 
        1.66519         2.04911          1.2138 
        1.68085          2.0007         1.18621 
        1.69652         1.96708         1.15947 
        1.71228          1.9327         1.13341 
        1.72806         1.90155         1.10812 
        1.74368         1.86508         1.08385 
        1.75933         1.83573         1.06026 
        1.77505         1.79981         1.03726 
        1.79081         1.76641          1.0149 
         1.8065         1.74281         0.99329 
        1.82218         1.70095        0.972328 
        1.83797         1.67266        0.951825 
        1.85367         1.64853        0.932024 
        1.86928         1.62436        0.912903 
        1.88497         1.59025        0.894213 
        1.90073         1.57434        0.875975 
        1.91647         1.54337         0.85826 
        1.93218          1.5181        0.841071 
        1.94787         1.49966        0.824377 
        1.96363         1.47549        0.808067 
        1.97935         1.45034        0.792231 
        1.99499         1.42712        0.776907 
        2.01064         1.40771        0.761965 
         2.0264         1.38181        0.747321 
        2.04216         1.36484        0.733067 
        2.05781         1.34184        0.719274 
        2.07353         1.32848        0.705784 
        2.08928         1.30571        0.692611 
        2.10499         1.28022        0.679807 
        2.12065         1.27083        0.667364 
        2.13633         1.24977        0.655221 
        2.15211         1.22603          0.6433 
        2.16785         1.21314        0.631708 
        2.18349         1.19219        0.620474 
        2.19916         1.18322        0.609487 
        2.21489         1.16939         0.59873 
        2.23063         1.14384        0.588224 
         2.2463         1.12512        0.578016 
        2.26194         1.11663        0.568075 
        2.27765         1.09165        0.558315 
        2.29341         1.08245        0.548759 
        2.30914          1.0661        0.539445 
        2.32486         1.05963        0.530352 
        2.34061         1.04247        0.521452 
        2.35635         1.02794        0.512764 
        2.37203         1.01675        0.504302 
        2.38768         1.00204        0.496049 
        2.40339        0.989437        0.487949 
        2.41914        0.978999        0.480011 
        2.43483        0.966585        0.472277 
         2.4505        0.952489        0.464725 
        2.46622        0.940035        0.457312 
        2.48195        0.930291        0.450059 
        2.49759        0.915852        0.443002 
        2.51328        0.906581        0.436077 
        2.52906        0.897786        0.429256 
        2.54479        0.883694        0.422605 
        2.56049        0.876206        0.416107 
        2.57618        0.864273        0.409752 
        2.59189        0.855846        0.403518 
        2.60758        0.844105        0.397424 
        2.62325        0.834422        0.391462 
        2.63898        0.824599        0.385602 
        2.65468        0.810658        0.379873 
        2.67044        0.808799        0.374235 
        2.68618        0.799093        0.368725 
        2.70184        0.790543        0.363347 
        2.71755        0.782907        0.358062 
        2.73329        0.769372        0.352874 
        2.74897        0.762867        0.347805 
        2.76462        0.753994        0.342846 
        2.78034        0.749358        0.337963 
        2.79607        0.738545         0.33317 
        2.81179        0.730195        0.328474 
        2.82749         0.72182        0.323874 
        2.84321        0.714403        0.319357 
        2.85893        0.707069        0.314926 
        2.87462        0.700393        0.310587 
        2.89033        0.693725        0.306326 
        2.90605        0.686888         0.30214 
        2.92176        0.680898        0.298034 
        2.93747        0.673357        0.294006 
        2.95318        0.664367        0.290052 
        2.96891        0.662699        0.286168 
        2.98456        0.651526        0.282372 
        3.00023        0.645728        0.278639 
        3.01596        0.638799        0.274961 
        3.03164        0.634245         0.27136 
        3.04738        0.628116        0.267813 
         3.0631        0.620923         0.26433 
        3.07883        0.615379        0.260909 
        3.09456        0.608763        0.257548 
        3.11026        0.605619        0.254251 
        3.12596        0.598615        0.251013 
        3.14163         0.59554        0.247837 
        3.15734        0.587279        0.244709 
        3.17308        0.583802        0.241628 
        3.18879        0.579119        0.238607 
        3.20447        0.573122        0.235643 
         3.2202        0.566107        0.232719 
         3.2359        0.561819         0.22985 
        3.25157         0.55598        0.227035 
        3.26729        0.552668        0.224259 
        3.28304        0.548624        0.221524 
        3.29877        0.543175        0.218838 
        3.31446        0.539412        0.216202 
        3.33014        0.531635        0.213612 
        3.34585        0.529173        0.211059 
        3.36158        0.525066        0.208545 
        3.37727        0.522623        0.206079 
        3.39294         0.51532        0.203655 
        3.40867        0.513129        0.201261 
        3.42439        0.509664        0.198907 
        3.44008        0.504418        0.196595 
        3.45578        0.500188        0.194317 
        3.47153        0.497026        0.192071 
        3.48724        0.492313        0.189864 
        3.50292        0.487631        0.187696 
        3.51859        0.487492        0.185563 
        3.53431        0.479946        0.183457 
        3.55007        0.477721        0.181378 
        3.56577        0.474291        0.179339 
        3.58146        0.471825        0.177332 
        3.59719        0.467937        0.175351 
        3.61292        0.463594        0.173401 
        3.62859        0.460371        0.171488 
        3.64429        0.456472          0.1696 
        3.66003        0.452907        0.167734 
        3.67578        0.450392        0.165897 
        3.69146        0.448064        0.164094 
        3.70712        0.444561        0.162321 
        3.72284        0.441073        0.160568 
        3.73853        0.437189        0.158843 
        3.75422        0.434933        0.157143 
        3.76993        0.431378        0.155467 
        3.78564        0.428432        0.153815 
        3.80137        0.425394        0.152184 
        3.81707        0.421798        0.150581 
        3.83279        0.419102        0.148999 
        3.84853        0.416159        0.147437 
        3.86424        0.412936        0.145901 
        3.87992        0.411693        0.144388 
        3.89561        0.408643        0.142897 
        3.91134         0.40369        0.141424 
        3.92704        0.402608        0.139973 
        3.94273        0.399522        0.138544 
        3.95845        0.396802        0.137132 
        3.97418        0.394238        0.135739 
        3.98988        0.392069        0.134367 
        4.00554        0.388087        0.133018 
        4.02125        0.385843        0.131684 
        4.03698         0.38192        0.130366 
        4.05268        0.379175        0.129068 
        4.06839        0.375462        0.127788 
         4.0841        0.371627        0.126525 
        4.09983        0.369568        0.125277 
        4.11555        0.366146        0.124046 
        4.13124        0.362999        0.122835 
        4.14693        0.361593         0.12164 
        4.16266        0.356144        0.120457 
        4.17839        0.353121        0.119291 
        4.19408         0.35189        0.118143 
        4.20977        0.349009        0.117009 
        4.22551        0.346282        0.115887 
        4.24123        0.343707        0.114781 
        4.25691        0.341569        0.113693 
        4.27259        0.338664        0.112618 
        4.28831        0.336574        0.111555 
        4.30404        0.335059        0.110504 
        4.31974        0.332209        0.109469 
        4.33543        0.329642        0.108448 
        4.35116         0.32795        0.107438 
        4.36688        0.325022        0.106441 
        4.38255         0.32406         0.10546 
        4.39825        0.321829        0.104489 
        4.41398        0.319284        0.103528 
         4.4297        0.319403        0.102581 
        4.44541        0.316357        0.101645 
        4.46111        0.314757        0.100722 
        4.47683         0.31297       0.0998091 
        4.49251        0.311883       0.0989097 
        4.50819        0.310432       0.0980215 
         4.5239        0.308897       0.0971429 
        4.53962        0.306414       0.0962739 
        4.55535        0.306492       0.0954151 
        4.57106        0.304926       0.0945679 
        4.58678         0.30399       0.0937308 
         4.6025        0.302507       0.0929035 
        4.61821        0.301442       0.0920864 
        4.63391        0.301813         0.09128 
         4.6496        0.298856       0.0904836 
        4.66532        0.298226       0.0896954 
        4.68103        0.297202       0.0889169 
        4.69673        0.296329       0.0881483 
        4.71241        0.296116       0.0873896 
        4.72811        0.295051       0.0866384 
        4.74384        0.294554       0.0858951 
        4.75955         0.29391       0.0851616 
        4.77525        0.292877        0.084437 
        4.79096        0.293063       0.0837199 
        4.80669        0.291423       0.0830108 
         4.8224        0.290484       0.0823106 
        4.83809        0.290584       0.0816192 
        4.85379        0.290706       0.0809353 
         4.8695        0.290478       0.0802586 
        4.88521          0.2903         0.07959 
        4.90093        0.289536       0.0789287 
        4.91663        0.289724       0.0782756 
        4.93234        0.288741       0.0776291 
        4.94807        0.289093       0.0769894 
        4.96377        0.289971       0.0763581 
        4.97943        0.288833       0.0757352 
        4.99514         0.28893       0.0751176 
        5.01086        0.289316       0.0745064 
        5.02654        0.290137       0.0739035 
        5.04227        0.289199       0.0733054 
          5.058        0.290168       0.0727137 
        5.07371        0.290228       0.0721296 
        5.08942         0.29133       0.0715518 
        5.10513        0.291082       0.0709802 
        5.12084        0.290937       0.0704146 
        5.13656        0.291963       0.0698552 
        5.15225        0.292722       0.0693028 
        5.16796        0.293051       0.0687555 
        5.18369        0.293096       0.0682135 
         5.1994        0.293853       0.0676784 
        5.21509        0.294959       0.0671494 
        5.23079        0.294702       0.0666254 
        5.24649        0.296634       0.0661074 
        5.26217        0.296293       0.0655953 
        5.27788        0.298024       0.0650878 
        5.29359        0.299113       0.0645855 
        5.30933        0.299518       0.0640878 
        5.32504        0.300405       0.0635962 
        5.34073         0.30184       0.0631102 
        5.35646        0.302212       0.0626283 
        5.37218        0.304023       0.0621514 
        5.38789        0.304145       0.0616801 
        5.40357        0.305057       0.0612142 
        5.41929        0.307141       0.0607521 
        5.43502        0.308901       0.0602947 
         5.4507        0.309558        0.059843 
        5.46639        0.310892       0.0593959 
        5.48212        0.311521       0.0589523 
        5.49786        0.313685       0.0585126 
        5.51353        0.315345       0.0580796 
        5.52921        0.315441       0.0576506 
        5.54495        0.317529       0.0572245 
        5.56066        0.319501       0.0568033 
        5.57637        0.320355       0.0563863 
        5.59207        0.322867       0.0559738 
        5.60778        0.324263       0.0555653 
        5.62346         0.32476       0.0551614 
        5.63916         0.32724       0.0547611 
        5.65487        0.328312       0.0543646 
         5.6706        0.329348       0.0539715 
        5.68633        0.333456       0.0535821 
        5.70203        0.333782       0.0531973 
        5.71773        0.335407       0.0528164 
        5.73344        0.337629        0.052439 
        5.74916        0.338986       0.0520649 
        5.76486        0.340498       0.0516949 
        5.78054         0.34345       0.0513291 
        5.79626        0.343603       0.0509658 
          5.812        0.346963       0.0506056 
         5.8277        0.348295       0.0502499 
        5.84339        0.350644       0.0498976 
        5.85911        0.352644        0.049548 
        5.87484        0.354645       0.0492018 
        5.89053        0.357678       0.0488596 
        5.90623        0.359221       0.0485205 
        5.92195        0.360151        0.048184 
        5.93767         0.36268       0.0478508 
        5.95336         0.36461       0.0475213 
        5.96905        0.366169        0.047195 
        5.98476        0.367117       0.0468713 
        6.00048        0.369565       0.0465506 
        6.01617        0.371159       0.0462332 
        6.03185        0.373727       0.0459192 
        6.04756        0.375662       0.0456073 
        6.06331        0.377747       0.0452976 
        6.07903        0.379533       0.0449915 
        6.09473         0.38264       0.0446884 
        6.11044        0.382847       0.0443879 
        6.12616        0.385559       0.0440901 
        6.14186        0.387384       0.0437954 
        6.15755        0.390405       0.0435033 
        6.17326        0.392094       0.0432137 
        6.18898        0.393259       0.0429266 
        6.20467         0.39721       0.0426426 
        6.22036        0.396503       0.0423611 
         6.2361        0.399113       0.0420814 
         6.2518        0.401844       0.0418047 
        6.26748        0.403235       0.0415311 
        6.28319        0.406883       0.0412591 
        6.29893         0.40769       0.0409894 
        6.31463        0.412066       0.0407225 
        6.33033        0.410747        0.040458 
        6.34604        0.413932       0.0401957 
        6.36177        0.414474       0.0399354 
        6.37747        0.417711        0.039678 
