# k  (h/Mpc)    Pcb(k)  (Mpc/h)^3    Pcb_linear(k) (Mpc/h)^3   ShotnoiseSubtracted = true
      0.0200456         29988.6         30516.7 
      0.0350414         21143.5         20288.5 
      0.0492313         14167.9         14507.2 
      0.0637834         11308.5         11948.4 
      0.0800726         8392.61         8862.97 
       0.096163         6699.36         6247.69 
       0.111083         5564.71         5184.33 
       0.126058         4568.87         4551.66 
       0.142273         3885.94         3590.22 
       0.158546         3161.31          2823.5 
        0.17375         2889.63         2495.13 
       0.188953         2754.91         2225.23 
       0.204907         2335.26          1859.1 
       0.220756         2121.56         1572.95 
        0.23588         1899.43         1418.77 
         0.2514         1724.85         1277.89 
       0.267535         1648.52         1111.37 
       0.283568         1480.13         977.976 
       0.299022         1400.77         890.026 
       0.314451         1466.31         810.423 
       0.330372         1311.63         726.314 
       0.346141         1204.59          656.11 
       0.361624         1153.73         602.367 
       0.377134         1114.01         553.793 
       0.392932         1044.65         506.092 
       0.408854         1012.99         464.051 
       0.424564          991.31         429.181 
       0.440253         927.056         397.689 
       0.455999          883.58         368.177 
       0.471626         895.047         341.887 
        0.48727         843.411         318.729 
       0.502856         826.757         297.752 
       0.518488         790.404         278.278 
       0.534347         770.399         260.297 
       0.550082         736.894         244.182 
       0.565732         719.236         229.513 
       0.581496         703.611         215.856 
       0.597222         692.897         203.324 
       0.612804         673.181         191.937 
       0.628434         647.703         181.385 
       0.644267         630.614         171.493 
       0.660051         623.517         162.362 
       0.675724         611.371         153.951 
       0.691403         588.096         146.132 
       0.707174         574.554         138.813 
       0.722871         576.364         132.025 
        0.73838         553.404         125.763 
       0.754018         545.708         119.859 
       0.769845         536.509         114.269 
        0.78569         525.071          109.03 
       0.801365         509.962         104.169 
       0.817031         501.946         99.6067 
       0.832809         495.207          95.288 
       0.848511         485.337         91.2439 
       0.864097         475.828         87.4616 
       0.879701         478.605         83.8895 
       0.895507         461.304         80.4744 
       0.911279         456.896         77.2561 
        0.92691          448.44         74.2401 
       0.942635         440.929         71.3682 
       0.958396         430.732         68.6419 
       0.974128         422.456         66.0628 
       0.989692         415.729         63.6414 
        1.00528         406.311         61.3378 
        1.02113         401.212          59.112 
        1.03692         395.597         57.0048 
        1.05264         390.379           55.01 
        1.06832         381.952         53.1135 
        1.08405         380.046         51.3014 
        1.09979         371.077         49.5726 
        1.11537         362.522         47.9405 
        1.13105         358.217         46.3721 
        1.14679         352.876         44.8677 
        1.16256         349.299          43.427 
        1.17828         344.911         42.0542 
        1.19395         337.608         40.7453 
         1.2097         331.621         39.4853 
        1.22537          327.78         38.2846 
          1.241          321.46         37.1373 
        1.25666         317.604         36.0341 
        1.27241         316.002         34.9705 
        1.28819         307.907         33.9479 
        1.30392         305.471         32.9691 
        1.31957           299.4         32.0332 
        1.33529         294.497           31.13 
        1.35108         293.982         30.2581 
        1.36674         288.532         29.4257 
         1.3824         281.971         28.6253 
        1.39811         277.754         27.8519 
        1.41389         274.547         27.1041 
        1.42964         270.002          26.385 
        1.44531         266.877         25.6954 
        1.46101         260.118         25.0289 
        1.47667         258.269         24.3879 
        1.49229         256.594         23.7711 
        1.50793         250.543         23.1749 
        1.52367         247.683         22.5952 
        1.53953         244.211         22.0314 
        1.55526         239.026         21.4913 
        1.57092         237.999         20.9715 
        1.58662         233.585         20.4676 
        1.60235         229.625         19.9792 
        1.61809         227.782         19.5065 
        1.63369         223.285         19.0532 
        1.64941          221.31          18.611 
        1.66519         217.503         18.1813 
        1.68085         213.944         17.7681 
        1.69652         211.984         17.3676 
        1.71228         208.875         16.9772 
        1.72806         206.205         16.5984 
        1.74368         202.821         16.2349 
        1.75933         201.094         15.8815 
        1.77505         198.028          15.537 
        1.79081         195.005          15.202 
         1.8065         194.208         14.8784 
        1.82218         189.022         14.5644 
        1.83797         187.845         14.2573 
        1.85367           185.2         13.9607 
        1.86928         182.305         13.6742 
        1.88497         181.325         13.3943 
        1.90073          178.38         13.1211 
        1.91647         176.132         12.8558 
        1.93218         173.264         12.5983 
        1.94787         170.079         12.3482 
        1.96363         169.394         12.1039 
        1.97935         166.462         11.8667 
        1.99499         165.045         11.6372 
        2.01064         161.868         11.4134 
         2.0264         160.459          11.194 
        2.04216         158.348         10.9805 
        2.05781         155.782         10.7739 
        2.07353         154.709         10.5718 
        2.08928         152.505         10.3745 
        2.10499         150.526         10.1827 
        2.12065          148.93         9.99636 
        2.13633         146.703         9.81447 
        2.15211         144.952         9.63591 
        2.16785         143.667         9.46227 
        2.18349         141.692         9.29399 
        2.19916          140.93         9.12943 
        2.21489         138.058         8.96829 
        2.23063         136.076         8.81092 
         2.2463         134.438         8.65802 
        2.26194         133.472         8.50911 
        2.27765         131.346         8.36293 
        2.29341         130.022         8.21978 
        2.30914         128.486         8.08027 
        2.32486         127.111         7.94406 
        2.34061         125.053         7.81076 
        2.35635         123.386         7.68062 
        2.37203         122.478         7.55388 
        2.38768          120.16         7.43025 
        2.40339         119.972         7.30893 
        2.41914         117.916         7.19002 
        2.43483         116.274         7.07417 
         2.4505         115.686         6.96105 
        2.46622         113.692         6.85001 
        2.48195         111.896         6.74138 
        2.49759         110.808         6.63567 
        2.51328         109.581         6.53194 
        2.52906         108.422         6.42976 
        2.54479         107.387         6.33014 
        2.56049         105.574         6.23282 
        2.57618         104.964         6.13761 
        2.59189         103.605         6.04425 
        2.60758         102.707         5.95296 
        2.62325         100.925         5.86366 
        2.63898          99.404         5.77588 
        2.65468         98.7113         5.69006 
        2.67044         97.7672         5.60562 
        2.68618         96.4537         5.52308 
        2.70184         96.0285         5.44252 
        2.71755         94.5235         5.36336 
        2.73329         93.2676         5.28564 
        2.74897         92.0135         5.20972 
        2.76462         91.6281         5.13544 
        2.78034         90.5333          5.0623 
        2.79607         89.5845          4.9905 
        2.81179         88.6713         4.92017 
        2.82749         87.3545         4.85127 
        2.84321         86.5554          4.7836 
        2.85893         85.5726         4.71724 
        2.87462         84.2512         4.65224 
        2.89033         83.7655         4.58841 
        2.90605         82.8244         4.52571 
        2.92176         82.0228         4.46421 
        2.93747         80.8195         4.40388 
        2.95318         80.2742         4.34464 
        2.96891         79.5426         4.28647 
        2.98456         78.5788         4.22961 
        3.00023         77.7194         4.17369 
        3.01596         77.0333          4.1186 
        3.03164         75.9705         4.06467 
        3.04738         75.1989         4.01153 
         3.0631         74.5773         3.95936 
        3.07883         73.9011         3.90811 
        3.09456         72.6995         3.85778 
        3.11026         72.2329          3.8084 
        3.12596         71.4181         3.75988 
        3.14163         70.7967         3.71232 
        3.15734         69.8648         3.66547 
        3.17308         69.2372         3.61931 
        3.18879         68.4395         3.57407 
        3.20447         67.8826         3.52966 
         3.2202         66.9962         3.48586 
         3.2359         66.6373         3.44289 
        3.25157         65.6973         3.40073 
        3.26729         65.0004         3.35915 
        3.28304         64.3565         3.31818 
        3.29877         63.6629         3.27795 
        3.31446         63.0063         3.23846 
        3.33014         62.3578         3.19966 
        3.34585         61.7198         3.16143 
        3.36158         61.1498         3.12377 
        3.37727         60.6077         3.08683 
        3.39294         60.0307         3.05052 
        3.40867          59.349         3.01466 
        3.42439         58.6693          2.9794 
        3.44008         58.0724         2.94477 
        3.45578         57.6945         2.91065 
        3.47153         57.1372           2.877 
        3.48724         56.4126         2.84394 
        3.50292         56.0506         2.81147 
        3.51859          55.575         2.77953 
        3.53431         54.8051         2.74797 
        3.55007          54.349         2.71683 
        3.56577         53.6081         2.68629 
        3.58146         53.0873         2.65623 
        3.59719         52.7547         2.62656 
        3.61292         52.3316         2.59735 
        3.62859          51.744         2.56869 
        3.64429         51.1364         2.54041 
        3.66003         50.7591         2.51246 
        3.67578         50.2807         2.48495 
        3.69146         49.7716         2.45794 
        3.70712         49.3608         2.43139 
        3.72284          48.642         2.40512 
        3.73853         48.4203         2.37929 
        3.75422         47.9291         2.35383 
        3.76993         47.6766         2.32871 
        3.78564         47.0804         2.30397 
        3.80137         46.7241         2.27955 
        3.81707         46.1339         2.25553 
        3.83279         45.6732         2.23184 
        3.84853         45.2898         2.20844 
        3.86424          44.976         2.18543 
        3.87992         44.4112         2.16277 
        3.89561          44.164         2.14044 
        3.91134         43.7597         2.11837 
        3.92704         43.2488         2.09664 
        3.94273         42.9431         2.07523 
        3.95845         42.5738         2.05408 
        3.97418          42.159         2.03322 
        3.98988         41.6217         2.01267 
        4.00554         41.4158         1.99247 
        4.02125         41.0363         1.97248 
        4.03698         40.6572         1.95273 
        4.05268         40.2549          1.9333 
        4.06839          39.911         1.91411 
         4.0841         39.5464          1.8952 
        4.09983         39.2287          1.8765 
        4.11555         38.8552         1.85807 
        4.13124         38.4614         1.83994 
        4.14693         38.1972         1.82203 
        4.16266         37.8879         1.80431 
        4.17839         37.4669         1.78684 
        4.19408         37.1978         1.76964 
        4.20977         36.8817         1.75266 
        4.22551         36.5485         1.73586 
        4.24123         36.1053         1.71929 
        4.25691         35.8627         1.70299 
        4.27259         35.5238         1.68689 
        4.28831         35.2012         1.67096 
        4.30404         34.8839         1.65523 
        4.31974         34.7161         1.63973 
        4.33543         34.3181         1.62443 
        4.35116         34.1362          1.6093 
        4.36688         33.7343         1.59436 
        4.38255         33.5221         1.57966 
        4.39825         33.2054         1.56512 
        4.41398         32.8829         1.55073 
         4.4297         32.6252         1.53654 
        4.44541         32.3417         1.52253 
        4.46111         32.1164          1.5087 
        4.47683         31.8117         1.49503 
        4.49251         31.5574         1.48155 
        4.50819         31.2927         1.46825 
         4.5239         31.0109         1.45509 
        4.53962         30.7634         1.44207 
        4.55535         30.4799         1.42921 
        4.57106         30.2439         1.41652 
        4.58678         29.9909         1.40398 
         4.6025           29.72         1.39159 
        4.61821         29.5407         1.37935 
        4.63391         29.3213         1.36727 
         4.6496         29.0096         1.35534 
        4.66532         28.8047         1.34354 
        4.68103         28.6079         1.33187 
        4.69673          28.341         1.32036 
        4.71241         28.1287           1.309 
        4.72811          27.864         1.29775 
        4.74384         27.6725         1.28661 
        4.75955         27.4293         1.27562 
        4.77525         27.2491         1.26477 
        4.79096         27.0349         1.25403 
        4.80669         26.7564         1.24341 
         4.8224         26.5682         1.23292 
        4.83809         26.3667         1.22256 
        4.85379          26.156         1.21232 
         4.8695         25.9523         1.20218 
        4.88521          25.743         1.19217 
        4.90093         25.5458         1.18226 
        4.91663         25.3622         1.17248 
        4.93234         25.1151          1.1628 
        4.94807         24.9216         1.15321 
        4.96377         24.7753         1.14376 
        4.97943         24.5655         1.13443 
        4.99514         24.4353         1.12518 
        5.01086         24.1892         1.11602 
        5.02654         23.9342         1.10699 
        5.04227         23.8421         1.09803 
          5.058         23.6307         1.08917 
        5.07371         23.4523         1.08042 
        5.08942          23.255         1.07176 
        5.10513         23.0185          1.0632 
        5.12084         22.8451         1.05473 
        5.13656         22.7646         1.04635 
        5.15225         22.5004         1.03808 
        5.16796         22.3407         1.02988 
        5.18369         22.2209         1.02176 
         5.1994          22.018         1.01374 
        5.21509         21.8412         1.00582 
        5.23079         21.6497        0.997973 
        5.24649         21.5683        0.990214 
        5.26217         21.3267        0.982542 
        5.27788         21.2571        0.974941 
        5.29359         21.0156        0.967418 
        5.30933         20.8993        0.959963 
        5.32504         20.7028        0.952599 
        5.34073         20.5641        0.945319 
        5.35646         20.4277        0.938101 
        5.37218         20.2459        0.930957 
        5.38789          20.102        0.923897 
        5.40357         19.9435        0.916919 
        5.41929         19.7862        0.909997 
        5.43502         19.6815        0.903145 
         5.4507          19.509         0.89638 
        5.46639         19.3771        0.889683 
        5.48212         19.2659        0.883038 
        5.49786         19.0313        0.876453 
        5.51353         18.9378        0.869967 
        5.52921         18.8024         0.86354 
        5.54495         18.6405        0.857159 
        5.56066         18.5429        0.850848 
        5.57637         18.3779        0.844602 
        5.59207         18.2808        0.838424 
        5.60778          18.124        0.832305 
        5.62346         17.9983        0.826255 
        5.63916         17.8738        0.820259 
        5.65487         17.7474        0.814319 
         5.6706         17.5707        0.808431 
        5.68633         17.4838        0.802599 
        5.70203         17.3905        0.796835 
        5.71773         17.2509         0.79113 
        5.73344         17.1092        0.785476 
        5.74916         17.0224        0.779873 
        5.76486         16.8859        0.774331 
        5.78054         16.7637        0.768851 
        5.79626         16.6421        0.763409 
          5.812         16.5095        0.758014 
         5.8277         16.4136        0.752686 
        5.84339         16.2893         0.74741 
        5.85911         16.1415        0.742173 
        5.87484         16.0144        0.736988 
        5.89053         15.9402        0.731862 
        5.90623          15.867        0.726782 
        5.92195         15.7239        0.721741 
        5.93767         15.6008         0.71675 
        5.95336          15.496        0.711815 
        5.96905          15.392        0.706928 
        5.98476         15.2771        0.702079 
        6.00048         15.1665        0.697275 
        6.01617         15.0701        0.692521 
        6.03185         14.9694        0.687817 
        6.04756         14.8391        0.683146 
        6.06331         14.7584        0.678507 
        6.07903          14.666        0.673921 
        6.09473         14.5472        0.669382 
        6.11044         14.4573         0.66488 
        6.12616         14.3536         0.66042 
        6.14186         14.2451        0.656005 
        6.15755         14.1671         0.65163 
        6.17326          14.059        0.647292 
        6.18898         13.9516        0.642991 
        6.20467         13.8671        0.638737 
        6.22036         13.7705        0.634521 
         6.2361         13.6793        0.630332 
         6.2518         13.5866        0.626187 
        6.26748         13.4913        0.622088 
        6.28319         13.3908        0.618015 
        6.29893         13.2803        0.613974 
        6.31463         13.2235        0.609976 
        6.33033         13.1375        0.606015 
        6.34604         13.0591        0.602086 
        6.36177         12.9616        0.598187 
        6.37747         12.8597        0.594331 
