# k  (h/Mpc)    Pcb(k)  (Mpc/h)^3    Pcb_linear(k) (Mpc/h)^3   ShotnoiseSubtracted = true
      0.0200456         1635.54         1654.49 
      0.0350414         1119.82         1099.96 
      0.0492313         788.801         786.524 
      0.0637834          638.94         647.795 
      0.0800726         475.314         480.515 
       0.096163         346.341         338.725 
       0.111083         287.331         281.074 
       0.126058         245.037         246.773 
       0.142273         194.622         194.647 
       0.158546         155.521         153.079 
        0.17375         138.073         135.276 
       0.188953         122.588         120.643 
       0.204907         100.342         100.793 
       0.220756         87.4195         85.2793 
        0.23588         78.4564           76.92 
         0.2514         70.5768         69.2822 
       0.267535         62.7358          60.254 
       0.283568         54.9487          53.022 
       0.299022         50.4451         48.2537 
       0.314451         47.0446         43.9379 
       0.330372          41.579         39.3779 
       0.346141         37.7168         35.5717 
       0.361624         34.5968         32.6579 
       0.377134         31.6327         30.0244 
       0.392932         30.0724         27.4383 
       0.408854         27.1464          25.159 
       0.424564         25.8215         23.2685 
       0.440253         23.5409         21.5611 
       0.455999         21.4064         19.9611 
       0.471626         20.0784         18.5358 
        0.48727         19.3215         17.2802 
       0.502856          18.077         16.1429 
       0.518488         16.6565         15.0872 
       0.534347         15.5615         14.1123 
       0.550082         14.8991         13.2386 
       0.565732         14.2305         12.4433 
       0.581496         13.3378         11.7029 
       0.597222         12.5425         11.0234 
       0.612804         11.8132          10.406 
       0.628434         11.4633         9.83398 
       0.644267         10.8379         9.29766 
       0.660051         10.2349         8.80265 
       0.675724         9.67906         8.34664 
       0.691403           9.362         7.92269 
       0.707174          8.8939         7.52588 
       0.722871         8.63024         7.15785 
        0.73838         8.08492         6.81835 
       0.754018         7.67324         6.49828 
       0.769845         7.35333         6.19522 
        0.78569          7.1501         5.91116 
       0.801365         6.81775         5.64762 
       0.817031         6.56415         5.40028 
       0.832809         6.25778         5.16614 
       0.848511         6.06371         4.94688 
       0.864097         5.83361         4.74182 
       0.879701         5.68261         4.54816 
       0.895507         5.44359           4.363 
       0.911279         5.21835         4.18852 
        0.92691          5.0655           4.025 
       0.942635         4.86431          3.8693 
       0.958396         4.70637         3.72149 
       0.974128         4.57422         3.58166 
       0.989692         4.34981         3.45039 
        1.00528          4.2745         3.32549 
        1.02113         4.12882         3.20482 
        1.03692         4.02147         3.09058 
        1.05264         3.86757         2.98242 
        1.06832         3.76412         2.87961 
        1.08405         3.65002         2.78136 
        1.09979         3.55037         2.68763 
        1.11537         3.44367         2.59915 
        1.13105         3.33691         2.51411 
        1.14679         3.24871         2.43255 
        1.16256         3.14505         2.35444 
        1.17828         3.09511         2.28001 
        1.19395          2.9792         2.20905 
         1.2097         2.88853         2.14074 
        1.22537         2.80111         2.07564 
          1.241         2.73636         2.01344 
        1.25666         2.70204         1.95363 
        1.27241         2.63483         1.89596 
        1.28819         2.52435         1.84052 
        1.30392         2.46591         1.78746 
        1.31957         2.42439         1.73671 
        1.33529         2.33677         1.68775 
        1.35108         2.29226         1.64047 
        1.36674         2.22848         1.59534 
         1.3824         2.20058         1.55195 
        1.39811          2.1395         1.51002 
        1.41389         2.07934         1.46948 
        1.42964         2.03705         1.43049 
        1.44531         1.99557          1.3931 
        1.46101         1.95691         1.35697 
        1.47667         1.91216         1.32222 
        1.49229         1.84834         1.28878 
        1.50793         1.80154         1.25645 
        1.52367         1.77006         1.22502 
        1.53953         1.72453         1.19446 
        1.55526         1.72359         1.16517 
        1.57092         1.67345         1.13699 
        1.58662         1.65322         1.10967 
        1.60235         1.59964         1.08319 
        1.61809         1.57015         1.05756 
        1.63369         1.53445         1.03299 
        1.64941         1.50838         1.00902 
        1.66519         1.48578        0.985717 
        1.68085         1.44826        0.963317 
        1.69652         1.42183        0.941603 
        1.71228         1.39235        0.920434 
        1.72806         1.37065        0.899897 
        1.74368         1.34237         0.88019 
        1.75933         1.32193        0.861033 
        1.77505         1.29689        0.842354 
        1.79081         1.26507        0.824194 
         1.8065         1.24979        0.806646 
        1.82218         1.21767        0.789622 
        1.83797         1.19773        0.772972 
        1.85367         1.17897        0.756892 
        1.86928         1.15821        0.741364 
        1.88497          1.1347        0.726185 
        1.90073         1.12336        0.711375 
        1.91647         1.09602        0.696989 
        1.93218         1.07935        0.683029 
        1.94787         1.06381        0.669472 
        1.96363         1.04637        0.656227 
        1.97935         1.02711        0.643367 
        1.99499          1.0097        0.630922 
        2.01064        0.993859        0.618788 
         2.0264         0.97425        0.606895 
        2.04216        0.963241         0.59532 
        2.05781        0.943972        0.584118 
        2.07353        0.934057        0.573164 
        2.08928        0.917391        0.562465 
        2.10499        0.900581        0.552068 
        2.12065        0.887696        0.541963 
        2.13633        0.875572        0.532101 
        2.15211        0.856634        0.522421 
        2.16785        0.847741        0.513007 
        2.18349        0.832155        0.503883 
        2.19916         0.82375        0.494962 
        2.21489        0.812868        0.486225 
        2.23063        0.794255        0.477693 
         2.2463        0.782574        0.469404 
        2.26194        0.775102         0.46133 
        2.27765        0.759984        0.453405 
        2.29341        0.751321        0.445644 
        2.30914        0.737195         0.43808 
        2.32486        0.731379        0.430696 
        2.34061        0.719126        0.423468 
        2.35635        0.708219        0.416413 
        2.37203        0.698919        0.409541 
        2.38768        0.689388        0.402839 
        2.40339        0.681248        0.396261 
        2.41914        0.672894        0.389814 
        2.43483        0.663748        0.383533 
         2.4505         0.65267        0.377401 
        2.46622        0.644559        0.371381 
        2.48195        0.636801        0.365491 
        2.49759        0.626241         0.35976 
        2.51328        0.617123        0.354136 
        2.52906        0.612126        0.348596 
        2.54479        0.601632        0.343195 
        2.56049        0.595779        0.337919 
        2.57618         0.58803        0.332757 
        2.59189        0.580645        0.327695 
        2.60758        0.572635        0.322746 
        2.62325        0.565988        0.317905 
        2.63898        0.559876        0.313145 
        2.65468        0.548697        0.308493 
        2.67044        0.546183        0.303915 
        2.68618        0.540009        0.299439 
        2.70184        0.532603        0.295072 
        2.71755        0.526488         0.29078 
        2.73329        0.518608        0.286567 
        2.74897        0.512672         0.28245 
        2.76462        0.506061        0.278423 
        2.78034        0.501292        0.274458 
        2.79607        0.495185        0.270565 
        2.81179        0.489011        0.266752 
        2.82749        0.482907        0.263017 
        2.84321        0.476324        0.259348 
        2.85893        0.471309         0.25575 
        2.87462        0.466354        0.252226 
        2.89033        0.462626        0.248765 
        2.90605        0.457827        0.245366 
        2.92176        0.452313        0.242032 
        2.93747        0.447304        0.238761 
        2.95318        0.441394        0.235549 
        2.96891          0.4401        0.232395 
        2.98456        0.430815        0.229312 
        3.00023         0.42795        0.226281 
        3.01596        0.423407        0.223294 
        3.03164        0.419234         0.22037 
        3.04738        0.414633        0.217489 
         3.0631        0.408925        0.214661 
        3.07883          0.4057        0.211882 
        3.09456        0.401517        0.209153 
        3.11026        0.397885        0.206476 
        3.12596        0.393621        0.203846 
        3.14163        0.391713        0.201267 
        3.15734        0.386261        0.198727 
        3.17308        0.382182        0.196225 
        3.18879        0.379496        0.193772 
        3.20447        0.375589        0.191364 
         3.2202        0.369554         0.18899 
         3.2359        0.366903         0.18666 
        3.25157        0.362343        0.184374 
        3.26729        0.360393         0.18212 
        3.28304        0.357621        0.179899 
        3.29877        0.354068        0.177717 
        3.31446        0.351816        0.175577 
        3.33014         0.34631        0.173473 
        3.34585        0.344206          0.1714 
        3.36158        0.340811        0.169358 
        3.37727        0.338756        0.167356 
        3.39294        0.335362        0.165387 
        3.40867        0.331823        0.163443 
        3.42439        0.329715        0.161531 
        3.44008        0.326204        0.159654 
        3.45578        0.323686        0.157804 
        3.47153        0.321549         0.15598 
        3.48724        0.317868        0.154187 
        3.50292        0.315339        0.152427 
        3.51859        0.313906        0.150695 
        3.53431        0.309888        0.148984 
        3.55007        0.307708        0.147296 
        3.56577        0.305026         0.14564 
        3.58146        0.303052         0.14401 
        3.59719        0.300557        0.142402 
        3.61292        0.297779        0.140818 
        3.62859        0.295615        0.139264 
        3.64429        0.292953        0.137731 
        3.66003        0.290512        0.136216 
        3.67578        0.288986        0.134724 
        3.69146        0.286442         0.13326 
        3.70712        0.284838         0.13182 
        3.72284        0.282522        0.130396 
        3.73853        0.279993        0.128996 
        3.75422        0.277599        0.127615 
        3.76993        0.275797        0.126254 
        3.78564        0.273059        0.124912 
        3.80137        0.271303        0.123588 
        3.81707        0.269407        0.122286 
        3.83279         0.26736        0.121001 
        3.84853        0.264736        0.119733 
        3.86424        0.263623        0.118485 
        3.87992        0.262114        0.117257 
        3.89561        0.259942        0.116046 
        3.91134        0.257244         0.11485 
        3.92704        0.255742        0.113671 
        3.94273        0.254241        0.112511 
        3.95845        0.252124        0.111364 
        3.97418        0.250832        0.110233 
        3.98988        0.248738        0.109119 
        4.00554        0.245684        0.108024 
        4.02125        0.244375         0.10694 
        4.03698        0.241588        0.105869 
        4.05268        0.238931        0.104816 
        4.06839        0.237247        0.103776 
         4.0841        0.234089         0.10275 
        4.09983        0.232988        0.101737 
        4.11555        0.229892        0.100737 
        4.13124        0.228594        0.099754 
        4.14693        0.226892        0.098783 
        4.16266        0.223215       0.0978226 
        4.17839        0.221411       0.0968754 
        4.19408        0.220166       0.0959429 
        4.20977        0.218025       0.0950222 
        4.22551        0.216298       0.0941113 
        4.24123        0.214771       0.0932132 
        4.25691        0.212828       0.0923292 
        4.27259        0.210777       0.0914564 
        4.28831        0.209584        0.090593 
        4.30404        0.208007       0.0897399 
        4.31974        0.206611       0.0888995 
        4.33543        0.204777       0.0880704 
        4.35116        0.204102       0.0872497 
        4.36688        0.202461       0.0864398 
        4.38255        0.200865       0.0856432 
        4.39825        0.199698       0.0848548 
        4.41398         0.19839       0.0840746 
         4.4297        0.197397       0.0833051 
        4.44541         0.19625       0.0825453 
        4.46111        0.195271       0.0817955 
        4.47683        0.194105       0.0810545 
        4.49251         0.19309        0.080324 
        4.50819        0.192768       0.0796027 
         4.5239        0.191595       0.0788892 
        4.53962        0.190368       0.0781835 
        4.55535        0.189758       0.0774861 
        4.57106        0.189202       0.0767981 
        4.58678        0.187905       0.0761183 
         4.6025        0.187744       0.0754465 
        4.61821        0.187013       0.0747828 
        4.63391        0.187285        0.074128 
         4.6496        0.185621       0.0734812 
        4.66532        0.185357       0.0728412 
        4.68103        0.184588        0.072209 
        4.69673         0.18443       0.0715848 
        4.71241        0.184015       0.0709686 
        4.72811        0.184171       0.0703586 
        4.74384        0.183238        0.069755 
        4.75955        0.183287       0.0691593 
        4.77525        0.183034       0.0685709 
        4.79096        0.182744       0.0679885 
        4.80669        0.182452       0.0674126 
         4.8224        0.182327        0.066844 
        4.83809         0.18208       0.0662825 
        4.85379        0.182729       0.0657271 
         4.8695        0.183131       0.0651776 
        4.88521        0.182711       0.0646346 
        4.90093        0.182712       0.0640976 
        4.91663        0.182764       0.0635672 
        4.93234        0.182623       0.0630422 
        4.94807        0.183119       0.0625227 
        4.96377        0.183789         0.06201 
        4.97943        0.183662       0.0615042 
        4.99514        0.183977       0.0610026 
        5.01086        0.184936       0.0605062 
        5.02654        0.185546       0.0600166 
        5.04227        0.185329       0.0595309 
          5.058        0.186176       0.0590504 
        5.07371        0.186692        0.058576 
        5.08942        0.187643       0.0581068 
        5.10513        0.188211       0.0576427 
        5.12084        0.188358       0.0571833 
        5.13656        0.189677        0.056729 
        5.15225        0.190257       0.0562804 
        5.16796        0.191247        0.055836 
        5.18369         0.19176       0.0553958 
         5.1994        0.193048       0.0549612 
        5.21509        0.193529       0.0545317 
        5.23079        0.194293       0.0541061 
        5.24649        0.196066       0.0536855 
        5.26217        0.196384       0.0532696 
        5.27788        0.197985       0.0528574 
        5.29359        0.199023       0.0524496 
        5.30933        0.200202       0.0520454 
        5.32504        0.201567       0.0516461 
        5.34073        0.203512       0.0512515 
        5.35646        0.204535       0.0508601 
        5.37218        0.205324       0.0504728 
        5.38789         0.20611       0.0500901 
        5.40357        0.208373       0.0497117 
        5.41929        0.209938       0.0493364 
        5.43502        0.211486        0.048965 
         5.4507         0.21324       0.0485982 
        5.46639        0.214448       0.0482351 
        5.48212        0.215401       0.0478748 
        5.49786        0.217818       0.0475178 
        5.51353        0.219849       0.0471662 
        5.52921         0.22059       0.0468177 
        5.54495        0.223328       0.0464718 
        5.56066        0.224904       0.0461296 
        5.57637        0.226595        0.045791 
        5.59207        0.228884        0.045456 
        5.60778        0.230796       0.0451243 
        5.62346        0.232689       0.0447963 
        5.63916        0.234381       0.0444712 
        5.65487        0.236176       0.0441492 
         5.6706        0.238381       0.0438299 
        5.68633        0.241447       0.0435137 
        5.70203        0.243697       0.0432013 
        5.71773        0.244582       0.0428919 
        5.73344        0.247514       0.0425854 
        5.74916        0.250674       0.0422816 
        5.76486        0.252241       0.0419812 
        5.78054        0.254753       0.0416841 
        5.79626        0.256298        0.041389 
          5.812        0.259792       0.0410965 
         5.8277        0.261831       0.0408077 
        5.84339        0.263869       0.0405216 
        5.85911        0.267152       0.0402377 
        5.87484         0.26951       0.0399566 
        5.89053        0.272766       0.0396786 
        5.90623        0.274558       0.0394032 
        5.92195        0.276784       0.0391299 
        5.93767        0.279331       0.0388594 
        5.95336        0.281733       0.0385918 
        5.96905        0.284479       0.0383268 
        5.98476        0.286634        0.038064 
        6.00048        0.289146       0.0378035 
        6.01617         0.29361       0.0375457 
        6.03185        0.294591       0.0372907 
        6.04756        0.296953       0.0370374 
        6.06331        0.299811        0.036786 
        6.07903          0.3033       0.0365373 
        6.09473         0.30621       0.0362912 
        6.11044        0.308471       0.0360472 
        6.12616        0.311054       0.0358054 
        6.14186        0.313362        0.035566 
        6.15755        0.318736       0.0353288 
        6.17326        0.319738       0.0350936 
        6.18898        0.321797       0.0348604 
        6.20467        0.325203       0.0346298 
        6.22036        0.326639       0.0344012 
         6.2361        0.330104       0.0341741 
         6.2518         0.33433       0.0339494 
        6.26748        0.335591       0.0337272 
        6.28319        0.339892       0.0335063 
        6.29893        0.341809       0.0332872 
        6.31463        0.344915       0.0330705 
        6.33033        0.347882       0.0328557 
        6.34604        0.350278       0.0326427 
        6.36177        0.352431       0.0324314 
        6.37747        0.355287       0.0322223 
