# k  (h/Mpc)    Pcb(k)  (Mpc/h)^3    Pcb_linear(k) (Mpc/h)^3   ShotnoiseSubtracted = true
      0.0200456         21007.3         21333.1 
      0.0350414         14725.5           14183 
      0.0492313         9987.09         10141.5 
      0.0637834         7977.81          8352.7 
      0.0800726         5922.58         6195.78 
       0.096163         4640.95         4367.54 
       0.111083         3867.46         3624.18 
       0.126058         3179.81          3181.9 
       0.142273         2659.99         2509.79 
       0.158546         2170.08         1973.81 
        0.17375         1958.74         1744.25 
       0.188953         1835.38         1555.58 
       0.204907         1542.58         1299.63 
       0.220756         1388.49          1099.6 
        0.23588         1245.08          991.81 
         0.2514         1116.15         893.328 
       0.267535         1072.31         776.918 
       0.283568         945.873         683.668 
       0.299022         900.545         622.186 
       0.314451         932.828         566.538 
       0.330372          807.77          507.74 
       0.346141         741.758         458.663 
       0.361624         710.203         421.093 
       0.377134         676.692         387.137 
       0.392932          644.35         353.791 
       0.408854         616.913         324.402 
       0.424564         600.552         300.025 
       0.440253         550.204          278.01 
       0.455999         525.282         257.379 
       0.471626         534.337         239.001 
        0.48727         501.676         222.812 
       0.502856         475.599         208.148 
       0.518488         464.977         194.534 
       0.534347         442.247         181.964 
       0.550082         421.551         170.699 
       0.565732         416.475         160.444 
       0.581496         404.898         150.898 
       0.597222           394.2         142.137 
       0.612804         383.896         134.176 
       0.628434         368.469           126.8 
       0.644267          355.64         119.884 
       0.660051         351.371         113.502 
       0.675724         342.413         107.622 
       0.691403          335.42         102.155 
       0.707174         322.565          97.039 
       0.722871          317.79         92.2936 
        0.73838         312.057         87.9161 
       0.754018         301.421         83.7891 
       0.769845         299.992         79.8815 
        0.78569           291.7         76.2187 
       0.801365         282.003         72.8207 
       0.817031         280.706         69.6315 
       0.832809         274.593         66.6124 
       0.848511         268.977         63.7853 
       0.864097         260.897         61.1413 
       0.879701         260.072         58.6442 
       0.895507         251.769         56.2568 
       0.911279         246.682          54.007 
        0.92691         243.982         51.8986 
       0.942635         241.117         49.8909 
       0.958396         234.147         47.9851 
       0.974128         231.742         46.1821 
       0.989692         223.119         44.4895 
        1.00528         222.539         42.8791 
        1.02113         219.837         41.3231 
        1.03692         214.866           39.85 
        1.05264         210.691         38.4555 
        1.06832         208.885         37.1298 
        1.08405         204.611          35.863 
        1.09979         201.763         34.6544 
        1.11537         198.281         33.5135 
        1.13105         194.603         32.4171 
        1.14679          192.93         31.3654 
        1.16256         189.784         30.3583 
        1.17828         187.375         29.3986 
        1.19395         182.334         28.4836 
         1.2097         181.878         27.6028 
        1.22537         180.023         26.7634 
          1.241           174.2         25.9614 
        1.25666         173.681         25.1902 
        1.27241         170.488         24.4466 
        1.28819         168.181         23.7318 
        1.30392         166.377         23.0475 
        1.31957         162.171         22.3932 
        1.33529         159.489         21.7619 
        1.35108         158.817         21.1523 
        1.36674         154.664         20.5704 
         1.3824         153.744         20.0109 
        1.39811         152.305         19.4703 
        1.41389         148.483         18.9475 
        1.42964         146.333         18.4448 
        1.44531         145.536         17.9627 
        1.46101         142.752         17.4968 
        1.47667         141.633         17.0487 
        1.49229          139.63         16.6175 
        1.50793         136.916         16.2007 
        1.52367         135.314         15.7955 
        1.53953         132.686         15.4014 
        1.55526         131.872         15.0238 
        1.57092         130.897         14.6604 
        1.58662          127.65         14.3081 
        1.60235         126.546         13.9667 
        1.61809         124.411         13.6363 
        1.63369         122.325         13.3194 
        1.64941         121.538         13.0103 
        1.66519         119.682         12.7099 
        1.68085         117.585         12.4211 
        1.69652         116.552         12.1411 
        1.71228         114.518         11.8681 
        1.72806         113.975         11.6033 
        1.74368         112.394         11.3492 
        1.75933         111.129         11.1022 
        1.77505         109.602         10.8613 
        1.79081         107.713         10.6272 
         1.8065         105.865         10.4009 
        1.82218         104.626         10.1814 
        1.83797         103.873         9.96673 
        1.85367         102.825          9.7594 
        1.86928         101.725         9.55918 
        1.88497         99.9538         9.36347 
        1.90073         99.2246          9.1725 
        1.91647         97.3641           8.987 
        1.93218         96.4831         8.80701 
        1.94787         94.6482          8.6322 
        1.96363         94.1941         8.46142 
        1.97935         93.0885          8.2956 
        1.99499         92.1252         8.13514 
        2.01064          90.367         7.97868 
         2.0264         89.2903         7.82534 
        2.04216         88.1462         7.67608 
        2.05781         87.0851         7.53165 
        2.07353         86.2874          7.3904 
        2.08928         85.0568         7.25246 
        2.10499          84.344         7.11839 
        2.12065         83.0428          6.9881 
        2.13633         82.1296         6.86094 
        2.15211         80.9437         6.73612 
        2.16785         79.9488         6.61474 
        2.18349          78.679          6.4971 
        2.19916          78.076         6.38206 
        2.21489         77.2549         6.26941 
        2.23063          75.812          6.1594 
         2.2463         75.1362         6.05251 
        2.26194         74.6102         5.94841 
        2.27765         73.1912         5.84622 
        2.29341         72.5181         5.74616 
        2.30914         71.5493         5.64863 
        2.32486         70.6597         5.55341 
        2.34061         69.7788         5.46022 
        2.35635         69.1731         5.36924 
        2.37203         68.1151         5.28064 
        2.38768         67.4121         5.19422 
        2.40339          66.702         5.10941 
        2.41914         65.7098         5.02629 
        2.43483         65.1996          4.9453 
         2.4505         64.1855         4.86622 
        2.46622           63.55          4.7886 
        2.48195         63.0275         4.71266 
        2.49759         61.9895         4.63876 
        2.51328         61.1768         4.56624 
        2.52906         60.4632         4.49482 
        2.54479          59.953         4.42518 
        2.56049         59.1037         4.35714 
        2.57618         58.4425         4.29059 
        2.59189          57.788         4.22532 
        2.60758          56.947          4.1615 
        2.62325         56.4776         4.09908 
        2.63898         56.0174         4.03771 
        2.65468         55.3114         3.97772 
        2.67044         54.7593         3.91869 
        2.68618         54.4138         3.86099 
        2.70184          53.493         3.80467 
        2.71755         52.9831         3.74933 
        2.73329          52.209           3.695 
        2.74897         51.7627         3.64193 
        2.76462         51.1532            3.59 
        2.78034          50.653         3.53887 
        2.79607         50.2489         3.48868 
        2.81179         49.6342         3.43951 
        2.82749         49.1168         3.39135 
        2.84321         48.6266         3.34404 
        2.85893         48.0268         3.29765 
        2.87462         47.5855         3.25222 
        2.89033         46.9093         3.20759 
        2.90605         46.3764         3.16376 
        2.92176         45.9559         3.12077 
        2.93747         45.4944         3.07859 
        2.95318         45.0161         3.03718 
        2.96891         44.3566         2.99651 
        2.98456         43.9456         2.95677 
        3.00023         43.5366         2.91768 
        3.01596         42.8998         2.87917 
        3.03164         42.4786         2.84146 
        3.04738         42.1376         2.80432 
         3.0631         41.6466         2.76785 
        3.07883         41.1083         2.73202 
        3.09456         40.7171         2.69683 
        3.11026         40.4381         2.66231 
        3.12596          39.937          2.6284 
        3.14163         39.4296         2.59515 
        3.15734          39.017          2.5624 
        3.17308         38.7215         2.53013 
        3.18879            38.4          2.4985 
        3.20447         37.9926         2.46746 
         3.2202         37.5126         2.43684 
         3.2359         37.1839          2.4068 
        3.25157         36.8531         2.37733 
        3.26729         36.3962         2.34826 
        3.28304         36.0476         2.31962 
        3.29877         35.6089         2.29149 
        3.31446         35.3079         2.26389 
        3.33014         34.9388         2.23677 
        3.34585         34.5188         2.21004 
        3.36158         34.2355         2.18371 
        3.37727          33.801         2.15789 
        3.39294         33.5891         2.13251 
        3.40867          33.242         2.10744 
        3.42439         32.9163         2.08279 
        3.44008         32.5256         2.05858 
        3.45578         32.2471         2.03473 
        3.47153         31.9189         2.01121 
        3.48724         31.5488          1.9881 
        3.50292         31.3539          1.9654 
        3.51859         31.0147         1.94307 
        3.53431         30.7565         1.92101 
        3.55007          30.426         1.89924 
        3.56577         30.2036         1.87789 
        3.58146         29.8101         1.85688 
        3.59719         29.5639         1.83613 
        3.61292         29.3018         1.81571 
        3.62859         28.9879         1.79568 
        3.64429         28.7386         1.77591 
        3.66003         28.4776         1.75637 
        3.67578         28.1518         1.73714 
        3.69146         27.9073         1.71826 
        3.70712         27.5495          1.6997 
        3.72284         27.3043         1.68134 
        3.73853         27.1613         1.66328 
        3.75422         26.8341         1.64548 
        3.76993         26.6279         1.62792 
        3.78564         26.4377         1.61063 
        3.80137          26.159         1.59355 
        3.81707         25.9015         1.57676 
        3.83279         25.6915          1.5602 
        3.84853         25.3331         1.54384 
        3.86424         25.1906         1.52775 
        3.87992         25.0199         1.51192 
        3.89561          24.691          1.4963 
        3.91134         24.3886         1.48088 
        3.92704         24.2052         1.46568 
        3.94273         24.0143         1.45072 
        3.95845         23.8475         1.43593 
        3.97418          23.532         1.42135 
        3.98988         23.2961         1.40699 
        4.00554           23.15         1.39286 
        4.02125         22.9436         1.37889 
        4.03698         22.6897         1.36508 
        4.05268         22.4994          1.3515 
        4.06839         22.3066         1.33809 
         4.0841         22.0998         1.32486 
        4.09983         21.8717          1.3118 
        4.11555         21.6613         1.29891 
        4.13124         21.5202         1.28623 
        4.14693         21.2893         1.27371 
        4.16266         21.0439         1.26133 
        4.17839         20.9625         1.24912 
        4.19408         20.7681         1.23709 
        4.20977         20.5746         1.22522 
        4.22551         20.4157         1.21348 
        4.24123         20.2098          1.2019 
        4.25691         20.0018          1.1905 
        4.27259         19.9104         1.17924 
        4.28831         19.7064         1.16811 
        4.30404         19.5207         1.15711 
        4.31974         19.3311         1.14627 
        4.33543         19.1804         1.13558 
        4.35116         19.0168           1.125 
        4.36688         18.8988         1.11456 
        4.38255         18.6771         1.10429 
        4.39825         18.5326         1.09412 
        4.41398         18.3739         1.08406 
         4.4297          18.208         1.07414 
        4.44541         18.1099         1.06434 
        4.46111         17.8818         1.05468 
        4.47683          17.767         1.04512 
        4.49251         17.6184          1.0357 
        4.50819          17.474          1.0264 
         4.5239         17.3162          1.0172 
        4.53962         17.1668          1.0081 
        4.55535           17.02        0.999109 
        4.57106         16.9243        0.990238 
        4.58678         16.7039        0.981472 
         4.6025          16.608         0.97281 
        4.61821         16.4803        0.964253 
        4.63391         16.3296         0.95581 
         4.6496         16.1862        0.947471 
        4.66532         16.0721        0.939217 
        4.68103         15.9413        0.931066 
        4.69673         15.8106        0.923018 
        4.71241         15.7279        0.915072 
        4.72811         15.5393        0.907207 
        4.74384         15.4167        0.899424 
        4.75955          15.331        0.891743 
        4.77525         15.2121        0.884156 
        4.79096         15.0761        0.876647 
        4.80669         14.9335        0.869222 
         4.8224         14.7987         0.86189 
        4.83809         14.6987         0.85465 
        4.85379         14.5831        0.847489 
         4.8695         14.4682        0.840403 
        4.88521          14.351        0.833401 
        4.90093         14.2463        0.826478 
        4.91663         14.1297        0.819638 
        4.93234         14.0098        0.812869 
        4.94807         13.9073        0.806171 
        4.96377         13.7922         0.79956 
        4.97943         13.6946        0.793038 
        4.99514         13.5731         0.78657 
        5.01086         13.4692         0.78017 
        5.02654         13.3591        0.773857 
        5.04227         13.2465        0.767595 
          5.058          13.158        0.761398 
        5.07371          13.075        0.755282 
        5.08942         12.9868        0.749232 
        5.10513         12.8836        0.743247 
        5.12084         12.7881        0.737324 
        5.13656         12.6481        0.731467 
        5.15225         12.5557        0.725683 
        5.16796         12.4613        0.719951 
        5.18369         12.3969        0.714276 
         5.1994         12.2603        0.708673 
        5.21509         12.1821        0.703134 
        5.23079         12.1017        0.697647 
        5.24649         11.9995        0.692223 
        5.26217         11.9048         0.68686 
        5.27788         11.8146        0.681546 
        5.29359         11.7171        0.676287 
        5.30933         11.6325        0.671076 
        5.32504         11.5642        0.665928 
        5.34073         11.4684        0.660839 
        5.35646         11.3975        0.655793 
        5.37218         11.2873        0.650798 
        5.38789         11.2063        0.645864 
        5.40357         11.1179        0.640985 
        5.41929         11.0346        0.636146 
        5.43502         10.9427        0.631357 
         5.4507         10.8814        0.626627 
        5.46639         10.8035        0.621945 
        5.48212         10.7179          0.6173 
        5.49786         10.6288        0.612697 
        5.51353         10.5735        0.608163 
        5.52921         10.4771         0.60367 
        5.54495         10.3964        0.599209 
        5.56066         10.3293        0.594798 
        5.57637         10.2417        0.590431 
        5.59207         10.1908        0.586112 
        5.60778         10.0949        0.581835 
        5.62346         10.0523        0.577605 
        5.63916         9.96707        0.573414 
        5.65487         9.88721        0.569261 
         5.6706         9.82751        0.565145 
        5.68633         9.76524        0.561068 
        5.70203         9.68496        0.557039 
        5.71773         9.61558         0.55305 
        5.73344         9.53587        0.549098 
        5.74916         9.47904        0.545181 
        5.76486         9.42064        0.541307 
        5.78054         9.34433        0.537476 
        5.79626         9.25272        0.533672 
          5.812         9.21287          0.5299 
         5.8277         9.13686        0.526176 
        5.84339         9.07962        0.522487 
        5.85911         9.00929        0.518827 
        5.87484         8.93727        0.515202 
        5.89053         8.89752        0.511618 
        5.90623         8.82616        0.508067 
        5.92195         8.74855        0.504543 
        5.93767          8.7053        0.501055 
        5.95336         8.65366        0.497604 
        5.96905         8.59626        0.494188 
        5.98476          8.5316        0.490799 
        6.00048         8.45683         0.48744 
        6.01617         8.42261        0.484117 
        6.03185         8.35818        0.480828 
        6.04756         8.29552        0.477563 
        6.06331         8.23644         0.47432 
        6.07903          8.1889        0.471114 
        6.09473         8.13562        0.467941 
        6.11044         8.07891        0.464794 
        6.12616         8.00196        0.461676 
        6.14186         7.97156         0.45859 
        6.15755          7.9196        0.455532 
        6.17326         7.85272        0.452499 
        6.18898         7.82709        0.449492 
        6.20467         7.77374        0.446518 
        6.22036         7.69755        0.443571 
         6.2361         7.65364        0.440642 
         6.2518          7.6037        0.437745 
        6.26748         7.53673         0.43488 
        6.28319         7.50022        0.432032 
        6.29893         7.45714        0.429207 
        6.31463         7.39691        0.426412 
        6.33033         7.35161        0.423643 
        6.34604         7.30427        0.420897 
        6.36177         7.26752        0.418171 
        6.37747         7.20885        0.415475 
