# k  (h/Mpc)    Pcb(k)  (Mpc/h)^3    Pcb_linear(k) (Mpc/h)^3   ShotnoiseSubtracted = true
      0.0200456         2429.76         2458.09 
      0.0350414         1667.15         1634.22 
      0.0492313         1171.14         1168.54 
      0.0637834         946.923         962.432 
      0.0800726         704.302         713.903 
       0.096163         516.367         503.245 
       0.111083         428.881         417.592 
       0.126058         364.115         366.632 
       0.142273         289.811         289.188 
       0.158546         232.417          227.43 
        0.17375          206.56          200.98 
       0.188953         183.833          179.24 
       0.204907         150.156         149.749 
       0.220756         131.517           126.7 
        0.23588         117.997          114.28 
         0.2514         105.996         102.933 
       0.267535         95.0817         89.5196 
       0.283568         83.1168          78.775 
       0.299022         76.7454         71.6907 
       0.314451         71.9697         65.2787 
       0.330372         63.3501         58.5038 
       0.346141         57.6139          52.849 
       0.361624         53.0341           48.52 
       0.377134         48.4407         44.6074 
       0.392932         46.2903         40.7652 
       0.408854         42.0647         37.3789 
       0.424564          40.056         34.5701 
       0.440253         36.4945         32.0334 
       0.455999         33.1568         29.6563 
       0.471626         31.2742         27.5387 
        0.48727         30.2038         25.6733 
       0.502856         28.1815         23.9836 
       0.518488         26.1795          22.415 
       0.534347         24.5301         20.9667 
       0.550082         23.5173         19.6686 
       0.565732         22.5151         18.4871 
       0.581496         21.0772          17.387 
       0.597222          19.879         16.3775 
       0.612804         18.8075         15.4603 
       0.628434         18.3757         14.6104 
       0.644267         17.3462         13.8136 
       0.660051         16.4105         13.0781 
       0.675724          15.582         12.4006 
       0.691403         15.1685         11.7708 
       0.707174         14.4568         11.1812 
       0.722871          13.983         10.6344 
        0.73838         13.1807           10.13 
       0.754018         12.4688         9.65452 
       0.769845         12.0838         9.20427 
        0.78569         11.7139         8.78223 
       0.801365         11.2049         8.39069 
       0.817031         10.7709         8.02322 
       0.832809         10.3663         7.67535 
       0.848511         10.0302          7.3496 
       0.864097         9.66605         7.04494 
       0.879701         9.45952         6.75722 
       0.895507         9.08664         6.48213 
       0.911279          8.6874          6.2229 
        0.92691         8.46993         5.97996 
       0.942635         8.20126         5.74863 
       0.958396         7.91935         5.52903 
       0.974128         7.70818         5.32129 
       0.989692         7.32784         5.12625 
        1.00528         7.25356          4.9407 
        1.02113         6.99215         4.76141 
        1.03692          6.8181         4.59168 
        1.05264         6.61573           4.431 
        1.06832         6.45137         4.27824 
        1.08405           6.266         4.13227 
        1.09979          6.0917         3.99302 
        1.11537         5.92332         3.86156 
        1.13105         5.78414         3.73523 
        1.14679         5.64503         3.61405 
        1.16256         5.48713           3.498 
        1.17828         5.37514         3.38742 
        1.19395         5.21985         3.28199 
         1.2097         5.05058          3.1805 
        1.22537          4.9351         3.08379 
          1.241          4.7986         2.99138 
        1.25666         4.77028         2.90251 
        1.27241          4.6562         2.81684 
        1.28819         4.45917         2.73447 
        1.30392         4.39382         2.65563 
        1.31957         4.29471         2.58024 
        1.33529         4.20091         2.50749 
        1.35108         4.10873         2.43726 
        1.36674         3.99469         2.37021 
         1.3824         3.94748         2.30574 
        1.39811         3.85738         2.24345 
        1.41389         3.75146         2.18321 
        1.42964          3.6922         2.12528 
        1.44531         3.61223         2.06974 
        1.46101         3.57057         2.01605 
        1.47667         3.48237         1.96442 
        1.49229         3.37282         1.91474 
        1.50793         3.31374         1.86671 
        1.52367         3.24615         1.82002 
        1.53953         3.18478         1.77461 
        1.55526         3.16921          1.7311 
        1.57092         3.08325         1.68923 
        1.58662         3.03531         1.64864 
        1.60235         2.97497          1.6093 
        1.61809         2.92027         1.57123 
        1.63369          2.8629         1.53472 
        1.64941         2.81056          1.4991 
        1.66519         2.77608         1.46448 
        1.68085         2.71475          1.4312 
        1.69652         2.67406         1.39894 
        1.71228         2.63714         1.36749 
        1.72806         2.58908         1.33698 
        1.74368         2.54582          1.3077 
        1.75933         2.50403         1.27924 
        1.77505         2.45369         1.25149 
        1.79081         2.42014         1.22451 
         1.8065         2.38879         1.19844 
        1.82218         2.33765         1.17314 
        1.83797         2.29431         1.14841 
        1.85367         2.26378         1.12452 
        1.86928         2.23786         1.10145 
        1.88497         2.18826          1.0789 
        1.90073         2.16638         1.05689 
        1.91647         2.12965         1.03552 
        1.93218         2.09599         1.01478 
        1.94787         2.07329        0.994637 
        1.96363         2.04185        0.974959 
        1.97935         2.01004        0.955852 
        1.99499         1.98133        0.937364 
        2.01064         1.95643        0.919336 
         2.0264         1.92188        0.901667 
        2.04216         1.89697        0.884469 
        2.05781         1.87141        0.867827 
        2.07353         1.85227        0.851552 
        2.08928         1.82075        0.835657 
        2.10499         1.78724        0.820209 
        2.12065         1.78309        0.805196 
        2.13633         1.75112        0.790545 
        2.15211         1.71841        0.776163 
        2.16785          1.7015        0.762177 
        2.18349         1.67691        0.748621 
        2.19916         1.66406        0.735366 
        2.21489         1.64582        0.722387 
        2.23063         1.61379        0.709711 
         2.2463         1.58877        0.697395 
        2.26194         1.57511          0.6854 
        2.27765         1.53817        0.673625 
        2.29341         1.52841        0.662095 
        2.30914         1.50948        0.650858 
        2.32486         1.50257        0.639886 
        2.34061         1.47959        0.629148 
        2.35635         1.46045        0.618666 
        2.37203         1.45029        0.608457 
        2.38768         1.42973        0.598499 
        2.40339         1.40575        0.588727 
        2.41914         1.39347        0.579149 
        2.43483         1.37589        0.569817 
         2.4505         1.36043        0.560706 
        2.46622         1.34315        0.551762 
        2.48195         1.33087        0.543011 
        2.49759         1.31218        0.534496 
        2.51328         1.30161        0.526141 
        2.52906         1.28713        0.517911 
        2.54479         1.26989        0.509886 
        2.56049         1.25933        0.502047 
        2.57618         1.24325        0.494378 
        2.59189         1.23383        0.486858 
        2.60758         1.21942        0.479505 
        2.62325         1.20085        0.472312 
        2.63898         1.18731        0.465241 
        2.65468         1.17242        0.458329 
        2.67044         1.16917        0.451527 
        2.68618         1.15568        0.444878 
        2.70184         1.14548        0.438389 
        2.71755         1.13266        0.432013 
        2.73329         1.11537        0.425753 
        2.74897         1.10832        0.419637 
        2.76462         1.09643        0.413655 
        2.78034         1.09046        0.407763 
        2.79607         1.07493         0.40198 
        2.81179         1.06431        0.396315 
        2.82749         1.05343        0.390765 
        2.84321         1.04341        0.385314 
        2.85893         1.03289        0.379969 
        2.87462         1.02679        0.374734 
        2.89033         1.01558        0.369592 
        2.90605          1.0061        0.364541 
        2.92176        0.997912        0.359587 
        2.93747        0.987125        0.354728 
        2.95318        0.976754        0.349957 
        2.96891        0.972682         0.34527 
        2.98456        0.961126         0.34069 
        3.00023        0.950804        0.336186 
        3.01596        0.939824        0.331749 
        3.03164         0.93422        0.327405 
        3.04738        0.926527        0.323125 
         3.0631        0.918177        0.318923 
        3.07883        0.909291        0.314795 
        3.09456        0.899933         0.31074 
        3.11026        0.896889        0.306762 
        3.12596        0.884982        0.302855 
        3.14163        0.880082        0.299024 
        3.15734        0.869739         0.29525 
        3.17308        0.865755        0.291532 
        3.18879        0.858813        0.287887 
        3.20447        0.848683         0.28431 
         3.2202        0.844727        0.280783 
         3.2359        0.836671        0.277321 
        3.25157        0.827511        0.273925 
        3.26729        0.823329        0.270576 
        3.28304        0.817204        0.267276 
        3.29877        0.808439        0.264035 
        3.31446        0.804626        0.260855 
        3.33014        0.793916        0.257729 
        3.34585        0.790078         0.25465 
        3.36158        0.784837        0.251616 
        3.37727        0.781278        0.248641 
        3.39294        0.770932        0.245716 
        3.40867        0.768913        0.242828 
        3.42439        0.762085        0.239988 
        3.44008        0.757877        0.237198 
        3.45578        0.749806         0.23445 
        3.47153        0.744414         0.23174 
        3.48724        0.739572        0.229077 
        3.50292        0.731365        0.226461 
        3.51859        0.731194        0.223888 
        3.53431        0.722045        0.221346 
        3.55007        0.719802        0.218838 
        3.56577        0.713773        0.216378 
        3.58146        0.710055        0.213957 
        3.59719        0.703998        0.211567 
        3.61292        0.699509        0.209214 
        3.62859        0.694348        0.206905 
        3.64429        0.689174        0.204627 
        3.66003        0.683684        0.202376 
        3.67578        0.679926         0.20016 
        3.69146        0.676367        0.197985 
        3.70712        0.670472        0.195846 
        3.72284        0.666687         0.19373 
        3.73853        0.660794         0.19165 
        3.75422         0.65873        0.189598 
        3.76993        0.652902        0.187575 
        3.78564        0.648162        0.185583 
        3.80137        0.644247        0.183615 
        3.81707        0.638759        0.181681 
        3.83279        0.636584        0.179772 
        3.84853        0.631361        0.177888 
        3.86424        0.626882        0.176034 
        3.87992        0.624582        0.174209 
        3.89561        0.619637         0.17241 
        3.91134        0.615025        0.170632 
        3.92704        0.611138        0.168882 
        3.94273        0.608257        0.167157 
        3.95845        0.602233        0.165454 
        3.97418        0.599226        0.163773 
        3.98988        0.595819        0.162119 
        4.00554        0.591333        0.160491 
        4.02125        0.586615        0.158881 
        4.03698        0.582592         0.15729 
        4.05268        0.578323        0.155725 
        4.06839        0.572626         0.15418 
         4.0841        0.569206        0.152656 
        4.09983        0.565419        0.151151 
        4.11555        0.561145        0.149666 
        4.13124        0.555602        0.148205 
        4.14693        0.553036        0.146762 
        4.16266        0.548391        0.145335 
        4.17839        0.543189        0.143928 
        4.19408        0.539933        0.142543 
        4.20977        0.536935        0.141175 
        4.22551        0.532686        0.139821 
        4.24123        0.528569        0.138487 
        4.25691        0.525493        0.137174 
        4.27259        0.521635        0.135877 
        4.28831        0.520313        0.134594 
        4.30404        0.516993        0.133327 
        4.31974        0.512163        0.132078 
        4.33543         0.50924        0.130846 
        4.35116        0.506543        0.129627 
        4.36688        0.502223        0.128424 
        4.38255        0.500736         0.12724 
        4.39825        0.498403        0.126069 
        4.41398         0.49473         0.12491 
         4.4297        0.493649        0.123767 
        4.44541        0.489283        0.122638 
        4.46111        0.487333        0.121524 
        4.47683        0.484884        0.120423 
        4.49251        0.482532        0.119338 
        4.50819        0.480351        0.118266 
         4.5239        0.477914        0.117206 
        4.53962        0.474238        0.116158 
        4.55535        0.473807        0.115121 
        4.57106        0.470663        0.114099 
        4.58678        0.470129        0.113089 
         4.6025        0.467742        0.112091 
        4.61821        0.466351        0.111105 
        4.63391        0.465451        0.110132 
         4.6496        0.461411        0.109171 
        4.66532        0.460908         0.10822 
        4.68103        0.458809        0.107281 
        4.69673        0.457058        0.106354 
        4.71241        0.456548        0.105438 
        4.72811         0.45411        0.104532 
        4.74384        0.454819        0.103635 
        4.75955        0.451961         0.10275 
        4.77525        0.450409        0.101876 
        4.79096        0.450495        0.101011 
        4.80669        0.448545        0.100155 
         4.8224        0.445857       0.0993104 
        4.83809        0.446612       0.0984762 
        4.85379        0.444839       0.0976511 
         4.8695        0.444114       0.0968346 
        4.88521        0.442703       0.0960278 
        4.90093        0.442107       0.0952301 
        4.91663        0.441032        0.094442 
        4.93234        0.439252        0.093662 
        4.94807        0.439043       0.0928902 
        4.96377        0.440183       0.0921285 
        4.97943        0.439031        0.091377 
        4.99514         0.43701       0.0906318 
        5.01086        0.437767       0.0898943 
        5.02654        0.437672       0.0891669 
        5.04227        0.435933       0.0884453 
          5.058        0.436576       0.0877314 
        5.07371        0.436096       0.0870266 
        5.08942         0.43561       0.0863295 
        5.10513        0.435021       0.0856399 
        5.12084        0.434964       0.0849575 
        5.13656        0.435241       0.0842826 
        5.15225        0.435155       0.0836161 
        5.16796        0.435309       0.0829557 
        5.18369        0.435255       0.0823018 
         5.1994         0.43508       0.0816561 
        5.21509        0.435281       0.0810179 
        5.23079        0.434732       0.0803857 
        5.24649        0.435843       0.0797607 
        5.26217        0.435826       0.0791428 
        5.27788         0.43644       0.0785305 
        5.29359        0.436796       0.0779245 
        5.30933         0.43722        0.077324 
        5.32504        0.435699       0.0767309 
        5.34073        0.437596       0.0761445 
        5.35646        0.437664       0.0755631 
        5.37218        0.437975       0.0749876 
        5.38789        0.438414        0.074419 
        5.40357         0.43844       0.0738569 
        5.41929        0.439957       0.0732993 
        5.43502        0.440424       0.0727474 
         5.4507        0.439663       0.0722025 
        5.46639        0.441505        0.071663 
        5.48212        0.441206       0.0711278 
        5.49786        0.443481       0.0705974 
        5.51353        0.444085        0.070075 
        5.52921        0.444054       0.0695573 
        5.54495        0.444537       0.0690433 
        5.56066        0.446278        0.068535 
        5.57637        0.447365       0.0680319 
        5.59207        0.447637       0.0675342 
        5.60778        0.448657       0.0670413 
        5.62346        0.449497        0.066554 
        5.63916        0.450525        0.066071 
        5.65487        0.449843       0.0655926 
         5.6706        0.450656       0.0651183 
        5.68633        0.453426       0.0646485 
        5.70203        0.454532       0.0641843 
        5.71773        0.455821       0.0637247 
        5.73344        0.455861       0.0632693 
        5.74916        0.457396       0.0628179 
        5.76486        0.457851       0.0623716 
        5.78054         0.45975       0.0619302 
        5.79626         0.45959       0.0614918 
          5.812        0.460118       0.0610573 
         5.8277        0.462392       0.0606281 
        5.84339        0.464254       0.0602031 
        5.85911        0.464726       0.0597813 
        5.87484        0.466434       0.0593636 
        5.89053        0.467044       0.0589507 
        5.90623        0.468471       0.0585415 
        5.92195        0.468881       0.0581355 
        5.93767        0.471557       0.0577335 
        5.95336        0.473001        0.057336 
        5.96905        0.472495       0.0569423 
        5.98476        0.471908       0.0565518 
        6.00048        0.474623       0.0561648 
        6.01617        0.474906       0.0557819 
        6.03185        0.476806        0.055403 
        6.04756        0.477999       0.0550267 
        6.06331        0.479651       0.0546531 
        6.07903        0.481099       0.0542837 
        6.09473        0.480836        0.053918 
        6.11044        0.482459       0.0535554 
        6.12616        0.483883       0.0531961 
        6.14186        0.484915       0.0528405 
        6.15755        0.487146       0.0524882 
        6.17326        0.487131       0.0521387 
        6.18898         0.48848       0.0517923 
        6.20467        0.490573       0.0514496 
        6.22036        0.491325         0.05111 
         6.2361        0.492139       0.0507726 
         6.2518        0.492513       0.0504387 
        6.26748        0.493524       0.0501086 
        6.28319        0.496203       0.0497805 
        6.29893        0.496718        0.049455 
        6.31463        0.497825       0.0491329 
        6.33033        0.497148       0.0488139 
        6.34604        0.500015       0.0484974 
        6.36177        0.499526       0.0481834 
        6.37747        0.503031       0.0478727 
