# k  (h/Mpc)    Pcb(k)  (Mpc/h)^3    Pcb_linear(k) (Mpc/h)^3   ShotnoiseSubtracted = true
      0.0200456         6277.38          6371.1 
      0.0350414         4170.09         4235.72 
      0.0492313         3025.56         3028.74 
      0.0637834         2536.72         2494.52 
      0.0800726         1894.87         1850.36 
       0.096163         1297.15         1304.36 
       0.111083         1063.86         1082.36 
       0.126058         963.848         950.271 
       0.142273          784.72         749.546 
       0.158546         634.006         589.476 
        0.17375         530.714         520.919 
       0.188953         496.787         464.572 
       0.204907         445.221         388.133 
       0.220756         371.956         328.393 
        0.23588         330.821         296.202 
         0.2514         290.679         266.791 
       0.267535         268.351         232.025 
       0.283568         241.467         204.176 
       0.299022         223.318         185.815 
       0.314451         202.703         169.196 
       0.330372         186.242         151.636 
       0.346141         166.622         136.979 
       0.361624         158.247         125.759 
       0.377134         147.993         115.618 
       0.392932         133.643         105.659 
       0.408854          127.82         96.8821 
       0.424564         122.016          89.602 
       0.440253         114.054         83.0272 
       0.455999         106.639         76.8659 
       0.471626         98.7008         71.3773 
        0.48727         95.0772         66.5424 
       0.502856         90.5399          62.163 
       0.518488         87.2663         58.0974 
       0.534347         83.4776         54.3434 
       0.550082         76.6313          50.979 
       0.565732         72.9951         47.9165 
       0.581496         70.3576         45.0653 
       0.597222         67.8305         42.4489 
       0.612804         64.1452         40.0714 
       0.628434         62.4223         37.8686 
       0.644267         60.3052         35.8033 
       0.660051         58.2834         33.8971 
       0.675724         55.6501         32.1411 
       0.691403          53.908         30.5086 
       0.707174         52.0054         28.9806 
       0.722871         50.4533         27.5634 
        0.73838         49.0945          26.256 
       0.754018         46.5887         25.0235 
       0.769845          45.491         23.8565 
        0.78569         44.2583         22.7626 
       0.801365         42.5747         21.7478 
       0.817031         41.4157         20.7953 
       0.832809         40.7132         19.8937 
       0.848511         38.6052         19.0494 
       0.864097         37.7989         18.2597 
       0.879701         36.9866          17.514 
       0.895507         36.4089          16.801 
       0.911279          35.237         16.1291 
        0.92691         34.4625         15.4994 
       0.942635         33.0781         14.8999 
       0.958396         32.8345         14.3307 
       0.974128         31.8404         13.7922 
       0.989692          31.324         13.2867 
        1.00528         30.5918         12.8058 
        1.02113         29.5947         12.3411 
        1.03692         28.8741         11.9012 
        1.05264         28.6127         11.4847 
        1.06832         27.6497         11.0887 
        1.08405         27.2342         10.7104 
        1.09979         26.7129         10.3495 
        1.11537         25.8729         10.0088 
        1.13105         25.8471         9.68131 
        1.14679         25.3541         9.36723 
        1.16256         24.5669         9.06645 
        1.17828         24.1531         8.77985 
        1.19395         23.6539         8.50657 
         1.2097         23.4177         8.24353 
        1.22537         23.0633         7.99285 
          1.241         22.4522         7.75333 
        1.25666         21.9181         7.52301 
        1.27241         21.6262         7.30095 
        1.28819         21.0663         7.08746 
        1.30392         20.8545         6.88311 
        1.31957         20.6882         6.68771 
        1.33529         20.4126         6.49916 
        1.35108         19.9264         6.31712 
        1.36674         19.5847         6.14333 
         1.3824         19.1717         5.97623 
        1.39811         19.0163         5.81477 
        1.41389         18.7829         5.65865 
        1.42964         18.3633         5.50851 
        1.44531         18.2755         5.36454 
        1.46101         17.8023         5.22539 
        1.47667         17.5953         5.09158 
        1.49229         17.4038          4.9628 
        1.50793         17.1534         4.83832 
        1.52367         16.9193          4.7173 
        1.53953         16.7664         4.59959 
        1.55526         16.4256         4.48683 
        1.57092         16.1489         4.37831 
        1.58662         15.9952         4.27311 
        1.60235         15.7813         4.17115 
        1.61809         15.5755         4.07245 
        1.63369         15.3894         3.97782 
        1.64941         15.0764         3.88551 
        1.66519         14.9921         3.79579 
        1.68085         14.7519         3.70953 
        1.69652         14.5533         3.62591 
        1.71228         14.4312          3.5444 
        1.72806         14.2121         3.46531 
        1.74368         14.0142         3.38943 
        1.75933         13.8823         3.31565 
        1.77505         13.7326         3.24372 
        1.79081         13.5127          3.1738 
         1.8065         13.4385         3.10622 
        1.82218         13.2014         3.04067 
        1.83797         12.9805         2.97655 
        1.85367         12.8674         2.91463 
        1.86928         12.7682         2.85483 
        1.88497         12.5658         2.79639 
        1.90073         12.5469         2.73935 
        1.91647         12.3208         2.68395 
        1.93218         12.2015          2.6302 
        1.94787          12.085         2.57799 
        1.96363          11.983         2.52699 
        1.97935         11.8364         2.47747 
        1.99499         11.6385         2.42955 
        2.01064         11.5664         2.38282 
         2.0264         11.4116         2.33702 
        2.04216         11.2936         2.29245 
        2.05781         11.1239         2.24932 
        2.07353         11.0475         2.20713 
        2.08928         10.9378         2.16593 
        2.10499          10.813          2.1259 
        2.12065         10.6477         2.08698 
        2.13633         10.6369         2.04901 
        2.15211         10.4557         2.01173 
        2.16785         10.4065         1.97548 
        2.18349         10.3223         1.94035 
        2.19916         10.1937         1.90599 
        2.21489         10.0954         1.87235 
        2.23063         9.98802          1.8395 
         2.2463         9.87089         1.80757 
        2.26194         9.77894         1.77648 
        2.27765         9.73094         1.74597 
        2.29341         9.60475         1.71608 
        2.30914         9.46992         1.68695 
        2.32486         9.43356         1.65852 
        2.34061         9.33593         1.63069 
        2.35635          9.2233         1.60352 
        2.37203         9.18291         1.57706 
        2.38768         9.02656         1.55125 
        2.40339            8.94         1.52592 
        2.41914         8.86582         1.50109 
        2.43483         8.83635         1.47691 
         2.4505         8.71613         1.45329 
        2.46622         8.64085         1.43011 
        2.48195         8.59733         1.40743 
        2.49759         8.49131         1.38536 
        2.51328         8.39292          1.3637 
        2.52906         8.34448         1.34237 
        2.54479         8.23827         1.32157 
        2.56049          8.2342         1.30125 
        2.57618         8.15071         1.28138 
        2.59189         8.02449         1.26188 
        2.60758         8.01172         1.24283 
        2.62325         7.95434         1.22418 
        2.63898         7.83057         1.20586 
        2.65468         7.75186         1.18794 
        2.67044         7.69354         1.17031 
        2.68618         7.60754         1.15308 
        2.70184         7.57473         1.13626 
        2.71755         7.49552         1.11973 
        2.73329         7.41007         1.10351 
        2.74897          7.3801         1.08766 
        2.76462         7.34263         1.07215 
        2.78034         7.20236         1.05688 
        2.79607         7.19283         1.04189 
        2.81179         7.11403         1.02721 
        2.82749         7.08821         1.01282 
        2.84321         7.01371        0.998694 
        2.85893         6.95835        0.984839 
        2.87462         6.90587         0.97127 
        2.89033         6.82449        0.957943 
        2.90605         6.75645        0.944853 
        2.92176         6.73142        0.932013 
        2.93747          6.6864        0.919417 
        2.95318         6.62262         0.90705 
        2.96891         6.56933        0.894904 
        2.98456         6.49174        0.883033 
        3.00023         6.46206         0.87136 
        3.01596         6.41229        0.859859 
        3.03164         6.38407        0.848599 
        3.04738         6.32939        0.837506 
         3.0631         6.25279        0.826614 
        3.07883         6.22187        0.815914 
        3.09456         6.17217        0.805405 
        3.11026         6.11259        0.795096 
        3.12596         6.08422        0.784968 
        3.14163          6.0141        0.775038 
        3.15734          5.9772        0.765256 
        3.17308         5.93104        0.755619 
        3.18879         5.88469        0.746174 
        3.20447         5.84145        0.736902 
         3.2202          5.7805        0.727759 
         3.2359         5.74611        0.718786 
        3.25157         5.70822        0.709986 
        3.26729         5.67517        0.701305 
        3.28304         5.60652        0.692752 
        3.29877         5.57088        0.684351 
        3.31446         5.53171        0.676108 
        3.33014          5.4872        0.668007 
        3.34585         5.47542        0.660026 
        3.36158         5.42504        0.652163 
        3.37727         5.38524        0.644451 
        3.39294         5.34828        0.636871 
        3.40867          5.2935        0.629385 
        3.42439         5.25575        0.622023 
        3.44008           5.218        0.614792 
        3.45578          5.1779         0.60767 
        3.47153         5.14631        0.600645 
        3.48724         5.10779        0.593742 
        3.50292          5.0851        0.586964 
        3.51859          5.0432        0.580294 
        3.53431          4.9959        0.573707 
        3.55007         4.96686        0.567205 
        3.56577          4.9381        0.560829 
        3.58146         4.90624        0.554553 
        3.59719         4.86183        0.548359 
        3.61292         4.83962         0.54226 
        3.62859         4.80278        0.536277 
        3.64429         4.75856        0.530372 
        3.66003         4.71978        0.524538 
        3.67578         4.70157        0.518793 
        3.69146         4.65144        0.513156 
        3.70712         4.64786        0.507612 
        3.72284         4.59011        0.502128 
        3.73853         4.56473        0.496735 
        3.75422         4.52847        0.491419 
        3.76993         4.51172        0.486176 
        3.78564         4.45999        0.481011 
        3.80137         4.45084        0.475912 
        3.81707         4.41136        0.470897 
        3.83279         4.38515         0.46595 
        3.84853         4.34871        0.461066 
        3.86424          4.3162        0.456261 
        3.87992         4.28728        0.451532 
        3.89561         4.25759        0.446868 
        3.91134         4.22203        0.442261 
        3.92704         4.20308        0.437724 
        3.94273         4.17122        0.433254 
        3.95845         4.14368        0.428839 
        3.97418         4.11718        0.424484 
        3.98988         4.08601        0.420194 
        4.00554          4.0666        0.415976 
        4.02125         4.03529        0.411803 
        4.03698         3.99665         0.40768 
        4.05268         3.97942        0.403623 
        4.06839         3.95807        0.399618 
         4.0841         3.92948        0.395668 
        4.09983         3.89652        0.391766 
        4.11555         3.86567        0.387918 
        4.13124         3.84867        0.384132 
        4.14693          3.8032        0.380392 
        4.16266         3.77342        0.376694 
        4.17839          3.7543        0.373047 
        4.19408         3.72114        0.369456 
        4.20977         3.70261         0.36591 
        4.22551         3.67458        0.362403 
        4.24123         3.65092        0.358944 
        4.25691         3.62991         0.35554 
        4.27259         3.61323        0.352179 
        4.28831         3.58629        0.348854 
        4.30404         3.55635        0.345569 
        4.31974         3.53192        0.342333 
        4.33543         3.51431         0.33914 
        4.35116         3.48246         0.33598 
        4.36688          3.4482        0.332861 
        4.38255         3.43237        0.329794 
        4.39825         3.41363        0.326758 
        4.41398         3.39544        0.323754 
         4.4297         3.36762         0.32079 
        4.44541         3.35526        0.317865 
        4.46111         3.33606        0.314977 
        4.47683          3.2937        0.312124 
        4.49251          3.2857        0.309311 
        4.50819         3.25972        0.306533 
         4.5239         3.23816        0.303786 
        4.53962         3.22929        0.301068 
        4.55535         3.20366        0.298382 
        4.57106         3.18648        0.295733 
        4.58678         3.16766        0.293115 
         4.6025         3.14728        0.290528 
        4.61821         3.12826        0.287973 
        4.63391         3.10776        0.285451 
         4.6496         3.08792        0.282961 
        4.66532         3.06516        0.280496 
        4.68103         3.04445        0.278061 
        4.69673         3.02636        0.275658 
        4.71241         3.00401        0.273285 
        4.72811         2.99636        0.270936 
        4.74384         2.98041        0.268612 
        4.75955         2.95282        0.266318 
        4.77525         2.93176        0.264052 
        4.79096         2.91019        0.261809 
        4.80669         2.90289        0.259592 
         4.8224         2.88159        0.257402 
        4.83809         2.86798         0.25524 
        4.85379         2.85317        0.253101 
         4.8695         2.83129        0.250985 
        4.88521          2.8128        0.248894 
        4.90093         2.80242        0.246826 
        4.91663         2.78247        0.244784 
        4.93234         2.76884        0.242762 
        4.94807         2.75419        0.240762 
        4.96377         2.73047        0.238787 
        4.97943         2.70852        0.236839 
        4.99514          2.6999        0.234908 
        5.01086         2.68229        0.232997 
        5.02654         2.67066        0.231111 
        5.04227         2.65123        0.229241 
          5.058         2.64022         0.22739 
        5.07371         2.62263        0.225564 
        5.08942         2.60854        0.223757 
        5.10513         2.59093         0.22197 
        5.12084         2.57451        0.220201 
        5.13656         2.56349        0.218452 
        5.15225         2.54697        0.216724 
        5.16796         2.53438        0.215012 
        5.18369         2.52115        0.213318 
         5.1994         2.50531        0.211644 
        5.21509         2.49445         0.20999 
        5.23079         2.47597        0.208351 
        5.24649         2.46516        0.206731 
        5.26217         2.45063         0.20513 
        5.27788         2.43512        0.203543 
        5.29359         2.42017        0.201972 
        5.30933         2.40751        0.200416 
        5.32504         2.39313        0.198878 
        5.34073         2.37787        0.197359 
        5.35646         2.36696        0.195852 
        5.37218         2.35193         0.19436 
        5.38789         2.34014        0.192886 
        5.40357         2.32927        0.191429 
        5.41929         2.31766        0.189984 
        5.43502         2.30329        0.188554 
         5.4507         2.29473        0.187141 
        5.46639         2.28043        0.185743 
        5.48212         2.26599        0.184356 
        5.49786         2.25218        0.182981 
        5.51353         2.24141        0.181627 
        5.52921         2.23253        0.180285 
        5.54495         2.21789        0.178953 
        5.56066         2.20938        0.177635 
        5.57637         2.19654        0.176331 
        5.59207         2.18417        0.175042 
        5.60778         2.17695        0.173764 
        5.62346         2.16028        0.172501 
        5.63916         2.14641        0.171249 
        5.65487         2.13829        0.170009 
         5.6706         2.12696         0.16878 
        5.68633         2.11123        0.167562 
        5.70203         2.10558        0.166359 
        5.71773         2.09291        0.165168 
        5.73344         2.08191        0.163987 
        5.74916         2.06989        0.162817 
        5.76486         2.06351         0.16166 
        5.78054          2.0492        0.160517 
        5.79626         2.04229         0.15938 
          5.812         2.03251        0.158254 
         5.8277         2.02308        0.157142 
        5.84339         2.00978         0.15604 
        5.85911         2.00206        0.154947 
        5.87484         1.99248        0.153864 
        5.89053         1.98291        0.152794 
        5.90623         1.97269        0.151733 
        5.92195         1.96197        0.150681 
        5.93767         1.94833        0.149639 
        5.95336         1.94129        0.148609 
        5.96905         1.93068        0.147588 
        5.98476         1.92196        0.146576 
        6.00048         1.91416        0.145573 
        6.01617         1.90119        0.144581 
        6.03185         1.89185        0.143599 
        6.04756         1.88456        0.142623 
        6.06331         1.87308        0.141655 
        6.07903         1.86629        0.140698 
        6.09473         1.85591         0.13975 
        6.11044         1.84724         0.13881 
        6.12616         1.83662        0.137879 
        6.14186         1.83175        0.136957 
        6.15755          1.8266        0.136044 
        6.17326         1.81513        0.135138 
        6.18898          1.8043         0.13424 
        6.20467          1.7974        0.133352 
        6.22036         1.78629        0.132472 
         6.2361         1.78306        0.131597 
         6.2518         1.76908        0.130732 
        6.26748         1.76331        0.129876 
        6.28319          1.7545        0.129026 
        6.29893         1.74753        0.128182 
        6.31463         1.73849        0.127347 
        6.33033         1.72913         0.12652 
        6.34604         1.72158          0.1257 
        6.36177          1.7143        0.124886 
        6.37747         1.70474        0.124081 
