# k  (h/Mpc)    Pcb(k)  (Mpc/h)^3    Pcb_linear(k) (Mpc/h)^3   ShotnoiseSubtracted = true
      0.0200456         19443.1         19737.5 
      0.0350414         13613.4         13122.2 
      0.0492313         9253.96         9382.95 
      0.0637834         7394.53         7727.97 
      0.0800726         5490.04         5732.38 
       0.096163         4286.35         4040.87 
       0.111083         3573.38         3353.11 
       0.126058         2940.41         2943.92 
       0.142273         2451.32         2322.08 
       0.158546         2000.57         1826.18 
        0.17375         1802.24         1613.79 
       0.188953         1683.18         1439.23 
       0.204907         1411.57         1202.43 
       0.220756         1268.83         1017.35 
        0.23588         1138.16         917.628 
         0.2514         1018.17         826.513 
       0.267535         978.573         718.809 
       0.283568         860.568         632.534 
       0.299022         820.119          575.65 
       0.314451         846.122         524.164 
       0.330372          729.26         469.764 
       0.346141         670.517         424.358 
       0.361624         641.482         389.598 
       0.377134           609.4         358.181 
       0.392932         581.766         327.329 
       0.408854         556.135         300.138 
       0.424564         540.479         277.585 
       0.440253         493.494         257.216 
       0.455999         471.303         238.129 
       0.471626         478.649         221.125 
        0.48727         449.635         206.147 
       0.502856         423.267         192.579 
       0.518488         416.288         179.984 
       0.534347         393.715         168.355 
       0.550082         375.937         157.932 
       0.565732         372.248         148.444 
       0.581496         360.678         139.611 
       0.597222          350.54         131.506 
       0.612804         341.084          124.14 
       0.628434         327.787         117.316 
       0.644267         315.449         110.918 
       0.660051         311.537         105.013 
       0.675724          303.98         99.5725 
       0.691403         297.887         94.5149 
       0.707174         286.014         89.7811 
       0.722871         281.375         85.3906 
        0.73838         277.104         81.3405 
       0.754018         266.926         77.5222 
       0.769845         265.981         73.9069 
        0.78569         258.232          70.518 
       0.801365         250.086         67.3742 
       0.817031         248.505         64.4235 
       0.832809         242.856         61.6302 
       0.848511         237.239         59.0146 
       0.864097         230.338         56.5683 
       0.879701         229.595         54.2579 
       0.895507         223.106         52.0491 
       0.911279         218.059         49.9676 
        0.92691           215.1         48.0169 
       0.942635         213.027         46.1594 
       0.958396          207.27         44.3961 
       0.974128         204.803          42.728 
       0.989692         197.061         41.1619 
        1.00528         196.829          39.672 
        1.02113         194.063         38.2324 
        1.03692         189.437         36.8695 
        1.05264         185.725         35.5792 
        1.06832         184.945         34.3527 
        1.08405         180.248         33.1806 
        1.09979         178.297         32.0625 
        1.11537          175.46         31.0069 
        1.13105         171.985         29.9925 
        1.14679         170.563         29.0195 
        1.16256         167.217         28.0877 
        1.17828         165.466         27.1998 
        1.19395         161.118         26.3532 
         1.2097         160.385         25.5383 
        1.22537         159.087         24.7617 
          1.241         154.115         24.0196 
        1.25666         153.396         23.3061 
        1.27241         150.202         22.6182 
        1.28819         148.476         21.9568 
        1.30392         146.696         21.3237 
        1.31957         143.062         20.7184 
        1.33529          140.83         20.1342 
        1.35108         139.915         19.5703 
        1.36674         136.811         19.0319 
         1.3824         135.912         18.5142 
        1.39811         134.017          18.014 
        1.41389         130.935         17.5304 
        1.42964         129.251         17.0652 
        1.44531         128.387         16.6192 
        1.46101         125.704         16.1881 
        1.47667         125.081         15.7736 
        1.49229         123.219         15.3746 
        1.50793         120.775          14.989 
        1.52367         119.254         14.6141 
        1.53953         117.044         14.2494 
        1.55526         116.439         13.9001 
        1.57092         115.255         13.5639 
        1.58662         112.715          13.238 
        1.60235         111.486         12.9221 
        1.61809         109.927         12.6164 
        1.63369         108.044         12.3232 
        1.64941         107.578         12.0372 
        1.66519         105.884         11.7593 
        1.68085         103.796          11.492 
        1.69652         103.018          11.233 
        1.71228         101.462         10.9805 
        1.72806         100.964         10.7355 
        1.74368         99.3105         10.5004 
        1.75933         98.2558         10.2718 
        1.77505         96.8345          10.049 
        1.79081         95.3385         9.83235 
         1.8065         93.5395           9.623 
        1.82218         92.6686         9.41992 
        1.83797          92.157         9.22128 
        1.85367         90.8065         9.02945 
        1.86928         90.1045         8.84421 
        1.88497           88.31         8.66314 
        1.90073         87.6784         8.48645 
        1.91647         86.1144         8.31483 
        1.93218         85.3209          8.1483 
        1.94787         83.7191         7.98656 
        1.96363         83.2466         7.82856 
        1.97935          82.398         7.67514 
        1.99499         81.5664         7.52668 
        2.01064         79.8251         7.38192 
         2.0264         79.0581         7.24005 
        2.04216         77.8004         7.10196 
        2.05781         77.0696         6.96833 
        2.07353         76.2554         6.83764 
        2.08928         75.2304         6.71002 
        2.10499         74.3561         6.58597 
        2.12065         73.5854         6.46543 
        2.13633         72.5728         6.34778 
        2.15211         71.5215          6.2323 
        2.16785         70.5544            6.12 
        2.18349         69.6722         6.01115 
        2.19916         68.9565         5.90472 
        2.21489         68.2031          5.8005 
        2.23063         67.0121         5.69871 
         2.2463         66.4386         5.59982 
        2.26194          65.921         5.50351 
        2.27765         64.8241         5.40896 
        2.29341         64.1766         5.31638 
        2.30914         63.3997         5.22615 
        2.32486         62.6091         5.13805 
        2.34061         61.7215         5.05183 
        2.35635         61.1148         4.96766 
        2.37203          60.217         4.88568 
        2.38768         59.6995         4.80572 
        2.40339         59.0701         4.72726 
        2.41914         57.9199         4.65035 
        2.43483         57.7196         4.57542 
         2.4505         56.8231         4.50226 
        2.46622         56.3711         4.43044 
        2.48195          55.681         4.36018 
        2.49759         55.0011         4.29181 
        2.51328         54.3071         4.22472 
        2.52906         53.7297         4.15863 
        2.54479         53.2201          4.0942 
        2.56049          52.397         4.03125 
        2.57618         51.8847         3.96968 
        2.59189         51.3115         3.90929 
        2.60758         50.6072         3.85025 
        2.62325         50.1364         3.79249 
        2.63898           49.74         3.73571 
        2.65468         49.1758         3.68021 
        2.67044         48.6663         3.62559 
        2.68618         48.2557         3.57221 
        2.70184          47.645          3.5201 
        2.71755          46.852          3.4689 
        2.73329         46.4008         3.41864 
        2.74897         45.9318         3.36953 
        2.76462         45.5307         3.32149 
        2.78034         45.1068         3.27419 
        2.79607         44.5167         3.22775 
        2.81179         43.9857         3.18226 
        2.82749          43.551          3.1377 
        2.84321         43.2036         3.09393 
        2.85893         42.6367         3.05101 
        2.87462         42.1684         3.00897 
        2.89033          41.575         2.96768 
        2.90605         41.0648         2.92713 
        2.92176         40.8574         2.88735 
        2.93747         40.3192         2.84833 
        2.95318         39.9101         2.81002 
        2.96891         39.4009         2.77239 
        2.98456         39.1399         2.73562 
        3.00023         38.6213         2.69945 
        3.01596         38.0493         2.66382 
        3.03164         37.7706         2.62894 
        3.04738         37.4482         2.59457 
         3.0631         37.1668         2.56083 
        3.07883          36.674         2.52768 
        3.09456         36.2346         2.49513 
        3.11026         35.9524         2.46319 
        3.12596         35.5665         2.43181 
        3.14163         35.0921         2.40105 
        3.15734         34.8328         2.37075 
        3.17308         34.4563         2.34089 
        3.18879         34.1992         2.31163 
        3.20447         33.7217         2.28291 
         3.2202         33.4539         2.25458 
         3.2359         33.1376         2.22678 
        3.25157         32.7542         2.19952 
        3.26729         32.4886         2.17263 
        3.28304         32.1462         2.14613 
        3.29877         31.7254          2.1201 
        3.31446         31.4441         2.09457 
        3.33014         31.0895         2.06947 
        3.34585         30.7939         2.04475 
        3.36158          30.541         2.02038 
        3.37727         30.1883         1.99649 
        3.39294         29.9017         1.97301 
        3.40867         29.6393         1.94982 
        3.42439         29.3548         1.92701 
        3.44008         29.0306         1.90461 
        3.45578         28.7785         1.88255 
        3.47153         28.5297         1.86078 
        3.48724         28.1849          1.8394 
        3.50292         28.0104          1.8184 
        3.51859         27.7006         1.79774 
        3.53431         27.4316         1.77733 
        3.55007         27.1268         1.75719 
        3.56577         26.9272         1.73744 
        3.58146         26.6183         1.71799 
        3.59719         26.4091          1.6988 
        3.61292         26.1336         1.67991 
        3.62859         25.8603         1.66137 
        3.64429         25.6516         1.64308 
        3.66003         25.3713         1.62501 
        3.67578          25.115         1.60721 
        3.69146         24.9147         1.58974 
        3.70712         24.6662         1.57257 
        3.72284         24.4716         1.55558 
        3.73853          24.284         1.53887 
        3.75422         23.9906         1.52241 
        3.76993          23.784         1.50616 
        3.78564         23.6051         1.49016 
        3.80137         23.3677         1.47436 
        3.81707         23.1644         1.45883 
        3.83279         22.9318          1.4435 
        3.84853         22.6814         1.42837 
        3.86424         22.4623         1.41349 
        3.87992          22.307         1.39883 
        3.89561         22.0575         1.38439 
        3.91134         21.8032         1.37011 
        3.92704         21.6496         1.35606 
        3.94273         21.4694         1.34221 
        3.95845         21.3041         1.32853 
        3.97418         21.0459         1.31504 
        3.98988          20.823         1.30175 
        4.00554         20.6338         1.28868 
        4.02125         20.5299         1.27576 
        4.03698         20.2829         1.26298 
        4.05268         20.1254         1.25042 
        4.06839         19.9166         1.23801 
         4.0841         19.7252         1.22577 
        4.09983         19.5751         1.21368 
        4.11555         19.3855         1.20176 
        4.13124         19.3164         1.19003 
        4.14693         19.0188         1.17845 
        4.16266         18.9219         1.16699 
        4.17839         18.7711         1.15569 
        4.19408         18.6002         1.14457 
        4.20977         18.4171         1.13358 
        4.22551         18.2959         1.12271 
        4.24123         18.1062           1.112 
        4.25691         17.9761         1.10146 
        4.27259         17.8121         1.09104 
        4.28831         17.6947         1.08074 
        4.30404          17.509         1.07057 
        4.31974         17.3674         1.06054 
        4.33543         17.1877         1.05065 
        4.35116         17.0902         1.04086 
        4.36688         16.8995          1.0312 
        4.38255         16.7816         1.02169 
        4.39825         16.6152         1.01229 
        4.41398         16.5199         1.00298 
         4.4297          16.354        0.993801 
        4.44541         16.2505        0.984737 
        4.46111         16.0251        0.975792 
        4.47683          15.937        0.966952 
        4.49251          15.808        0.958238 
        4.50819         15.6436        0.949633 
         4.5239         15.5759        0.941121 
        4.53962          15.399        0.932702 
        4.55535         15.2985        0.924382 
        4.57106         15.2003        0.916174 
        4.58678         15.0111        0.908064 
         4.6025          14.906         0.90005 
        4.61821         14.8015        0.892133 
        4.63391         14.6756        0.884321 
         4.6496         14.5484        0.876606 
        4.66532         14.4034         0.86897 
        4.68103         14.3284        0.861428 
        4.69673         14.2062        0.853982 
        4.71241         14.0747        0.846631 
        4.72811         13.9818        0.839354 
        4.74384         13.8671        0.832152 
        4.75955         13.7416        0.825046 
        4.77525         13.6397        0.818026 
        4.79096         13.5228        0.811079 
        4.80669         13.4356        0.804209 
         4.8224         13.2992        0.797426 
        4.83809         13.1767        0.790728 
        4.85379         13.0823        0.784102 
         4.8695          12.994        0.777546 
        4.88521          12.901        0.771068 
        4.90093         12.7735        0.764662 
        4.91663          12.667        0.758334 
        4.93234          12.595        0.752071 
        4.94807         12.4904        0.745874 
        4.96377         12.3785        0.739758 
        4.97943         12.2924        0.733723 
        4.99514          12.191         0.72774 
        5.01086         12.0797        0.721818 
        5.02654          12.014        0.715977 
        5.04227         11.9056        0.710183 
          5.058         11.8372         0.70445 
        5.07371         11.7481        0.698792 
        5.08942         11.6656        0.693194 
        5.10513         11.5518        0.687657 
        5.12084         11.4705        0.682177 
        5.13656         11.3648        0.676758 
        5.15225         11.2967        0.671406 
        5.16796         11.2331        0.666103 
        5.18369         11.1074        0.660853 
         5.1994         11.0432        0.655668 
        5.21509         10.9544        0.650544 
        5.23079         10.8627        0.645467 
        5.24649         10.7834        0.640449 
        5.26217         10.6974        0.635487 
        5.27788         10.6328        0.630571 
        5.29359         10.5379        0.625705 
        5.30933         10.4684        0.620883 
        5.32504         10.4028         0.61612 
        5.34073         10.3029        0.611412 
        5.35646         10.2505        0.606744 
        5.37218         10.1615        0.602123 
        5.38789         10.0964        0.597557 
        5.40357         10.0186        0.593044 
        5.41929         9.94916        0.588567 
        5.43502         9.86802        0.584135 
         5.4507         9.78719        0.579759 
        5.46639         9.71848        0.575428 
        5.48212         9.64149         0.57113 
        5.49786         9.56944        0.566871 
        5.51353         9.52486        0.562676 
        5.52921         9.45683        0.558519 
        5.54495         9.38063        0.554392 
        5.56066         9.30762         0.55031 
        5.57637         9.23363        0.546271 
        5.59207         9.18307        0.542275 
        5.60778         9.10736        0.538317 
        5.62346         9.05296        0.534404 
        5.63916         8.98637        0.530526 
        5.65487         8.93104        0.526684 
         5.6706         8.85126        0.522876 
        5.68633         8.77956        0.519104 
        5.70203         8.71652        0.515376 
        5.71773         8.67777        0.511686 
        5.73344         8.61079        0.508029 
        5.74916         8.54355        0.504405 
        5.76486         8.49394         0.50082 
        5.78054         8.41826        0.497276 
        5.79626         8.36224        0.493757 
          5.812         8.29968        0.490267 
         5.8277         8.23584        0.486821 
        5.84339         8.17685        0.483409 
        5.85911         8.12629        0.480022 
        5.87484         8.07825        0.476668 
        5.89053         8.02188        0.473352 
        5.90623          7.9639        0.470067 
        5.92195         7.91379        0.466806 
        5.93767         7.85158        0.463579 
        5.95336         7.79925        0.460387 
        5.96905         7.72761        0.457226 
        5.98476         7.71173         0.45409 
        6.00048         7.64198        0.450982 
        6.01617         7.60767        0.447908 
        6.03185          7.5309        0.444865 
        6.04756         7.47911        0.441844 
        6.06331         7.43445        0.438844 
        6.07903         7.38947        0.435878 
        6.09473         7.33529        0.432942 
        6.11044         7.27809         0.43003 
        6.12616          7.2379        0.427145 
        6.14186         7.19355         0.42429 
        6.15755         7.13997        0.421461 
        6.17326         7.08914        0.418655 
        6.18898         7.05593        0.415873 
        6.20467         7.00306        0.413121 
        6.22036         6.96049        0.410395 
         6.2361         6.90538        0.407685 
         6.2518         6.86922        0.405004 
        6.26748         6.81738        0.402353 
        6.28319         6.78855        0.399719 
        6.29893         6.73137        0.397105 
        6.31463          6.6672        0.394519 
        6.33033         6.63656        0.391957 
        6.34604         6.60225        0.389416 
        6.36177         6.55944        0.386895 
        6.37747         6.51052          0.3844 
