# k  (h/Mpc)    Pcb(k)  (Mpc/h)^3    Pcb_linear(k) (Mpc/h)^3   ShotnoiseSubtracted = true
      0.0200456         17848.3         18111.9 
      0.0350414         12481.4         12041.4 
      0.0492313         8504.82         8610.14 
      0.0637834          6798.6         7091.46 
      0.0800726         5048.07         5260.24 
       0.096163         3925.97         3708.05 
       0.111083         3274.08         3076.94 
       0.126058         2696.88         2701.44 
       0.142273         2240.09         2130.82 
       0.158546         1828.67         1675.77 
        0.17375         1644.34         1480.88 
       0.188953         1530.33         1320.69 
       0.204907         1280.23         1103.39 
       0.220756         1149.24          933.56 
        0.23588         1031.21         842.049 
         0.2514          920.76         758.438 
       0.267535         884.937         659.605 
       0.283568         775.862         580.436 
       0.299022          739.98         528.237 
       0.314451         759.719         480.992 
       0.330372         652.139         431.073 
       0.346141         600.435         389.406 
       0.361624          573.88         357.509 
       0.377134         543.256          328.68 
       0.392932         519.947         300.369 
       0.408854         496.319         275.418 
       0.424564         481.468         254.722 
       0.440253         438.107         236.031 
       0.455999           418.5         218.516 
       0.471626          423.96         202.912 
        0.48727         398.573         189.168 
       0.502856         372.458         176.718 
       0.518488         368.575          165.16 
       0.534347         346.626         154.488 
       0.550082         331.791         144.924 
       0.565732         329.246         136.218 
       0.581496         317.388         128.112 
       0.597222         308.042         120.674 
       0.612804         299.383         113.916 
       0.628434         288.035         107.653 
       0.644267         276.383         101.782 
       0.660051         272.813         96.3633 
       0.675724           266.7         91.3713 
       0.691403         261.101         86.7303 
       0.707174         250.576         82.3864 
       0.722871         246.286         78.3575 
        0.73838         243.191          74.641 
       0.754018         233.429         71.1372 
       0.769845         232.866         67.8196 
        0.78569         225.734         64.7099 
       0.801365         218.916          61.825 
       0.817031         216.933         59.1173 
       0.832809         212.007         56.5541 
       0.848511         206.673         54.1539 
       0.864097         200.882         51.9091 
       0.879701         200.244          49.789 
       0.895507         195.183         47.7622 
       0.911279         190.251         45.8521 
        0.92691         187.158          44.062 
       0.942635         185.639         42.3575 
       0.958396         180.908         40.7395 
       0.974128         178.333         39.2087 
       0.989692         171.779         37.7717 
        1.00528         171.522         36.4044 
        1.02113         168.617         35.0834 
        1.03692         164.712         33.8328 
        1.05264         161.619         32.6488 
        1.06832         161.126         31.5233 
        1.08405         156.657         30.4478 
        1.09979         155.242         29.4217 
        1.11537          152.78         28.4531 
        1.13105         149.827         27.5222 
        1.14679         148.384         26.6293 
        1.16256         145.244         25.7742 
        1.17828         143.837         24.9595 
        1.19395         140.218         24.1826 
         1.2097         139.313         23.4348 
        1.22537         138.222         22.7222 
          1.241         134.261         22.0413 
        1.25666         133.225         21.3865 
        1.27241         130.124         20.7553 
        1.28819          128.83         20.1483 
        1.30392         127.244         19.5674 
        1.31957         124.172         19.0119 
        1.33529         122.412         18.4759 
        1.35108         121.239         17.9584 
        1.36674         118.936         17.4644 
         1.3824          118.11         16.9893 
        1.39811         115.994         16.5303 
        1.41389         113.855         16.0865 
        1.42964         112.262         15.6597 
        1.44531         111.374         15.2504 
        1.46101         108.922         14.8548 
        1.47667         108.648         14.4744 
        1.49229         107.101         14.1083 
        1.50793          104.98         13.7545 
        1.52367         103.557         13.4104 
        1.53953         101.908         13.0758 
        1.55526         101.227         12.7552 
        1.57092         100.126         12.4467 
        1.58662         98.3256         12.1477 
        1.60235         96.9539         11.8578 
        1.61809         95.9011         11.5772 
        1.63369         94.2199         11.3082 
        1.64941         94.0115         11.0458 
        1.66519         92.4606         10.7907 
        1.68085         90.5644         10.5455 
        1.69652         89.8345         10.3078 
        1.71228         88.5929         10.0761 
        1.72806         87.9757         9.85124 
        1.74368         86.3122         9.63551 
        1.75933         85.6351         9.42579 
        1.77505         84.4171         9.22131 
        1.79081         83.1419         9.02252 
         1.8065         81.6965         8.83042 
        1.82218         80.9985         8.64406 
        1.83797         80.6291         8.46178 
        1.85367         78.9579         8.28575 
        1.86928         78.6161         8.11577 
        1.88497         77.2118         7.94961 
        1.90073          76.541         7.78747 
        1.91647         75.2923         7.62999 
        1.93218         74.4656         7.47718 
        1.94787         73.2079         7.32876 
        1.96363           72.62         7.18377 
        1.97935         72.0188         7.04299 
        1.99499         71.2873         6.90676 
        2.01064          69.637         6.77392 
         2.0264          69.156         6.64373 
        2.04216         67.9806         6.51701 
        2.05781         67.4245         6.39439 
        2.07353         66.6836         6.27447 
        2.08928         65.7958         6.15735 
        2.10499         64.9765         6.04353 
        2.12065         64.5689         5.93291 
        2.13633         63.6211         5.82496 
        2.15211         62.6524         5.71898 
        2.16785         61.6795         5.61593 
        2.18349          61.181         5.51605 
        2.19916         60.4581         5.41838 
        2.21489         59.6436         5.32275 
        2.23063          58.788         5.22935 
         2.2463          58.377          5.1386 
        2.26194         57.7912         5.05022 
        2.27765         57.0093         4.96346 
        2.29341         56.3682          4.8785 
        2.30914         55.7162          4.7957 
        2.32486         54.9795         4.71486 
        2.34061         54.2197         4.63574 
        2.35635         53.7558          4.5585 
        2.37203         52.9394         4.48328 
        2.38768         52.5289         4.40991 
        2.40339         51.9931          4.3379 
        2.41914         50.9795         4.26733 
        2.43483         50.8647         4.19857 
         2.4505          50.209         4.13144 
        2.46622          49.717         4.06553 
        2.48195         49.0784         4.00106 
        2.49759         48.5969         3.93832 
        2.51328         48.0652         3.87675 
        2.52906         47.5233         3.81611 
        2.54479         46.9369         3.75699 
        2.56049          46.143         3.69922 
        2.57618         45.7867         3.64272 
        2.59189         45.3411          3.5873 
        2.60758         44.7389         3.53313 
        2.62325         44.3488         3.48013 
        2.63898         44.0161         3.42802 
        2.65468         43.4101         3.37709 
        2.67044         42.9709         3.32698 
        2.68618         42.5414         3.27799 
        2.70184         42.0259         3.23017 
        2.71755         41.3108         3.18319 
        2.73329         41.0655         3.13707 
        2.74897          40.742           3.092 
        2.76462         40.2855         3.04792 
        2.78034         39.8466         3.00451 
        2.79607         39.2489          2.9619 
        2.81179         38.8561         2.92016 
        2.82749          38.574         2.87926 
        2.84321         38.2443          2.8391 
        2.85893         37.7282         2.79972 
        2.87462          37.162         2.76114 
        2.89033         36.7768         2.72325 
        2.90605         36.3867         2.68604 
        2.92176         36.1983         2.64954 
        2.93747         35.7359         2.61373 
        2.95318         35.3826         2.57858 
        2.96891         34.9548         2.54405 
        2.98456         34.7284          2.5103 
        3.00023         34.2576         2.47711 
        3.01596           33.88         2.44442 
        3.03164         33.5644         2.41241 
        3.04738         33.2161         2.38087 
         3.0631         33.0267         2.34991 
        3.07883         32.5475         2.31949 
        3.09456         32.2494         2.28962 
        3.11026         31.8044         2.26031 
        3.12596         31.5661         2.23152 
        3.14163         31.1984         2.20329 
        3.15734         30.9333         2.17548 
        3.17308         30.6387         2.14809 
        3.18879         30.3331         2.12123 
        3.20447         29.8847         2.09488 
         3.2202         29.6303         2.06889 
         3.2359          29.476         2.04338 
        3.25157         29.0633         2.01836 
        3.26729         28.8293         1.99368 
        3.28304         28.5599         1.96937 
        3.29877         28.1786         1.94549 
        3.31446         27.9237         1.92205 
        3.33014         27.6296         1.89902 
        3.34585         27.3224         1.87633 
        3.36158          27.161         1.85398 
        3.37727         26.8065         1.83206 
        3.39294         26.5834         1.81051 
        3.40867         26.3338         1.78923 
        3.42439         26.0931          1.7683 
        3.44008          25.849         1.74774 
        3.45578         25.5646         1.72749 
        3.47153         25.3878         1.70752 
        3.48724         25.0181          1.6879 
        3.50292          24.878         1.66863 
        3.51859         24.6535         1.64967 
        3.53431          24.373         1.63094 
        3.55007         24.0607         1.61246 
        3.56577         23.8355         1.59433 
        3.58146         23.6112         1.57649 
        3.59719         23.4685         1.55888 
        3.61292         23.2037         1.54155 
        3.62859         22.9974         1.52454 
        3.64429         22.7682         1.50775 
        3.66003         22.4966         1.49117 
        3.67578          22.335         1.47483 
        3.69146         22.1045         1.45881 
        3.70712         21.9703         1.44305 
        3.72284         21.7894         1.42746 
        3.73853         21.5807         1.41213 
        3.75422         21.3344         1.39701 
        3.76993         21.1861         1.38211 
        3.78564         20.9179         1.36742 
        3.80137         20.7481         1.35293 
        3.81707         20.5503         1.33867 
        3.83279         20.3368         1.32461 
        3.84853         20.2119         1.31073 
        3.86424         19.9751         1.29707 
        3.87992         19.7961         1.28362 
        3.89561          19.642         1.27036 
        3.91134         19.4325         1.25727 
        3.92704         19.2384         1.24437 
        3.94273          19.042         1.23166 
        3.95845         18.9314         1.21911 
        3.97418         18.7676         1.20673 
        3.98988         18.5754         1.19454 
        4.00554         18.3669         1.18254 
        4.02125         18.2547         1.17068 
        4.03698         18.0587         1.15896 
        4.05268         17.9306         1.14743 
        4.06839         17.7441         1.13604 
         4.0841         17.5689         1.12481 
        4.09983         17.4569         1.11372 
        4.11555         17.2988         1.10278 
        4.13124         17.1637         1.09202 
        4.14693         16.9759         1.08139 
        4.16266         16.8624         1.07087 
        4.17839         16.6985          1.0605 
        4.19408         16.5921         1.05029 
        4.20977          16.417         1.04022 
        4.22551         16.2961         1.03024 
        4.24123          16.129         1.02041 
        4.25691         16.0061         1.01074 
        4.27259         15.8607         1.00118 
        4.28831         15.7302        0.991729 
        4.30404         15.5664        0.982389 
        4.31974         15.4569         0.97319 
        4.33543          15.317        0.964113 
        4.35116         15.1938         0.95513 
        4.36688          15.039        0.946264 
        4.38255         14.9437        0.937543 
        4.39825         14.8131        0.928912 
        4.41398         14.6664        0.920372 
         4.4297          14.584        0.911948 
        4.44541          14.439         0.90363 
        4.46111         14.2673        0.895422 
        4.47683         14.1943         0.88731 
        4.49251         14.0596        0.879314 
        4.50819         13.9483        0.871418 
         4.5239         13.8826        0.863607 
        4.53962          13.713        0.855881 
        4.55535         13.6091        0.848246 
        4.57106         13.4969        0.840715 
        4.58678         13.3866        0.833273 
         4.6025         13.2782        0.825918 
        4.61821         13.1521        0.818654 
        4.63391         13.0391        0.811485 
         4.6496         12.9294        0.804405 
        4.66532         12.8227        0.797398 
        4.68103         12.7358        0.790477 
        4.69673         12.6324        0.783644 
        4.71241         12.5225        0.776899 
        4.72811         12.4199        0.770221 
        4.74384         12.3415        0.763613 
        4.75955         12.2099        0.757092 
        4.77525          12.104        0.750651 
        4.79096         12.0123        0.744276 
        4.80669         11.9128        0.737971 
         4.8224         11.8557        0.731747 
        4.83809          11.712          0.7256 
        4.85379         11.6365         0.71952 
         4.8695         11.5574        0.713505 
        4.88521         11.4628         0.70756 
        4.90093         11.3627        0.701682 
        4.91663         11.2883        0.695875 
        4.93234         11.2102        0.690128 
        4.94807          11.106        0.684441 
        4.96377         11.0436        0.678829 
        4.97943         10.9438        0.673291 
        4.99514         10.8392          0.6678 
        5.01086          10.744        0.662366 
        5.02654         10.7105        0.657006 
        5.04227          10.584         0.65169 
          5.058         10.5189        0.646429 
        5.07371         10.4618        0.641237 
        5.08942         10.3854          0.6361 
        5.10513         10.2766        0.631019 
        5.12084         10.2057         0.62599 
        5.13656         10.1135        0.621017 
        5.15225         10.0561        0.616106 
        5.16796         9.98658        0.611241 
        5.18369         9.89727        0.606423 
         5.1994         9.83427        0.601665 
        5.21509         9.75574        0.596962 
        5.23079         9.68195        0.592304 
        5.24649         9.57697        0.587699 
        5.26217         9.53782        0.583146 
        5.27788         9.46668        0.578634 
        5.29359         9.38615         0.57417 
        5.30933         9.31852        0.569745 
        5.32504         9.24796        0.565374 
        5.34073         9.19039        0.561054 
        5.35646         9.10694         0.55677 
        5.37218         9.04531         0.55253 
        5.38789         8.96098         0.54834 
        5.40357         8.90396        0.544198 
        5.41929         8.84923         0.54009 
        5.43502         8.78599        0.536023 
         5.4507          8.7165        0.532008 
        5.46639         8.64024        0.528033 
        5.48212         8.59873         0.52409 
        5.49786         8.52255        0.520181 
        5.51353         8.46328        0.516332 
        5.52921         8.41762        0.512517 
        5.54495          8.3563         0.50873 
        5.56066         8.28069        0.504985 
        5.57637         8.22691        0.501278 
        5.59207         8.14102        0.497611 
        5.60778          8.1236        0.493979 
        5.62346         8.05559        0.490388 
        5.63916         7.99024         0.48683 
        5.65487         7.94996        0.483304 
         5.6706         7.86717         0.47981 
        5.68633         7.81085        0.476348 
        5.70203         7.76743        0.472928 
        5.71773          7.7145        0.469541 
        5.73344         7.65021        0.466186 
        5.74916         7.60587         0.46286 
        5.76486         7.54604        0.459571 
        5.78054         7.50518        0.456319 
        5.79626         7.43649        0.453089 
          5.812          7.3907        0.449887 
         5.8277          7.3372        0.446725 
        5.84339         7.27715        0.443593 
        5.85911         7.24493        0.440485 
        5.87484         7.19844        0.437408 
        5.89053          7.1451        0.434365 
        5.90623         7.09679         0.43135 
        5.92195         7.03214        0.428358 
        5.93767           7.004        0.425397 
        5.95336         6.94324        0.422467 
        5.96905         6.89348        0.419567 
        5.98476         6.86555        0.416689 
        6.00048         6.80725        0.413838 
        6.01617         6.76255        0.411016 
        6.03185         6.71671        0.408225 
        6.04756          6.6624        0.405452 
        6.06331         6.62708        0.402699 
        6.07903         6.58423        0.399977 
        6.09473         6.52573        0.397283 
        6.11044          6.4968        0.394611 
        6.12616         6.45962        0.391964 
        6.14186         6.41122        0.389344 
        6.15755         6.37528        0.386747 
        6.17326         6.33943        0.384173 
        6.18898         6.27225         0.38162 
        6.20467         6.24555        0.379095 
        6.22036         6.18882        0.376593 
         6.2361         6.16543        0.374107 
         6.2518         6.11541        0.371647 
        6.26748         6.08568        0.369214 
        6.28319         6.04059        0.366796 
        6.29893         6.00094        0.364398 
        6.31463         5.96114        0.362025 
        6.33033         5.91957        0.359674 
        6.34604         5.88889        0.357342 
        6.36177         5.85002        0.355029 
        6.37747         5.80683         0.35274 
