# k  (h/Mpc)    Pcb(k)  (Mpc/h)^3    Pcb_linear(k) (Mpc/h)^3   ShotnoiseSubtracted = true
      0.0200456         13749.3         13994.1 
      0.0350414          9039.7         9303.76 
      0.0492313         6598.21         6652.62 
      0.0637834         5602.03         5479.22 
      0.0800726         4188.64         4064.32 
       0.096163         2840.01         2865.03 
       0.111083         2332.98          2377.4 
       0.126058         2131.54         2087.27 
       0.142273         1759.06         1646.38 
       0.158546         1471.59         1294.78 
        0.17375         1205.25          1144.2 
       0.188953         1156.12         1020.43 
       0.204907         1054.87         852.536 
       0.220756          896.32         721.315 
        0.23588         797.879         650.609 
         0.2514         692.473         586.007 
       0.267535         666.763         509.644 
       0.283568         602.527         448.474 
       0.299022         564.279         408.143 
       0.314451         529.426         371.639 
       0.330372         485.666         333.068 
       0.346141         439.656         300.875 
       0.361624         423.974         276.229 
       0.377134         391.609         253.955 
       0.392932         370.979          232.08 
       0.408854         355.846         212.802 
       0.424564         335.794         196.811 
       0.440253         325.876          182.37 
       0.455999         305.266         168.836 
       0.471626         286.488          156.78 
        0.48727         275.553         146.161 
       0.502856         266.463         136.541 
       0.518488         263.226         127.611 
       0.534347         246.774         119.365 
       0.550082         232.427         111.975 
       0.565732         228.466         105.249 
       0.581496         215.679         98.9861 
       0.597222         210.789          93.239 
       0.612804         203.811          88.017 
       0.628434          195.58         83.1784 
       0.644267          189.29         78.6421 
       0.660051          186.55         74.4551 
       0.675724         182.104         70.5981 
       0.691403         176.664         67.0122 
       0.707174         169.606         63.6559 
       0.722871         167.375          60.543 
        0.73838         163.646         57.6714 
       0.754018         159.323         54.9642 
       0.769845         153.846         52.4008 
        0.78569         152.192         49.9981 
       0.801365          146.74         47.7691 
       0.817031         142.277          45.677 
       0.832809         140.483         43.6966 
       0.848511         136.178          41.842 
       0.864097         134.366         40.1076 
       0.879701         131.226         38.4695 
       0.895507          127.71         36.9034 
       0.911279         124.482         35.4276 
        0.92691          124.04         34.0445 
       0.942635         120.251         32.7276 
       0.958396         120.056         31.4774 
       0.974128         116.691         30.2946 
       0.989692         113.858         29.1843 
        1.00528          111.75         28.1279 
        1.02113         110.776         27.1072 
        1.03692         106.987         26.1409 
        1.05264         105.606         25.2261 
        1.06832         103.411         24.3565 
        1.08405         101.803         23.5255 
        1.09979         101.367         22.7327 
        1.11537         98.1097         21.9843 
        1.13105         97.3758          21.265 
        1.14679         96.3743         20.5751 
        1.16256         94.9392         19.9145 
        1.17828         92.8638          19.285 
        1.19395         91.0668         18.6847 
         1.2097         89.5987         18.1069 
        1.22537          89.032         17.5563 
          1.241         87.2127         17.0302 
        1.25666         85.5071         16.5243 
        1.27241         84.1472         16.0366 
        1.28819         82.9291         15.5676 
        1.30392         81.5521         15.1188 
        1.31957         80.6759         14.6896 
        1.33529         78.9432         14.2754 
        1.35108         78.1449         13.8756 
        1.36674         77.5122         13.4938 
         1.3824         75.8474         13.1268 
        1.39811         74.8758         12.7722 
        1.41389         73.8966         12.4292 
        1.42964         72.5126         12.0995 
        1.44531         71.2464         11.7832 
        1.46101         70.1957         11.4776 
        1.47667         70.1869         11.1837 
        1.49229         68.7516         10.9008 
        1.50793         68.2076         10.6274 
        1.52367          66.961         10.3616 
        1.53953         65.9098          10.103 
        1.55526          65.456         9.85534 
        1.57092         64.9869         9.61697 
        1.58662         63.3581         9.38589 
        1.60235          63.153         9.16194 
        1.61809         62.1641         8.94516 
        1.63369          61.432         8.73729 
        1.64941          60.926         8.53453 
        1.66519         59.2453         8.33746 
        1.68085         59.1489         8.14799 
        1.69652         57.8886         7.96433 
        1.71228         57.7303         7.78528 
        1.72806         56.9838         7.61157 
        1.74368         56.2076         7.44488 
        1.75933         55.3255         7.28284 
        1.77505         54.9715         7.12485 
        1.79081         54.1253         6.97125 
         1.8065         53.4053         6.82282 
        1.82218         52.8044         6.67883 
        1.83797         52.2526           6.538 
        1.85367         51.7855         6.40199 
        1.86928         51.1257         6.27065 
        1.88497          50.491         6.14227 
        1.90073         49.6677         6.01699 
        1.91647         49.5423         5.89531 
        1.93218         48.8839         5.77724 
        1.94787         48.1422         5.66257 
        1.96363         47.5892         5.55054 
        1.97935         47.2186         5.44177 
        1.99499         46.5762         5.33651 
        2.01064         46.1986         5.23387 
         2.0264         45.1541         5.13328 
        2.04216         45.0516         5.03537 
        2.05781         44.4735         4.94063 
        2.07353          43.815         4.84797 
        2.08928         43.4664         4.75748 
        2.10499         42.9071         4.66953 
        2.12065         42.4628         4.58407 
        2.13633           42.11         4.50065 
        2.15211         41.8561         4.41877 
        2.16785         41.2684         4.33915 
        2.18349           40.86         4.26198 
        2.19916         40.2906         4.18652 
        2.21489         39.9717         4.11262 
        2.23063         39.4842         4.04046 
         2.2463         39.0247         3.97034 
        2.26194         38.4279         3.90205 
        2.27765         38.2043         3.83502 
        2.29341         37.6236         3.76938 
        2.30914          37.156          3.7054 
        2.32486         36.5322         3.64294 
        2.34061         36.4778         3.58181 
        2.35635         35.8884         3.52213 
        2.37203         35.5999         3.46401 
        2.38768         35.2447         3.40732 
        2.40339         34.9312         3.35168 
        2.41914         34.5478         3.29715 
        2.43483         34.1401         3.24403 
         2.4505         33.8389         3.19216 
        2.46622         33.4531         3.14124 
        2.48195         33.0721         3.09142 
        2.49759         32.7034         3.04294 
        2.51328         32.3285         2.99537 
        2.52906         32.0111         2.94852 
        2.54479         31.6095         2.90284 
        2.56049         31.2441         2.85821 
        2.57618         30.9912         2.81455 
        2.59189         30.6156         2.77173 
        2.60758         30.4642         2.72987 
        2.62325         30.0299         2.68892 
        2.63898         29.7057         2.64866 
        2.65468         29.3192         2.60931 
        2.67044         28.9964         2.57059 
        2.68618          28.819         2.53274 
        2.70184          28.514          2.4958 
        2.71755         28.2949         2.45949 
        2.73329         27.9828         2.42386 
        2.74897         27.6105         2.38904 
        2.76462         27.3016         2.35498 
        2.78034         27.1791         2.32144 
        2.79607         26.8732         2.28851 
        2.81179         26.6161         2.25626 
        2.82749         26.2545         2.22466 
        2.84321         26.0277         2.19363 
        2.85893         25.7835          2.1632 
        2.87462         25.4554          2.1334 
        2.89033         25.2055         2.10412 
        2.90605         25.0822         2.07537 
        2.92176         24.8402         2.04717 
        2.93747         24.6133          2.0195 
        2.95318         24.2706         1.99234 
        2.96891         24.0421         1.96566 
        2.98456         23.8024         1.93959 
        3.00023         23.5086         1.91394 
        3.01596         23.2835         1.88868 
        3.03164         23.1934         1.86395 
        3.04738         22.8845         1.83958 
         3.0631         22.6809         1.81566 
        3.07883         22.4859         1.79216 
        3.09456          22.209         1.76907 
        3.11026         22.0396         1.74643 
        3.12596          21.818         1.72418 
        3.14163         21.6059         1.70237 
        3.15734         21.4495         1.68089 
        3.17308         21.1147         1.65972 
        3.18879          21.061         1.63897 
        3.20447         20.7885         1.61861 
         3.2202          20.548         1.59852 
         3.2359         20.3605         1.57882 
        3.25157         20.2243         1.55949 
        3.26729         20.0542         1.54042 
        3.28304         19.7969         1.52163 
        3.29877         19.6251         1.50318 
        3.31446         19.3922         1.48507 
        3.33014         19.1828         1.46728 
        3.34585         19.1175         1.44975 
        3.36158         18.8666         1.43248 
        3.37727         18.6597         1.41554 
        3.39294         18.5648         1.39889 
        3.40867          18.336         1.38245 
        3.42439         18.1672         1.36627 
        3.44008          18.049         1.35039 
        3.45578         17.8264         1.33475 
        3.47153         17.6605         1.31932 
        3.48724         17.5155         1.30416 
        3.50292         17.4266         1.28927 
        3.51859         17.1846         1.27462 
        3.53431         17.0536         1.26015 
        3.55007           16.83         1.24587 
        3.56577         16.7138         1.23186 
        3.58146         16.5613         1.21808 
        3.59719         16.3804         1.20447 
        3.61292         16.2925         1.19108 
        3.62859         16.0922         1.17793 
        3.64429         15.9682         1.16496 
        3.66003         15.8468         1.15215 
        3.67578         15.6853         1.13953 
        3.69146         15.6002         1.12715 
        3.70712         15.4536         1.11497 
        3.72284         15.2539         1.10293 
        3.73853         15.1655         1.09108 
        3.75422         15.0229          1.0794 
        3.76993         14.8494         1.06789 
        3.78564         14.7089         1.05654 
        3.80137         14.6064         1.04534 
        3.81707         14.4992         1.03433 
        3.83279         14.3215         1.02346 
        3.84853         14.1797         1.01273 
        3.86424         14.0822         1.00218 
        3.87992         13.9751         0.99179 
        3.89561          13.814        0.981548 
        3.91134         13.7616        0.971428 
        3.92704         13.5798        0.961462 
        3.94273         13.4698        0.951644 
        3.95845         13.3514        0.941946 
        3.97418         13.2685        0.932379 
        3.98988         13.1233        0.922958 
        4.00554         13.0036        0.913692 
        4.02125         12.9107        0.904526 
        4.03698         12.8089        0.895471 
        4.05268           12.66         0.88656 
        4.06839         12.5405        0.877762 
         4.0841         12.5102        0.869087 
        4.09983         12.3367        0.860515 
        4.11555         12.2743        0.852063 
        4.13124         12.1547        0.843746 
        4.14693         12.0514        0.835533 
        4.16266         11.9391        0.827409 
        4.17839         11.8392        0.819398 
        4.19408         11.7106        0.811511 
        4.20977          11.658        0.803723 
        4.22551         11.5085        0.796018 
        4.24123          11.445        0.788422 
        4.25691         11.3365        0.780945 
        4.27259         11.2513        0.773562 
        4.28831          11.127        0.766259 
        4.30404         11.0497        0.759044 
        4.31974         10.9737        0.751936 
        4.33543         10.8804        0.744923 
        4.35116         10.7808        0.737981 
        4.36688         10.7015        0.731131 
        4.38255         10.6018        0.724393 
        4.39825         10.5246        0.717724 
        4.41398           10.41        0.711126 
         4.4297         10.3341        0.704617 
        4.44541           10.25         0.69819 
        4.46111         10.1877        0.691848 
        4.47683         10.0704         0.68558 
        4.49251         9.98948        0.679402 
        4.50819         9.93968        0.673301 
         4.5239         9.84404        0.667266 
        4.53962         9.77556        0.661297 
        4.55535         9.67901        0.655398 
        4.57106         9.60168        0.649579 
        4.58678         9.51582        0.643828 
         4.6025         9.45444        0.638146 
        4.61821           9.371        0.632533 
        4.63391         9.30268        0.626994 
         4.6496         9.23385        0.621524 
        4.66532         9.14301         0.61611 
        4.68103          9.0661        0.610762 
        4.69673         9.00293        0.605483 
        4.71241         8.91967        0.600271 
        4.72811          8.8565        0.595112 
        4.74384         8.79744        0.590006 
        4.75955         8.68942        0.584968 
        4.77525          8.6474         0.57999 
        4.79096         8.58034        0.575065 
        4.80669         8.53118        0.570194 
         4.8224         8.46492        0.565385 
        4.83809         8.38895        0.560635 
        4.85379            8.31        0.555938 
         4.8695         8.28952         0.55129 
        4.88521         8.18776        0.546696 
        4.90093         8.13082        0.542155 
        4.91663         8.05478        0.537668 
        4.93234           8.005        0.533227 
        4.94807         7.94469        0.528834 
        4.96377         7.89104        0.524497 
        4.97943         7.84002        0.520219 
        4.99514         7.77697        0.515976 
        5.01086         7.71051        0.511778 
        5.02654         7.64221        0.507636 
        5.04227         7.59657        0.503528 
          5.058         7.53429        0.499464 
        5.07371         7.49435        0.495452 
        5.08942         7.42521        0.491483 
        5.10513         7.36855        0.487557 
        5.12084          7.3204        0.483672 
        5.13656         7.25876        0.479829 
        5.15225         7.20529        0.476035 
        5.16796         7.16047        0.472275 
        5.18369         7.09145        0.468553 
         5.1994          7.0548        0.464877 
        5.21509         6.98943        0.461243 
        5.23079         6.94712        0.457644 
        5.24649         6.87248        0.454086 
        5.26217         6.82873        0.450568 
        5.27788         6.78744        0.447082 
        5.29359         6.74114        0.443632 
        5.30933         6.68811        0.440214 
        5.32504         6.63345        0.436837 
        5.34073         6.59238        0.433499 
        5.35646         6.53496        0.430188 
        5.37218         6.49872        0.426912 
        5.38789         6.44877        0.423675 
        5.40357          6.4185        0.420475 
        5.41929         6.34879        0.417301 
        5.43502         6.31538        0.414159 
         5.4507         6.27559        0.411056 
        5.46639         6.22886        0.407985 
        5.48212         6.18673        0.404938 
        5.49786         6.13271        0.401918 
        5.51353         6.08962        0.398944 
        5.52921         6.06783        0.395997 
        5.54495         6.01871         0.39307 
        5.56066          5.9661        0.390177 
        5.57637         5.92254        0.387312 
        5.59207         5.88418        0.384479 
        5.60778         5.84366        0.381673 
        5.62346         5.80747        0.378899 
        5.63916          5.7565        0.376149 
        5.65487         5.71651        0.373425 
         5.6706         5.68078        0.370725 
        5.68633         5.64074        0.368051 
        5.70203         5.59407        0.365408 
        5.71773          5.5679        0.362791 
        5.73344         5.53824        0.360199 
        5.74916         5.49167        0.357629 
        5.76486         5.45533        0.355088 
        5.78054         5.42086        0.352575 
        5.79626          5.3841        0.350079 
          5.812         5.34869        0.347605 
         5.8277         5.31785        0.345162 
        5.84339         5.27161        0.342742 
        5.85911         5.22938        0.340341 
        5.87484         5.21518        0.337963 
        5.89053          5.1586        0.335612 
        5.90623         5.12633        0.333283 
        5.92195          5.0935        0.330971 
        5.93767         5.05912        0.328683 
        5.95336         5.02493         0.32642 
        5.96905         4.99366        0.324179 
        5.98476         4.97569        0.321955 
        6.00048         4.93377        0.319752 
        6.01617         4.90538        0.317572 
        6.03185         4.86994        0.315415 
        6.04756         4.84636        0.313273 
        6.06331         4.81494        0.311146 
        6.07903         4.77427        0.309043 
        6.09473         4.74557        0.306961 
        6.11044         4.70495        0.304896 
        6.12616         4.68215        0.302851 
        6.14186         4.65329        0.300827 
        6.15755         4.62537        0.298821 
        6.17326          4.5838        0.296831 
        6.18898         4.55471        0.294859 
        6.20467          4.5336        0.292908 
        6.22036         4.50606        0.290975 
         6.2361         4.46838        0.289054 
         6.2518         4.45263        0.287153 
        6.26748         4.41891        0.285273 
        6.28319         4.38707        0.283405 
        6.29893         4.36229        0.281552 
        6.31463         4.33603        0.279719 
        6.33033         4.30885        0.277902 
        6.34604         4.27775        0.276101 
        6.36177         4.26007        0.274313 
        6.37747         4.23125        0.272544 
