# k  (h/Mpc)    Pcb(k)  (Mpc/h)^3    Pcb_linear(k) (Mpc/h)^3   ShotnoiseSubtracted = true
      0.0200456         16098.6         16358.3 
      0.0350414         12236.4         11891.9 
      0.0492313         8511.63         8640.45 
      0.0637834         6872.74         7182.73 
      0.0800726         5404.62         5700.75 
       0.096163          4288.5         4136.39 
       0.111083         3489.93         3299.29 
       0.126058         2894.49         2923.85 
       0.142273         2514.87         2477.14 
       0.158546         2065.87         1956.42 
        0.17375         1823.93         1648.28 
       0.188953          1707.8         1492.48 
       0.204907          1463.8         1320.54 
       0.220756         1316.81         1117.26 
        0.23588         1173.42         971.919 
         0.2514         1054.06         882.979 
       0.267535         1022.39         798.944 
       0.283568         900.144         704.561 
       0.299022         859.691         627.728 
       0.314451         883.745         573.701 
       0.330372         764.735         526.306 
       0.346141         705.746         477.703 
       0.361624         676.318         434.166 
       0.377134         641.264         399.502 
       0.392932         617.541         369.651 
       0.408854         588.768         340.747 
       0.424564         572.395         314.071 
       0.440253         522.942          291.18 
       0.455999         500.797         271.276 
       0.471626         508.445         252.984 
        0.48727         480.325         235.873 
       0.502856         448.167         220.501 
       0.518488         445.233         206.785 
       0.534347         417.861         194.035 
       0.550082         401.539         182.278 
       0.565732          398.59         171.522 
       0.581496         386.414         161.671 
       0.597222         375.391         152.637 
       0.612804         366.439         144.329 
       0.628434         351.926         136.586 
       0.644267         338.474         129.347 
       0.660051         333.845         122.675 
       0.675724         328.413         116.514 
       0.691403         320.552         110.771 
       0.707174         308.428         105.383 
       0.722871         303.634         100.374 
        0.73838         299.943         95.7449 
       0.754018         288.121         91.3726 
       0.769845         286.834         87.2258 
        0.78569         280.211         83.3329 
       0.801365         272.158         79.7163 
       0.817031         268.231         76.3177 
       0.832809         263.541         73.0966 
       0.848511         256.951         70.0767 
       0.864097         250.781         67.2491 
       0.879701         249.535         64.5755 
       0.895507         242.954         62.0164 
       0.911279         236.498         59.6019 
        0.92691         234.119         57.3366 
       0.942635         232.286         55.1771 
       0.958396         226.087         53.1246 
       0.974128         222.805         51.1808 
       0.989692         215.071         49.3539 
        1.00528         214.643         47.6138 
        1.02113         211.223         45.9307 
        1.03692         206.461         44.3355 
        1.05264         203.149         42.8237 
        1.06832         202.779          41.385 
        1.08405         196.937         40.0089 
        1.09979         195.635         38.6948 
        1.11537         191.656         37.4529 
        1.13105         188.407         36.2584 
        1.14679         186.586         35.1116 
        1.16256         183.797         34.0123 
        1.17828          181.73         32.9638 
        1.19395         176.922         31.9633 
         1.2097         176.121         30.9994 
        1.22537         174.731         30.0799 
          1.241         170.198         29.2007 
        1.25666         168.193         28.3546 
        1.27241         164.496         27.5382 
        1.28819         163.063         26.7526 
        1.30392         160.789              26 
        1.31957         156.989         25.2799 
        1.33529         155.244         24.5844 
        1.35108         153.568         23.9125 
        1.36674         150.849         23.2705 
         1.3824         149.934         22.6528 
        1.39811         146.745         22.0555 
        1.41389         144.574         21.4776 
        1.42964         142.535         20.9213 
        1.44531         141.117         20.3876 
        1.46101         138.137         19.8714 
        1.47667         137.837         19.3746 
        1.49229         135.568         18.8962 
        1.50793         133.079         18.4335 
        1.52367         131.523         17.9833 
        1.53953           129.2         17.5451 
        1.55526         128.671         17.1251 
        1.57092         126.889         16.7206 
        1.58662         124.348         16.3283 
        1.60235         122.883         15.9478 
        1.61809          121.58         15.5793 
        1.63369         119.581         15.2257 
        1.64941         118.965         14.8806 
        1.66519         116.997         14.5449 
        1.68085         114.881          14.222 
        1.69652          113.91         13.9089 
        1.71228         112.902         13.6034 
        1.72806          111.46         13.3069 
        1.74368         109.628         13.0222 
        1.75933         108.792         12.7453 
        1.77505         106.782         12.4751 
        1.79081         105.514         12.2123 
         1.8065         103.665         11.9583 
        1.82218         102.623         11.7117 
        1.83797         102.239         11.4703 
        1.85367         100.178         11.2371 
        1.86928         99.7424         11.0119 
        1.88497         97.9033         10.7915 
        1.90073         97.1863         10.5764 
        1.91647         95.4958         10.3674 
        1.93218         94.3488         10.1644 
        1.94787          93.035         9.96723 
        1.96363         92.2029         9.77449 
        1.97935         91.2893         9.58725 
        1.99499         90.4458         9.40598 
        2.01064         88.3294         9.22914 
         2.0264         87.8385         9.05574 
        2.04216         86.0854         8.88689 
        2.05781         85.6713         8.72342 
        2.07353          84.565         8.56347 
        2.08928         83.3498          8.4072 
        2.10499         82.2964         8.25525 
        2.12065         81.8979         8.10752 
        2.13633         80.7999         7.96327 
        2.15211         79.4632         7.82161 
        2.16785         78.3219          7.6838 
        2.18349         77.3846         7.55017 
        2.19916          76.543         7.41945 
        2.21489         75.6208         7.29139 
        2.23063         74.6255         7.16627 
         2.2463         74.1746         7.04465 
        2.26194         73.1169         6.92616 
        2.27765          72.264         6.80979 
        2.29341         71.4343         6.69579 
        2.30914         70.5866         6.58464 
        2.32486         69.0443         6.47608 
        2.34061         68.7359         6.36978 
        2.35635         67.9555         6.26597 
        2.37203         66.9324         6.16484 
        2.38768          66.332         6.06614 
        2.40339         65.5784         5.96926 
        2.41914         64.5346         5.87426 
        2.43483         64.1592         5.78167 
         2.4505         63.2078         5.69123 
        2.46622         62.7765         5.60242 
        2.48195         61.8248         5.51549 
        2.49759         61.1599         5.43088 
        2.51328         60.4872         5.34782 
        2.52906         59.7798         5.26598 
        2.54479         59.0812         5.18615 
        2.56049         58.3645         5.10814 
        2.57618         57.5937         5.03179 
        2.59189          57.193          4.9569 
        2.60758         56.3934         4.88364 
        2.62325         55.8272         4.81196 
        2.63898         55.2391         4.74147 
        2.65468         54.6774         4.67253 
        2.67044         54.0823         4.60468 
        2.68618          53.572         4.53833 
        2.70184         52.8021         4.47355 
        2.71755          52.096         4.40987 
        2.73329         51.7566         4.34734 
        2.74897         51.3102         4.28622 
        2.76462          50.829         4.22642 
        2.78034         50.1353          4.1675 
        2.79607         49.3582         4.10966 
        2.81179         48.8879         4.05297 
        2.82749         48.5047         3.99742 
        2.84321         48.1164         3.94284 
        2.85893         47.5198         3.88931 
        2.87462         46.7896         3.83686 
        2.89033         46.3629         3.78532 
        2.90605         45.7957         3.73469 
        2.92176         45.4572         3.68502 
        2.93747         44.9179         3.63627 
        2.95318         44.4644         3.58839 
        2.96891         43.9575         3.54135 
        2.98456         43.6079         3.49537 
        3.00023         42.9078         3.45013 
        3.01596         42.6447         3.40556 
        3.03164          42.138          3.3619 
        3.04738         41.7322         3.31887 
         3.0631         41.4351         3.27662 
        3.07883         40.9083          3.2351 
        3.09456          40.454          3.1943 
        3.11026         40.0019         3.15427 
        3.12596         39.6178         3.11493 
        3.14163         39.2354         3.07636 
        3.15734         38.8628         3.03834 
        3.17308         38.5747         3.00088 
        3.18879         38.1555         2.96415 
        3.20447         37.6218         2.92809 
         3.2202         37.2773         2.89252 
         3.2359         37.0104          2.8576 
        3.25157         36.4907         2.82334 
        3.26729         36.2556         2.78954 
        3.28304          35.924         2.75623 
        3.29877         35.3897          2.7235 
        3.31446         35.1646         2.69138 
        3.33014         34.7182          2.6598 
        3.34585         34.3176         2.62868 
        3.36158         34.0543         2.59801 
        3.37727         33.6974         2.56793 
        3.39294         33.3614         2.53835 
        3.40867         33.1214         2.50913 
        3.42439         32.7298         2.48039 
        3.44008         32.4754         2.45215 
        3.45578         32.1248         2.42433 
        3.47153         31.9303         2.39689 
        3.48724         31.5183         2.36991 
        3.50292           31.27         2.34341 
        3.51859         30.9686         2.31733 
        3.53431         30.6926         2.29157 
        3.55007         30.2124         2.26613 
        3.56577         30.0736         2.24119 
        3.58146          29.747         2.21662 
        3.59719          29.473         2.19237 
        3.61292          29.288         2.16849 
        3.62859         28.9011         2.14506 
        3.64429         28.6375         2.12192 
        3.66003          28.386         2.09906 
        3.67578         28.1589         2.07654 
        3.69146         27.9604         2.05444 
        3.70712         27.5538          2.0327 
        3.72284         27.3823         2.01119 
        3.73853         27.1773         1.99003 
        3.75422         26.9246         1.96917 
        3.76993         26.6272         1.94859 
        3.78564         26.3657         1.92831 
        3.80137         26.2013         1.90828 
        3.81707         25.9007         1.88859 
        3.83279         25.6184         1.86915 
        3.84853         25.4532         1.84996 
        3.86424         25.0629         1.83107 
        3.87992         24.8886         1.81248 
        3.89561         24.7716         1.79414 
        3.91134         24.4635         1.77602 
        3.92704         24.2276         1.75817 
        3.94273         23.9593         1.74058 
        3.95845         23.8263          1.7232 
        3.97418         23.6159         1.70606 
        3.98988         23.4036         1.68917 
        4.00554         23.1354         1.67255 
        4.02125         22.9722         1.65611 
        4.03698         22.7679         1.63987 
        4.05268         22.5566         1.62388 
        4.06839         22.3522         1.60809 
         4.0841         22.1798         1.59252 
        4.09983         21.9157         1.57713 
        4.11555         21.7766         1.56195 
        4.13124         21.6554         1.54702 
        4.14693         21.4405         1.53226 
        4.16266         21.2248         1.51766 
        4.17839         21.0642         1.50327 
        4.19408         20.8113         1.48909 
        4.20977         20.6933         1.47509 
        4.22551         20.5398         1.46123 
        4.24123          20.315         1.44757 
        4.25691         20.1701         1.43411 
        4.27259          20.007         1.42083 
        4.28831          19.817         1.40769 
        4.30404         19.6099          1.3947 
        4.31974          19.474          1.3819 
        4.33543         19.3508         1.36927 
        4.35116         19.1652         1.35677 
        4.36688         18.9923         1.34442 
        4.38255         18.8004         1.33228 
        4.39825         18.6981         1.32026 
        4.41398         18.5062         1.30837 
         4.4297         18.3994         1.29663 
        4.44541         18.2014         1.28504 
        4.46111         17.9822          1.2736 
        4.47683         17.8679          1.2623 
        4.49251         17.7772         1.25115 
        4.50819         17.6139         1.24014 
         4.5239         17.4758         1.22924 
        4.53962         17.3717         1.21847 
        4.55535         17.1838         1.20782 
        4.57106         17.0771         1.19731 
        4.58678         16.8932         1.18692 
         4.6025          16.715         1.17665 
        4.61821         16.6524         1.16651 
        4.63391         16.4791          1.1565 
         4.6496         16.3638         1.14661 
        4.66532         16.2172         1.13682 
        4.68103         16.1001         1.12715 
        4.69673         15.9559          1.1176 
        4.71241         15.8732         1.10817 
        4.72811         15.7103         1.09883 
        4.74384         15.5595         1.08959 
        4.75955         15.4499         1.08047 
        4.77525         15.3398         1.07146 
        4.79096          15.212         1.06254 
        4.80669         15.1066         1.05372 
         4.8224         14.9876         1.04501 
        4.83809         14.8415         1.03641 
        4.85379         14.7341          1.0279 
         4.8695         14.6445         1.01947 
        4.88521         14.4997         1.01115 
        4.90093         14.3712         1.00291 
        4.91663         14.2889        0.994776 
        4.93234         14.1658        0.986723 
        4.94807         14.0687        0.978753 
        4.96377          13.958        0.970886 
        4.97943         13.8689        0.963122 
        4.99514         13.7362        0.955423 
        5.01086         13.6478        0.947802 
        5.02654         13.5295        0.940284 
        5.04227         13.4352        0.932825 
          5.058         13.3153        0.925443 
        5.07371         13.2267        0.918156 
        5.08942         13.1209        0.910946 
        5.10513         13.0236        0.903813 
        5.12084         12.9393        0.896752 
        5.13656         12.8369        0.889768 
        5.15225         12.7325        0.882871 
        5.16796         12.6258        0.876035 
        5.18369         12.5279        0.869266 
         5.1994         12.4384         0.86258 
        5.21509         12.3493        0.855971 
        5.23079         12.2575        0.849423 
        5.24649         12.1744        0.842948 
        5.26217         12.0799        0.836546 
        5.27788          11.972        0.830201 
        5.29359         11.8889         0.82392 
        5.30933         11.8176        0.817696 
        5.32504         11.7177        0.811546 
        5.34073         11.6512        0.805466 
        5.35646         11.5804        0.799436 
        5.37218         11.4679        0.793466 
        5.38789         11.3741        0.787567 
        5.40357         11.2988        0.781735 
        5.41929         11.2163        0.775949 
        5.43502         11.1382        0.770221 
         5.4507         11.0561        0.764564 
        5.46639         10.9521        0.758964 
        5.48212         10.8962        0.753406 
        5.49786         10.8281        0.747897 
        5.51353         10.7425        0.742471 
        5.52921         10.6797        0.737092 
        5.54495         10.5822        0.731752 
        5.56066         10.4963         0.72647 
        5.57637         10.4482        0.721241 
        5.59207         10.3683        0.716068 
        5.60778         10.2913        0.710943 
        5.62346         10.2067        0.705876 
        5.63916         10.1433        0.700853 
        5.65487         10.0818        0.695877 
         5.6706         9.99781        0.690943 
        5.68633         9.91318        0.686055 
        5.70203         9.85553        0.681225 
        5.71773         9.76636        0.676442 
        5.73344         9.72529        0.671702 
        5.74916         9.66237        0.667003 
        5.76486         9.59845        0.662355 
        5.78054         9.52251        0.657759 
        5.79626          9.4621        0.653194 
          5.812         9.39182        0.648667 
         5.8277         9.32793        0.644196 
        5.84339         9.23744        0.639768 
        5.85911         9.19685        0.635372 
        5.87484         9.11786        0.631019 
        5.89053         9.05729        0.626715 
        5.90623         9.01795        0.622449 
        5.92195         8.94594        0.618215 
        5.93767          8.8867        0.614024 
        5.95336         8.80796        0.609877 
        5.96905         8.76643        0.605771 
        5.98476         8.69094        0.601697 
        6.00048         8.63936        0.597659 
        6.01617         8.58278        0.593663 
        6.03185         8.53691        0.589708 
        6.04756         8.47266         0.58578 
        6.06331         8.41708         0.58188 
        6.07903         8.35588        0.578023 
        6.09473         8.29267        0.574205 
        6.11044         8.24258        0.570417 
        6.12616         8.19929        0.566665 
        6.14186         8.15386         0.56295 
        6.15755          8.0947        0.559268 
        6.17326         8.01833        0.555616 
        6.18898         7.98206        0.551996 
        6.20467         7.92564        0.548414 
        6.22036         7.86495        0.544864 
         6.2361          7.8196        0.541336 
         6.2518          7.7686        0.537845 
        6.26748          7.7151        0.534392 
        6.28319         7.68429         0.53096 
        6.29893         7.62733        0.527555 
        6.31463         7.56082        0.524186 
        6.33033         7.51435        0.520847 
        6.34604         7.46499        0.517535 
        6.36177         7.43356        0.514249 
        6.37747         7.37403        0.510997 
