# k  (h/Mpc)    Pcb(k)  (Mpc/h)^3    Pcb_linear(k) (Mpc/h)^3   ShotnoiseSubtracted = true
      0.0200456         23109.2         23524.2 
      0.0350414           17647         17101.3 
      0.0492313           12139         12425.5 
      0.0637834         9783.64         10329.2 
      0.0800726         7674.58         8198.01 
       0.096163         6184.52         5948.37 
       0.111083         5037.24         4744.57 
       0.126058         4161.69         4204.66 
       0.142273         3651.67         3562.27 
       0.158546         2996.04         2813.45 
        0.17375         2685.23         2370.33 
       0.188953         2552.18         2146.28 
       0.204907         2196.33         1899.02 
       0.220756         1988.43         1606.68 
        0.23588         1775.59         1397.67 
         0.2514         1610.89         1269.77 
       0.267535         1552.49         1148.93 
       0.283568         1386.85          1013.2 
       0.299022         1321.66         902.708 
       0.314451         1378.07         825.014 
       0.330372         1223.48         756.858 
       0.346141         1123.43         686.964 
       0.361624         1077.91         624.356 
       0.377134         1035.31         574.506 
       0.392932         985.368         531.579 
       0.408854         946.278         490.013 
       0.424564          926.51         451.652 
       0.440253         861.295         418.734 
       0.455999         823.526          390.11 
       0.471626         837.102         363.805 
        0.48727         790.604         339.199 
       0.502856         761.879         317.093 
       0.518488         737.076         297.369 
       0.534347          709.91         279.033 
       0.550082         677.045         262.126 
       0.565732         666.494         246.658 
       0.581496         652.378         232.492 
       0.597222         639.754           219.5 
       0.612804         623.945         207.554 
       0.628434         598.385         196.418 
       0.644267         582.312         186.008 
       0.660051         576.074         176.413 
       0.675724         564.514         167.553 
       0.691403         547.059         159.295 
       0.707174         531.424         151.546 
       0.722871         526.535         144.344 
        0.73838         514.001         137.687 
       0.754018         502.237         131.399 
       0.769845         495.647         125.436 
        0.78569         484.917         119.837 
       0.801365         468.924         114.637 
       0.817031         464.807         109.749 
       0.832809         457.429         105.117 
       0.848511         449.994         100.774 
       0.864097         440.099          96.708 
       0.879701         439.665         92.8632 
       0.895507         422.239         89.1831 
       0.911279         416.825         85.7109 
        0.92691         411.654         82.4533 
       0.942635         406.557         79.3477 
       0.958396         393.882         76.3963 
       0.974128         388.429         73.6009 
       0.989692         377.776         70.9737 
        1.00528         373.968         68.4713 
        1.02113         367.599         66.0509 
        1.03692         362.113         63.7569 
        1.05264         356.998         61.5829 
        1.06832         349.065          59.514 
        1.08405         347.668         57.5351 
        1.09979         339.953         55.6453 
        1.11537         331.217         53.8594 
        1.13105          327.53         52.1416 
        1.14679         321.868         50.4924 
        1.16256         320.087         48.9116 
        1.17828         314.815         47.4039 
        1.19395         306.849          45.965 
         1.2097          304.79         44.5788 
        1.22537         299.902         43.2567 
          1.241         293.354         41.9923 
        1.25666         290.545         40.7755 
        1.27241         286.723         39.6014 
        1.28819         279.697         38.4717 
        1.30392         279.712         37.3895 
        1.31957          271.93         36.3539 
        1.33529          268.34         35.3538 
        1.35108         266.984         34.3875 
        1.36674         259.798         33.4644 
         1.3824         257.077          32.576 
        1.39811         254.065         31.7171 
        1.41389          248.26          30.886 
        1.42964         245.047         30.0861 
        1.44531         242.358         29.3185 
        1.46101         237.976         28.5761 
        1.47667         235.369         27.8618 
        1.49229         232.112         27.1738 
        1.50793          228.59         26.5084 
        1.52367         224.986          25.861 
        1.53953         221.302         25.2309 
        1.55526         218.871         24.6269 
        1.57092          217.02         24.0452 
        1.58662         212.116          23.481 
        1.60235         209.646         22.9338 
        1.61809         207.589         22.4039 
        1.63369         203.617         21.8954 
        1.64941          200.71         21.3991 
        1.66519         198.122         20.9164 
        1.68085         194.607         20.4521 
        1.69652         192.706         20.0018 
        1.71228         189.754         19.5625 
        1.72806         187.635         19.1361 
        1.74368          185.26         18.7266 
        1.75933         183.946         18.3284 
        1.77505         181.029         17.9399 
        1.79081         177.662          17.562 
         1.8065          176.62         17.1967 
        1.82218         172.158          16.842 
        1.83797         170.966          16.495 
        1.85367         168.451         16.1596 
        1.86928         165.914         15.8357 
        1.88497         164.359         15.5188 
        1.90073          162.76         15.2095 
        1.91647         159.642         14.9089 
        1.93218         157.223          14.617 
        1.94787         155.303         14.3334 
        1.96363         154.553         14.0563 
        1.97935         152.667          13.787 
        1.99499          150.19         13.5263 
        2.01064          147.08          13.272 
         2.0264         146.671         13.0227 
        2.04216         144.019         12.7798 
        2.05781         141.614         12.5448 
        2.07353         140.865         12.3148 
        2.08928         139.029           12.09 
        2.10499         137.491         11.8715 
        2.12065         135.925         11.6591 
        2.13633         133.884         11.4516 
        2.15211         131.814         11.2479 
        2.16785         130.515         11.0497 
        2.18349         129.103         10.8576 
        2.19916           127.2         10.6696 
        2.21489         125.558         10.4854 
        2.23063         124.053         10.3055 
         2.2463          122.29         10.1306 
        2.26194         121.322          9.9602 
        2.27765         119.302         9.79286 
        2.29341         118.339         9.62892 
        2.30914         116.949         9.46908 
        2.32486          115.04         9.31296 
        2.34061         113.568         9.16011 
        2.35635          112.77         9.01082 
        2.37203          110.88         8.86538 
        2.38768         110.077         8.72346 
        2.40339         107.968         8.58413 
        2.41914          106.99         8.44752 
        2.43483         106.127         8.31437 
         2.4505         104.799         8.18431 
        2.46622         103.084         8.05659 
        2.48195         102.211         7.93159 
        2.49759         100.626         7.80991 
        2.51328         99.6666         7.69047 
        2.52906         98.7187         7.57277 
        2.54479         97.3414         7.45798 
        2.56049         96.0224         7.34579 
        2.57618         95.0502           7.236 
        2.59189         94.3755          7.1283 
        2.60758         92.7654         7.02296 
        2.62325         92.2246         6.91987 
        2.63898         91.0438          6.8185 
        2.65468         90.1524         6.71937 
        2.67044         89.1376         6.62179 
        2.68618           87.73         6.52637 
        2.70184         86.7975         6.43321 
        2.71755         86.1932         6.34165 
        2.73329         84.6967         6.25172 
        2.74897         83.8842         6.16383 
        2.76462           83.55         6.07783 
        2.78034         82.0767         5.99311 
        2.79607         81.0044         5.90992 
        2.81179         80.3396          5.8284 
        2.82749         79.6536         5.74851 
        2.84321         78.3862         5.67003 
        2.85893           77.22         5.59304 
        2.87462         76.8325         5.51762 
        2.89033         75.8735         5.44351 
        2.90605         75.0349          5.3707 
        2.92176          74.431         5.29926 
        2.93747         73.5352         5.22916 
        2.95318         72.3937         5.16031 
        2.96891         71.9714         5.09267 
        2.98456         70.8945         5.02654 
        3.00023         70.2594         4.96149 
        3.01596         69.6569         4.89739 
        3.03164         68.7997          4.8346 
        3.04738         68.4536         4.77273 
         3.0631         67.2555         4.71196 
        3.07883         66.7672         4.65225 
        3.09456         65.8354         4.59359 
        3.11026         65.4543         4.53602 
        3.12596         64.5791         4.47945 
        3.14163         63.9544         4.42398 
        3.15734         63.0237         4.36931 
        3.17308         62.6334         4.31544 
        3.18879         61.9992         4.26262 
        3.20447         61.4477         4.21076 
         3.2202         60.4805         4.15961 
         3.2359          59.909         4.10939 
        3.25157         59.5697         4.06013 
        3.26729         58.8126         4.01152 
        3.28304          58.012         3.96361 
        3.29877         57.6565         3.91655 
        3.31446         56.8403         3.87035 
        3.33014         56.4393         3.82494 
        3.34585           55.87         3.78019 
        3.36158         55.4635         3.73609 
        3.37727         54.8958         3.69283 
        3.39294         54.2293          3.6503 
        3.40867         53.7992         3.60828 
        3.42439         53.1895         3.56694 
        3.44008         52.6325         3.52633 
        3.45578         52.1085         3.48633 
        3.47153         51.6228         3.44686 
        3.48724         51.1772         3.40807 
        3.50292         50.6515         3.36996 
        3.51859         50.1891         3.33246 
        3.53431         49.5859         3.29541 
        3.55007         49.0355         3.25883 
        3.56577         48.5545         3.22295 
        3.58146         48.0695         3.18763 
        3.59719         47.7029         3.15275 
        3.61292         47.0797         3.11841 
        3.62859         46.7586         3.08471 
        3.64429         46.3731         3.05144 
        3.66003         45.9901         3.01857 
        3.67578         45.4129         2.98618 
        3.69146         45.0444          2.9544 
        3.70712         44.7053         2.92313 
        3.72284         44.2212          2.8922 
        3.73853         43.8095         2.86178 
        3.75422         43.3646         2.83178 
        3.76993         43.0018         2.80218 
        3.78564         42.5896         2.77302 
        3.80137         42.2565         2.74422 
        3.81707         41.7405          2.7159 
        3.83279         41.4397         2.68795 
        3.84853         41.0066         2.66035 
        3.86424         40.6116         2.63319 
        3.87992         40.1915         2.60645 
        3.89561         39.9266         2.58008 
        3.91134         39.5346         2.55402 
        3.92704         39.1662         2.52835 
        3.94273         38.8528         2.50305 
        3.95845          38.396         2.47806 
        3.97418         38.1268         2.45341 
        3.98988         37.7818         2.42912 
        4.00554         37.3356         2.40523 
        4.02125         37.1437         2.38159 
        4.03698         36.7111         2.35823 
        4.05268         36.4923         2.33523 
        4.06839          36.164         2.31253 
         4.0841         35.8728         2.29014 
        4.09983         35.4545         2.26801 
        4.11555         35.2289         2.24618 
        4.13124         34.7694          2.2247 
        4.14693         34.5578         2.20348 
        4.16266         34.2875         2.18249 
        4.17839         33.9053         2.16178 
        4.19408         33.6479         2.14139 
        4.20977         33.3801         2.12126 
        4.22551          33.061         2.10133 
        4.24123         32.8176         2.08168 
        4.25691          32.492         2.06234 
        4.27259         32.2204         2.04323 
        4.28831         31.9874         2.02433 
        4.30404         31.7146         2.00565 
        4.31974         31.4296         1.98725 
        4.33543         31.1396         1.96909 
        4.35116         30.8745         1.95111 
        4.36688         30.5786         1.93336 
        4.38255         30.4094          1.9159 
        4.39825         30.1293         1.89861 
        4.41398         29.8646         1.88151 
         4.4297         29.5791         1.86463 
        4.44541         29.4354         1.84797 
        4.46111          29.036         1.83152 
        4.47683          28.922         1.81525 
        4.49251         28.6851         1.79922 
        4.50819         28.4051         1.78339 
         4.5239         28.1055         1.76772 
        4.53962         27.9261         1.75223 
        4.55535         27.7054         1.73691 
        4.57106         27.3963         1.72179 
        4.58678         27.2373         1.70685 
         4.6025         27.0559         1.69209 
        4.61821         26.8252          1.6775 
        4.63391         26.5856         1.66311 
         4.6496         26.3188         1.64889 
        4.66532         26.1461         1.63481 
        4.68103         25.9313          1.6209 
        4.69673         25.7497         1.60717 
        4.71241         25.5371         1.59361 
        4.72811         25.3321         1.58019 
        4.74384         25.1878          1.5669 
        4.75955         24.9973         1.55378 
        4.77525         24.7033         1.54082 
        4.79096         24.4887           1.528 
        4.80669         24.3397         1.51531 
         4.8224          24.175         1.50279 
        4.83809         23.9126         1.49041 
        4.85379         23.7616         1.47817 
         4.8695         23.5707         1.46606 
        4.88521         23.3578         1.45408 
        4.90093          23.241         1.44224 
        4.91663         23.0374         1.43054 
        4.93234         22.7918         1.41896 
        4.94807         22.6123          1.4075 
        4.96377         22.4716         1.39619 
        4.97943          22.326         1.38502 
        4.99514         22.1833         1.37395 
        5.01086         21.9706         1.36299 
        5.02654         21.7859         1.35218 
        5.04227         21.6308         1.34145 
          5.058         21.4159         1.33084 
        5.07371         21.2583         1.32036 
        5.08942         21.0549         1.30999 
        5.10513         20.9928         1.29973 
        5.12084         20.8137         1.28958 
        5.13656         20.6542         1.27954 
        5.15225         20.5503         1.26962 
        5.16796          20.338         1.25979 
        5.18369         20.1713         1.25005 
         5.1994         19.9721         1.24044 
        5.21509          19.859         1.23093 
        5.23079         19.7126         1.22152 
        5.24649         19.5729         1.21221 
        5.26217         19.4164           1.203 
        5.27788         19.2961         1.19388 
        5.29359         19.1163         1.18484 
        5.30933         18.9607         1.17589 
        5.32504         18.8358         1.16705 
        5.34073         18.6718         1.15831 
        5.35646         18.5398         1.14963 
        5.37218         18.4139         1.14105 
        5.38789         18.2824         1.13257 
        5.40357         18.1352         1.12418 
        5.41929         18.0289         1.11586 
        5.43502         17.8855         1.10762 
         5.4507         17.7143         1.09949 
        5.46639         17.5882         1.09143 
        5.48212         17.4631         1.08344 
        5.49786         17.3447         1.07552 
        5.51353         17.2375         1.06771 
        5.52921         17.0949         1.05998 
        5.54495         16.9679          1.0523 
        5.56066         16.8521          1.0447 
        5.57637          16.711         1.03718 
        5.59207         16.5825         1.02975 
        5.60778         16.5418         1.02238 
        5.62346         16.3729         1.01509 
        5.63916         16.2512         1.00787 
        5.65487         16.1045         1.00071 
         5.6706         16.0279        0.993616 
        5.68633         15.9235        0.986587 
        5.70203         15.7947         0.97964 
        5.71773         15.6954        0.972761 
        5.73344         15.5901        0.965945 
        5.74916         15.4617        0.959188 
        5.76486          15.346        0.952504 
        5.78054         15.2246        0.945895 
        5.79626         15.1431        0.939329 
          5.812         15.0483         0.93282 
         5.8277         14.9018        0.926391 
        5.84339         14.8028        0.920022 
        5.85911         14.7292        0.913701 
        5.87484         14.5884        0.907441 
        5.89053         14.4786        0.901252 
        5.90623         14.4035        0.895117 
        5.92195         14.2829        0.889029 
        5.93767         14.2037        0.883001 
        5.95336         14.1017        0.877038 
        5.96905         13.9975        0.871133 
        5.98476         13.9158        0.865274 
        6.00048         13.8087        0.859467 
        6.01617          13.747        0.853721 
        6.03185         13.6308        0.848034 
        6.04756         13.5488        0.842385 
        6.06331         13.4547        0.836776 
        6.07903         13.3263         0.83123 
        6.09473         13.2477        0.825739 
        6.11044         13.1704        0.820292 
        6.12616         13.0959        0.814896 
        6.14186         13.0158        0.809553 
        6.15755         12.8917        0.804259 
        6.17326         12.8055        0.799008 
        6.18898         12.7156        0.793801 
        6.20467         12.6143         0.78865 
        6.22036         12.5433        0.783545 
         6.2361         12.4439        0.778471 
         6.2518         12.3703        0.773451 
        6.26748         12.3191        0.768486 
        6.28319         12.2151         0.76355 
        6.29893         12.1439        0.758654 
        6.31463         12.0705        0.753809 
        6.33033         11.9898        0.749008 
        6.34604          11.894        0.744245 
        6.36177         11.8209        0.739519 
        6.37747         11.7469        0.734842 
