# k  (h/Mpc)    Pcb(k)  (Mpc/h)^3    Pcb_linear(k) (Mpc/h)^3   ShotnoiseSubtracted = true
      0.0200456         17493.2         17781.9 
      0.0350414         13309.9         12926.8 
      0.0492313         9236.67         9392.38 
      0.0637834         7454.45          7807.8 
      0.0800726         5858.99         6196.86 
       0.096163         4664.48         4496.36 
       0.111083         3797.07         3586.41 
       0.126058         3145.58         3178.29 
       0.142273         2739.01         2692.71 
       0.158546         2249.71         2126.68 
        0.17375         1992.11         1791.72 
       0.188953         1871.14         1622.37 
       0.204907         1605.45         1435.46 
       0.220756          1445.9         1214.49 
        0.23588         1289.23          1056.5 
         0.2514         1160.07         959.819 
       0.267535          1124.3         868.472 
       0.283568         992.537         765.876 
       0.299022         947.814         682.355 
       0.314451         978.433         623.627 
       0.330372         850.198         572.107 
       0.346141         783.435         519.275 
       0.361624          751.28          471.95 
       0.377134         714.652         434.268 
       0.392932         686.678          401.82 
       0.408854         655.273           370.4 
       0.424564         638.235         341.403 
       0.440253         585.186          316.52 
       0.455999         560.129         294.884 
       0.471626         569.784             275 
        0.48727         537.893           256.4 
       0.502856         505.124          239.69 
       0.518488         499.128         224.781 
       0.534347         470.836          210.92 
       0.550082         451.209         198.141 
       0.565732         447.196         186.449 
       0.581496          435.43          175.74 
       0.597222         423.416          165.92 
       0.612804         413.609         156.889 
       0.628434         396.949         148.472 
       0.644267          382.79         140.603 
       0.660051         377.697          133.35 
       0.675724         370.856         126.653 
       0.691403         362.272         120.411 
       0.707174         348.752         114.553 
       0.722871         343.184         109.109 
        0.73838         338.515         104.077 
       0.754018          326.34         99.3242 
       0.769845         324.379         94.8166 
        0.78569         317.173         90.5849 
       0.801365         307.445         86.6536 
       0.817031         304.093         82.9592 
       0.832809         298.721         79.4578 
       0.848511         291.744         76.1751 
       0.864097         284.562         73.1014 
       0.879701         282.872         70.1951 
       0.895507          274.63         67.4133 
       0.911279         268.133         64.7888 
        0.92691         265.721         62.3263 
       0.942635         263.474         59.9788 
       0.958396          255.75         57.7478 
       0.974128         252.784         55.6348 
       0.989692         243.512         53.6489 
        1.00528         243.265         51.7574 
        1.02113         239.603         49.9278 
        1.03692         234.146         48.1937 
        1.05264         230.212         46.5504 
        1.06832         229.534         44.9865 
        1.08405         223.412         43.4906 
        1.09979          221.48         42.0622 
        1.11537         216.738         40.7123 
        1.13105         213.077         39.4138 
        1.14679         211.186         38.1671 
        1.16256         208.366         36.9722 
        1.17828         205.769         35.8325 
        1.19395         200.279         34.7449 
         1.2097         199.736         33.6971 
        1.22537         197.743         32.6976 
          1.241          192.32         31.7419 
        1.25666         190.646         30.8222 
        1.27241         186.886         29.9346 
        1.28819         184.826         29.0807 
        1.30392         182.375         28.2627 
        1.31957         177.873         27.4798 
        1.33529          175.58         26.7239 
        1.35108         174.328         25.9935 
        1.36674         170.716         25.2957 
         1.3824         169.436         24.6242 
        1.39811         166.897         23.9749 
        1.41389          163.49         23.3466 
        1.42964         161.527          22.742 
        1.44531         159.921         22.1618 
        1.46101         156.662         21.6007 
        1.47667          155.84         21.0607 
        1.49229         153.349         20.5406 
        1.50793         150.575         20.0376 
        1.52367         149.136         19.5483 
        1.53953         145.912          19.072 
        1.55526         145.516         18.6154 
        1.57092         143.858         18.1757 
        1.58662         140.233         17.7493 
        1.60235         139.033         17.3356 
        1.61809         136.977          16.935 
        1.63369         134.961         16.5507 
        1.64941         133.993         16.1755 
        1.66519         132.056         15.8107 
        1.68085         129.569         15.4597 
        1.69652          128.34         15.1193 
        1.71228         127.074         14.7872 
        1.72806         125.734         14.4649 
        1.74368         123.808         14.1554 
        1.75933         122.745         13.8544 
        1.77505         120.567         13.5608 
        1.79081         118.755         13.2751 
         1.8065         116.862         12.9989 
        1.82218         115.488         12.7309 
        1.83797         115.003         12.4685 
        1.85367         113.188         12.2151 
        1.86928         112.259         11.9702 
        1.88497         110.235         11.7306 
        1.90073          109.46         11.4968 
        1.91647          107.65         11.2696 
        1.93218         106.502          11.049 
        1.94787         104.719         10.8346 
        1.96363         103.949         10.6251 
        1.97935         102.723         10.4216 
        1.99499          101.96         10.2245 
        2.01064         99.5484         10.0323 
         2.0264         99.0215         9.84381 
        2.04216         96.8987         9.66027 
        2.05781         96.4674         9.48257 
        2.07353         95.1324         9.30871 
        2.08928         93.7859         9.13883 
        2.10499         92.7649         8.97366 
        2.12065         92.1102         8.81307 
        2.13633         90.9688         8.65627 
        2.15211         89.5105         8.50228 
        2.16785         88.2603         8.35248 
        2.18349         87.0783         8.20722 
        2.19916         85.9908         8.06512 
        2.21489         85.3424         7.92592 
        2.23063         83.9077         7.78991 
         2.2463         83.3876          7.6577 
        2.26194          82.277          7.5289 
        2.27765         81.2427          7.4024 
        2.29341         80.3439         7.27849 
        2.30914          79.342         7.15766 
        2.32486         77.8524         7.03965 
        2.34061         77.4184         6.92411 
        2.35635          76.309         6.81127 
        2.37203         75.2693         6.70133 
        2.38768         74.5402         6.59405 
        2.40339         73.9127         6.48873 
        2.41914         72.5951         6.38546 
        2.43483          72.047         6.28482 
         2.4505         71.0771         6.18651 
        2.46622         70.5052         6.08996 
        2.48195         69.4952         5.99548 
        2.49759          68.673          5.9035 
        2.51328         67.8158         5.81321 
        2.52906         66.8023         5.72425 
        2.54479         66.2881         5.63747 
        2.56049         65.5073         5.55267 
        2.57618         64.5688         5.46968 
        2.59189         64.1674         5.38827 
        2.60758         63.1686         5.30864 
        2.62325         62.5294         5.23072 
        2.63898         61.8982         5.15409 
        2.65468         61.3027         5.07916 
        2.67044          60.576          5.0054 
        2.68618         59.9674         4.93327 
        2.70184         59.1945         4.86286 
        2.71755         58.3831         4.79364 
        2.73329         57.8211         4.72566 
        2.74897         57.2569         4.65923 
        2.76462         56.9108         4.59422 
        2.78034         56.2078         4.53018 
        2.79607          55.462          4.4673 
        2.81179         54.7892         4.40568 
        2.82749         54.2789         4.34529 
        2.84321         53.8136         4.28597 
        2.85893          53.225         4.22777 
        2.87462         52.5223         4.17076 
        2.89033         51.8551         4.11474 
        2.90605         51.3271          4.0597 
        2.92176         50.9048          4.0057 
        2.93747         50.2509         3.95271 
        2.95318         49.8024         3.90067 
        2.96891         49.1702         3.84954 
        2.98456          48.698         3.79955 
        3.00023          47.992         3.75038 
        3.01596         47.5722         3.70192 
        3.03164         47.1629         3.65446 
        3.04738          46.703          3.6077 
         3.0631         46.0653         3.56177 
        3.07883         45.6309         3.51663 
        3.09456         45.0863         3.47229 
        3.11026         44.7035         3.42877 
        3.12596         44.2976         3.38601 
        3.14163         43.7112         3.34408 
        3.15734         43.2969         3.30275 
        3.17308         42.8754         3.26203 
        3.18879         42.5441         3.22211 
        3.20447         42.1377         3.18291 
         3.2202         41.5856         3.14424 
         3.2359         41.2371         3.10628 
        3.25157         40.8171         3.06904 
        3.26729         40.3521          3.0323 
        3.28304          40.021         2.99609 
        3.29877         39.4326         2.96051 
        3.31446         39.1905         2.92559 
        3.33014         38.7692         2.89127 
        3.34585         38.2785         2.85744 
        3.36158         37.9476          2.8241 
        3.37727         37.6054          2.7914 
        3.39294         37.2288         2.75925 
        3.40867         36.8558         2.72749 
        3.42439          36.435         2.69625 
        3.44008         36.1394         2.66555 
        3.45578         35.7241         2.63531 
        3.47153         35.4387         2.60547 
        3.48724         35.0655         2.57615 
        3.50292         34.6818         2.54735 
        3.51859         34.4661           2.519 
        3.53431         34.1652         2.49099 
        3.55007         33.6032         2.46334 
        3.56577         33.5874         2.43622 
        3.58146         33.0716         2.40952 
        3.59719         32.7856         2.38316 
        3.61292         32.5321          2.3572 
        3.62859         32.1563         2.33173 
        3.64429         31.8694         2.30658 
        3.66003         31.5528         2.28173 
        3.67578         31.2978         2.25725 
        3.69146          30.993         2.23322 
        3.70712          30.634         2.20959 
        3.72284         30.3653         2.18621 
        3.73853          30.185         2.16321 
        3.75422         29.8763         2.14053 
        3.76993         29.5874         2.11816 
        3.78564         29.3596         2.09612 
        3.80137         29.0933         2.07435 
        3.81707           28.81         2.05294 
        3.83279         28.5214         2.03181 
        3.84853         28.2721         2.01095 
        3.86424          27.939         1.99042 
        3.87992         27.6807         1.97021 
        3.89561         27.4965         1.95027 
        3.91134         27.2194         1.93058 
        3.92704         26.9333         1.91117 
        3.94273         26.6646         1.89205 
        3.95845         26.5179         1.87316 
        3.97418          26.186         1.85453 
        3.98988         25.9646         1.83617 
        4.00554         25.6938         1.81811 
        4.02125         25.5462         1.80024 
        4.03698         25.2929         1.78258 
        4.05268         25.0609          1.7652 
        4.06839         24.8279         1.74804 
         4.0841         24.6221         1.73111 
        4.09983         24.3475         1.71438 
        4.11555         24.1173         1.69788 
        4.13124         24.0479         1.68164 
        4.14693         23.6928         1.66561 
        4.16266         23.5226         1.64974 
        4.17839         23.3898         1.63409 
        4.19408         23.1073         1.61867 
        4.20977         22.9809         1.60345 
        4.22551         22.7735         1.58839 
        4.24123          22.542         1.57354 
        4.25691         22.3167         1.55892 
        4.27259         22.1893         1.54448 
        4.28831         21.9819         1.53019 
        4.30404         21.8216         1.51607 
        4.31974         21.5654         1.50216 
        4.33543         21.4086         1.48843 
        4.35116          21.232         1.47484 
        4.36688         21.0153         1.46142 
        4.38255         20.8437         1.44822 
        4.39825         20.6892         1.43516 
        4.41398         20.5064         1.42223 
         4.4297         20.3179         1.40947 
        4.44541         20.1418         1.39687 
        4.46111         19.9504         1.38444 
        4.47683            19.8         1.37215 
        4.49251         19.6784         1.36003 
        4.50819         19.4988         1.34806 
         4.5239         19.3476         1.33622 
        4.53962         19.2024          1.3245 
        4.55535         19.0019         1.31292 
        4.57106         18.9131          1.3015 
        4.58678         18.7335         1.29021 
         4.6025         18.4747         1.27905 
        4.61821         18.3637         1.26802 
        4.63391         18.2298         1.25714 
         4.6496         18.1334         1.24639 
        4.66532         17.9263         1.23575 
        4.68103         17.7915         1.22524 
        4.69673         17.6987         1.21486 
        4.71241         17.5767         1.20461 
        4.72811         17.3873         1.19446 
        4.74384         17.2306         1.18442 
        4.75955         17.1284          1.1745 
        4.77525         16.9916         1.16471 
        4.79096         16.8081         1.15501 
        4.80669         16.6885         1.14542 
         4.8224         16.5373         1.13595 
        4.83809         16.4097          1.1266 
        4.85379          16.312         1.11735 
         4.8695         16.1842         1.10819 
        4.88521         16.0641         1.09914 
        4.90093          15.929         1.09019 
        4.91663         15.7642         1.08135 
        4.93234         15.6613         1.07259 
        4.94807         15.5646         1.06393 
        4.96377         15.4275         1.05538 
        4.97943         15.3091         1.04694 
        4.99514         15.1761         1.03857 
        5.01086         15.0881         1.03028 
        5.02654         14.9662         1.02211 
        5.04227         14.8223           1.014 
          5.058         14.6997         1.00598 
        5.07371         14.5976        0.998058 
        5.08942         14.5379         0.99022 
        5.10513         14.3898        0.982466 
        5.12084         14.2804        0.974791 
        5.13656         14.1774          0.9672 
        5.15225         14.0533        0.959702 
        5.16796         13.9271        0.952272 
        5.18369          13.819        0.944913 
         5.1994          13.757        0.937646 
        5.21509         13.6169        0.930461 
        5.23079         13.5433        0.923343 
        5.24649         13.4377        0.916305 
        5.26217         13.3294        0.909346 
        5.27788         13.2362        0.902448 
        5.29359         13.0952        0.895621 
        5.30933         13.0509        0.888855 
        5.32504         12.9483         0.88217 
        5.34073         12.8466        0.875561 
        5.35646         12.7554        0.869006 
        5.37218         12.6236        0.862517 
        5.38789         12.5317        0.856105 
        5.40357         12.4598        0.849765 
        5.41929         12.3883        0.843476 
        5.43502         12.2778        0.837249 
         5.4507         12.1962          0.8311 
        5.46639         12.0873        0.825012 
        5.48212         12.0085        0.818971 
        5.49786         11.9268        0.812982 
        5.51353         11.8427        0.807084 
        5.52921         11.7592        0.801237 
        5.54495         11.6845        0.795432 
        5.56066         11.5792         0.78969 
        5.57637         11.4887        0.784006 
        5.59207          11.443        0.778383 
        5.60778         11.3447        0.772813 
        5.62346         11.2308        0.767305 
        5.63916         11.1837        0.761845 
        5.65487         11.1242        0.756435 
         5.6706         11.0146        0.751072 
        5.68633         10.9401        0.745759 
        5.70203         10.8635        0.740508 
        5.71773         10.7725        0.735309 
        5.73344         10.6902        0.730156 
        5.74916         10.6381        0.725048 
        5.76486         10.5608        0.719996 
        5.78054         10.4905           0.715 
        5.79626         10.4328        0.710037 
          5.812         10.3484        0.705117 
         5.8277         10.2696        0.700257 
        5.84339         10.1879        0.695443 
        5.85911         10.1155        0.690665 
        5.87484         10.0475        0.685933 
        5.89053         9.97859        0.681254 
        5.90623         9.91187        0.676617 
        5.92195            9.84        0.672015 
        5.93767         9.80024        0.667459 
        5.95336         9.70905        0.662952 
        5.96905         9.64669        0.658488 
        5.98476         9.59229        0.654059 
        6.00048         9.52577        0.649669 
        6.01617         9.45076        0.645326 
        6.03185         9.37893        0.641027 
        6.04756         9.30675        0.636758 
        6.06331          9.2635        0.632518 
        6.07903         9.20779        0.628325 
        6.09473         9.14622        0.624174 
        6.11044         9.07242        0.620058 
        6.12616         9.01473        0.615978 
        6.14186         8.94618         0.61194 
        6.15755         8.89016        0.607938 
        6.17326          8.8424        0.603969 
        6.18898         8.77592        0.600033 
        6.20467         8.70581        0.596139 
        6.22036         8.65427         0.59228 
         6.2361          8.5973        0.588445 
         6.2518         8.55546         0.58465 
        6.26748         8.47938        0.580897 
        6.28319         8.44019        0.577166 
        6.29893         8.38774        0.573465 
        6.31463         8.30884        0.569803 
        6.33033         8.27308        0.566174 
        6.34604         8.21829        0.562573 
        6.36177         8.16509        0.559001 
        6.37747         8.10074        0.555466 
