# k  (h/Mpc)    Pcb(k)  (Mpc/h)^3    Pcb_linear(k) (Mpc/h)^3   ShotnoiseSubtracted = true
      0.0200456         3613.36         3669.68 
      0.0350414         2630.89         2667.73 
      0.0492313         1939.25         1938.32 
      0.0637834         1634.26         1611.31 
      0.0800726         1295.49         1278.86 
       0.096163         919.379         927.922 
       0.111083         729.214         740.134 
       0.126058         662.779          655.91 
       0.142273         568.296           555.7 
       0.158546         457.113         438.886 
        0.17375         373.688         369.761 
       0.188953         349.566          334.81 
       0.204907         323.757         296.239 
       0.220756         270.198         250.636 
        0.23588         235.703         218.032 
         0.2514          209.57          198.08 
       0.267535         195.222         179.228 
       0.283568         175.445         158.055 
       0.299022         160.023         140.819 
       0.314451         144.166         128.699 
       0.330372         134.047         118.067 
       0.346141         121.164         107.164 
       0.361624         113.362          97.397 
       0.377134         106.681         89.6207 
       0.392932         95.3598         82.9242 
       0.408854         91.7723         76.4401 
       0.424564         87.1809          70.456 
       0.440253         80.6328         65.3208 
       0.455999         75.9369         60.8556 
       0.471626         70.6722         56.7522 
        0.48727           67.92         52.9136 
       0.502856         64.1029         49.4652 
       0.518488          61.443         46.3884 
       0.534347         59.0239          43.528 
       0.550082         54.1262         40.8906 
       0.565732         50.9951         38.4777 
       0.581496         49.6002         36.2679 
       0.597222         47.9764         34.2412 
       0.612804         44.9781         32.3775 
       0.628434         43.5794         30.6405 
       0.644267         42.4055         29.0165 
       0.660051         40.4818         27.5197 
       0.675724         38.4778         26.1377 
       0.691403         37.2857         24.8493 
       0.707174         36.1458         23.6406 
       0.722871         34.7363         22.5171 
        0.73838         33.6143         21.4785 
       0.754018         32.1617         20.4977 
       0.769845         31.2994         19.5675 
        0.78569         30.3305         18.6942 
       0.801365         29.2251         17.8828 
       0.817031         28.5392         17.1204 
       0.832809         27.9662         16.3978 
       0.848511         26.3093         15.7204 
       0.864097         25.8655         15.0861 
       0.879701         25.2725         14.4863 
       0.895507         24.6602         13.9122 
       0.911279          23.893         13.3706 
        0.92691         23.3107         12.8624 
       0.942635         22.4095         12.3779 
       0.958396         22.0292         11.9175 
       0.974128         21.3643         11.4815 
       0.989692         21.1509         11.0716 
        1.00528         20.6276         10.6813 
        1.02113         19.8012         10.3037 
        1.03692         19.3946         9.94583 
        1.05264         19.0454         9.60668 
        1.06832         18.5846         9.28395 
        1.08405          18.094         8.97524 
        1.09979          17.732         8.68044 
        1.11537         17.3922         8.40186 
        1.13105         17.0858         8.13389 
        1.14679         16.8347         7.87662 
        1.16256         16.2151         7.63001 
        1.17828         16.1927         7.39482 
        1.19395         15.6215         7.17036 
         1.2097         15.4705         6.95412 
        1.22537         15.0701         6.74787 
          1.241         14.8386         6.55064 
        1.25666         14.4898         6.36082 
        1.27241         14.1765         6.17766 
        1.28819          13.913         6.00143 
        1.30392         13.7986         5.83262 
        1.31957         13.5791         5.67106 
        1.33529         13.3372         5.51505 
        1.35108         13.0116         5.36432 
        1.36674         12.9022         5.22031 
         1.3824         12.5736         5.08173 
        1.39811         12.3869         4.94774 
        1.41389         12.2295         4.81809 
        1.42964         12.0704         4.69331 
        1.44531         11.9186         4.57357 
        1.46101         11.5882         4.45777 
        1.47667         11.4726         4.34633 
        1.49229         11.3232         4.23901 
        1.50793         11.1393          4.1352 
        1.52367         10.9575         4.03421 
        1.53953         10.8073         3.93592 
        1.55526         10.6512          3.8417 
        1.57092         10.5052         3.75096 
        1.58662         10.3857         3.66294 
        1.60235         10.2104         3.57759 
        1.61809         10.0827         3.49491 
        1.63369         9.93783         3.41559 
        1.64941         9.77957         3.33817 
        1.66519         9.70839         3.26288 
        1.68085         9.54454         3.19045 
        1.69652         9.40845          3.1202 
        1.71228         9.27572         3.05167 
        1.72806         9.22441         2.98515 
        1.74368         9.05108         2.92128 
        1.75933         8.96788         2.85916 
        1.77505         8.85063         2.79856 
        1.79081         8.69077         2.73961 
         1.8065         8.64244         2.68261 
        1.82218         8.48879         2.62729 
        1.83797         8.43858         2.57315 
        1.85367         8.29702         2.52084 
        1.86928         8.29053          2.4703 
        1.88497         8.09022         2.42087 
        1.90073         8.04651         2.37262 
        1.91647         7.98204         2.32572 
        1.93218         7.88941          2.2802 
        1.94787         7.76633         2.23596 
        1.96363         7.70981         2.19272 
        1.97935          7.5799         2.15072 
        1.99499         7.48717         2.11005 
        2.01064         7.42467         2.07038 
         2.0264         7.35806         2.03148 
        2.04216         7.27465         1.99361 
        2.05781         7.17645         1.95693 
        2.07353          7.1266         1.92105 
        2.08928         7.06221           1.886 
        2.10499         7.01495         1.85191 
        2.12065         6.90504         1.81877 
        2.13633         6.87064         1.78641 
        2.15211         6.76106         1.75463 
        2.16785         6.70183         1.72372 
        2.18349         6.64432         1.69374 
        2.19916         6.57303         1.66441 
        2.21489         6.49585         1.63568 
        2.23063         6.44553         1.60762 
         2.2463         6.37102         1.58033 
        2.26194         6.29388         1.55375 
        2.27765         6.27296         1.52765 
        2.29341         6.19901         1.50207 
        2.30914         6.12818         1.47714 
        2.32486         6.05021         1.45279 
        2.34061         6.02728         1.42894 
        2.35635         5.98672         1.40565 
        2.37203         5.92558         1.38296 
        2.38768         5.84888         1.36082 
        2.40339         5.81066         1.33909 
        2.41914         5.72575         1.31778 
        2.43483         5.71829         1.29701 
         2.4505         5.64763         1.27672 
        2.46622         5.60526          1.2568 
        2.48195         5.53743          1.2373 
        2.49759         5.52712         1.21832 
        2.51328          5.4582         1.19968 
        2.52906         5.43706         1.18132 
        2.54479         5.36252         1.16342 
        2.56049         5.33359         1.14591 
        2.57618         5.27812         1.12879 
        2.59189         5.22393         1.11199 
        2.60758         5.20794         1.09555 
        2.62325         5.14255         1.07947 
        2.63898         5.08514         1.06366 
        2.65468         5.04967         1.04819 
        2.67044         5.01554         1.03297 
        2.68618         4.99001         1.01809 
        2.70184         4.93111         1.00356 
        2.71755         4.89194        0.989271 
        2.73329         4.86669        0.975243 
        2.74897         4.84557        0.961533 
        2.76462         4.80091        0.948117 
        2.78034         4.72964        0.934901 
        2.79607          4.7082        0.921924 
        2.81179         4.68594        0.909207 
        2.82749         4.62018        0.896745 
        2.84321         4.62222        0.884503 
        2.85893         4.57561        0.872493 
        2.87462         4.53229        0.860726 
        2.89033          4.5009        0.849166 
        2.90605         4.46297        0.837808 
        2.92176         4.41621        0.826664 
        2.93747           4.393        0.815728 
        2.95318         4.36764        0.804988 
        2.96891         4.33863        0.794436 
        2.98456           4.307         0.78412 
        3.00023         4.25666        0.773972 
        3.01596         4.23649        0.763973 
        3.03164         4.22085        0.754178 
        3.04738         4.18079        0.744527 
         3.0631         4.14572        0.735048 
        3.07883          4.1219        0.725733 
        3.09456         4.09189        0.716581 
        3.11026          4.0713        0.707602 
        3.12596         4.02997        0.698777 
        3.14163         3.99603        0.690123 
        3.15734         3.96793        0.681595 
        3.17308         3.95208        0.673191 
        3.18879         3.91765        0.664952 
        3.20447         3.90398        0.656862 
         3.2202         3.85362        0.648882 
         3.2359         3.84796        0.641049 
        3.25157         3.80692        0.633363 
        3.26729         3.79009        0.625781 
        3.28304         3.76114        0.618308 
        3.29877         3.74091        0.610966 
        3.31446         3.70293         0.60376 
        3.33014         3.69445        0.596676 
        3.34585         3.66575        0.589695 
        3.36158         3.64836        0.582815 
        3.37727         3.60958        0.576067 
        3.39294         3.60192        0.569431 
        3.40867         3.56279        0.562877 
        3.42439          3.5419        0.556429 
        3.44008         3.51795        0.550094 
        3.45578         3.49736        0.543854 
        3.47153         3.47357        0.537696 
        3.48724         3.45362        0.531645 
        3.50292         3.44123          0.5257 
        3.51859         3.40991         0.51985 
        3.53431         3.38241         0.51407 
        3.55007         3.37275        0.508364 
        3.56577         3.35263        0.502768 
        3.58146         3.33254        0.497257 
        3.59719         3.30734        0.491817 
        3.61292         3.28875         0.48646 
        3.62859         3.25618        0.481203 
        3.64429         3.23704        0.476013 
        3.66003         3.23166        0.470884 
        3.67578         3.20847        0.465833 
        3.69146         3.18252        0.460874 
        3.70712         3.16778        0.455997 
        3.72284          3.1407        0.451172 
        3.73853         3.13043        0.446426 
        3.75422          3.1087        0.441746 
        3.76993         3.07964        0.437129 
        3.78564         3.07008        0.432579 
        3.80137         3.05468        0.428088 
        3.81707         3.02318        0.423669 
        3.83279          3.0135        0.419309 
        3.84853         2.99358        0.415003 
        3.86424         2.97348        0.410767 
        3.87992         2.95817        0.406595 
        3.89561         2.93605        0.402481 
        3.91134         2.92753        0.398416 
        3.92704          2.9065        0.394412 
        3.94273         2.88536        0.390467 
        3.95845         2.87357        0.386568 
        3.97418         2.84618        0.382722 
        3.98988         2.83069        0.378933 
        4.00554          2.8082        0.375206 
        4.02125         2.79065        0.371518 
        4.03698         2.78077        0.367874 
        4.05268         2.76224        0.364287 
        4.06839         2.74842        0.360746 
         4.0841         2.72985        0.357252 
        4.09983         2.70466          0.3538 
        4.11555         2.69635        0.350395 
        4.13124         2.67664        0.347044 
        4.14693         2.65458        0.343734 
        4.16266         2.64171        0.340459 
        4.17839         2.62808        0.337229 
        4.19408         2.60479        0.334049 
        4.20977         2.58913        0.330908 
        4.22551          2.5747        0.327799 
        4.24123         2.56173        0.324734 
        4.25691         2.54679        0.321717 
        4.27259          2.5306        0.318736 
        4.28831          2.5194        0.315788 
        4.30404         2.50215        0.312874 
        4.31974         2.48882        0.310003 
        4.33543         2.47334        0.307169 
        4.35116         2.45711        0.304365 
        4.36688         2.44786        0.301596 
        4.38255         2.42955        0.298872 
        4.39825         2.41775        0.296176 
        4.41398         2.40178        0.293508 
         4.4297         2.38693        0.290875 
        4.44541         2.37258        0.288275 
        4.46111         2.36149        0.285709 
        4.47683         2.34315        0.283172 
        4.49251         2.33614        0.280672 
        4.50819         2.32162        0.278202 
         4.5239         2.30886        0.275758 
        4.53962         2.29941         0.27334 
        4.55535          2.2858         0.27095 
        4.57106         2.27381        0.268593 
        4.58678         2.26123        0.266263 
         4.6025          2.2473        0.263959 
        4.61821         2.23212        0.261684 
        4.63391         2.22286        0.259438 
         4.6496         2.21009         0.25722 
        4.66532         2.19513        0.255024 
        4.68103          2.1892        0.252854 
        4.69673         2.17672        0.250712 
        4.71241         2.15974        0.248597 
        4.72811         2.15142        0.246503 
        4.74384         2.14409         0.24443 
        4.75955         2.13164        0.242384 
        4.77525          2.1212        0.240363 
        4.79096         2.10786        0.238362 
        4.80669         2.10228        0.236383 
         4.8224         2.08745        0.234429 
        4.83809          2.0797        0.232498 
        4.85379         2.06587        0.230589 
         4.8695          2.0533        0.228699 
        4.88521         2.04396        0.226831 
        4.90093         2.03056        0.224984 
        4.91663         2.02196        0.223159 
        4.93234         2.01469        0.221353 
        4.94807         2.00413        0.219565 
        4.96377         1.99141          0.2178 
        4.97943         1.98778        0.216058 
        4.99514         1.97374        0.214331 
        5.01086          1.9636        0.212621 
        5.02654         1.95564        0.210935 
        5.04227         1.95123        0.209262 
          5.058          1.9392        0.207606 
        5.07371         1.92703        0.205971 
        5.08942         1.92228        0.204353 
        5.10513         1.90863        0.202753 
        5.12084         1.90546        0.201169 
        5.13656         1.88849        0.199603 
        5.15225         1.88483        0.198055 
        5.16796         1.87159        0.196522 
        5.18369         1.86486        0.195003 
         5.1994         1.85779        0.193504 
        5.21509         1.84861        0.192021 
        5.23079         1.84083        0.190552 
        5.24649         1.83124        0.189099 
        5.26217         1.82585        0.187663 
        5.27788         1.81384         0.18624 
        5.29359         1.81354        0.184831 
        5.30933         1.80141        0.183435 
        5.32504         1.79024        0.182055 
        5.34073         1.78521        0.180691 
        5.35646         1.77432        0.179338 
        5.37218         1.76771        0.177999 
        5.38789         1.76478        0.176676 
        5.40357         1.75563        0.175368 
        5.41929         1.74587         0.17407 
        5.43502          1.7383        0.172785 
         5.4507         1.72884        0.171516 
        5.46639          1.7272        0.170259 
        5.48212          1.7155        0.169012 
        5.49786         1.70966        0.167777 
        5.51353         1.70028        0.166559 
        5.52921         1.69165        0.165353 
        5.54495         1.68683        0.164155 
        5.56066         1.67905         0.16297 
        5.57637         1.67004        0.161797 
        5.59207          1.6637        0.160636 
        5.60778         1.65611        0.159487 
        5.62346         1.65367         0.15835 
        5.63916         1.64442        0.157223 
        5.65487         1.63701        0.156107 
         5.6706         1.63248           0.155 
        5.68633         1.62195        0.153904 
        5.70203         1.61576         0.15282 
        5.71773          1.6097        0.151747 
        5.73344         1.60037        0.150684 
        5.74916         1.59396        0.149629 
        5.76486         1.58784        0.148587 
        5.78054         1.58478        0.147556 
        5.79626         1.57623        0.146532 
          5.812         1.57285        0.145516 
         5.8277          1.5635        0.144513 
        5.84339         1.55867         0.14352 
        5.85911         1.55389        0.142534 
        5.87484         1.54692        0.141557 
        5.89053         1.54148        0.140592 
        5.90623         1.53291        0.139635 
        5.92195         1.52913        0.138685 
        5.93767         1.52141        0.137745 
        5.95336         1.51573        0.136814 
        5.96905         1.50892        0.135893 
        5.98476         1.50472        0.134979 
        6.00048         1.49663        0.134073 
        6.01617         1.49471        0.133177 
        6.03185         1.48718         0.13229 
        6.04756         1.48304        0.131409 
        6.06331         1.47515        0.130534 
        6.07903         1.47153        0.129669 
        6.09473         1.46673        0.128812 
        6.11044         1.45926        0.127962 
        6.12616         1.45303        0.127121 
        6.14186         1.44768        0.126287 
        6.15755         1.44496        0.125461 
        6.17326         1.43626        0.124642 
        6.18898         1.43388         0.12383 
        6.20467         1.42878        0.123026 
        6.22036         1.42117         0.12223 
         6.2361          1.4157        0.121438 
         6.2518         1.41074        0.120655 
        6.26748         1.40715        0.119881 
        6.28319         1.40056        0.119111 
        6.29893         1.39575        0.118347 
        6.31463         1.38979        0.117591 
        6.33033         1.38816        0.116842 
        6.34604          1.3808        0.116099 
        6.36177         1.37638        0.115362 
        6.37747         1.37154        0.114632 
