# k  (h/Mpc)    Pcb(k)  (Mpc/h)^3    Pcb_linear(k) (Mpc/h)^3   ShotnoiseSubtracted = true
      0.0200456         10188.8         10337.5 
      0.0350414         7705.68         7514.98 
      0.0492313         5418.36         5460.24 
      0.0637834         4388.69         4539.05 
      0.0800726         3459.42         3602.53 
       0.096163         2700.74         2613.95 
       0.111083         2192.61         2084.95 
       0.126058         1832.27         1847.69 
       0.142273         1575.78          1565.4 
       0.158546          1292.6         1236.34 
        0.17375         1127.26         1041.62 
       0.188953         1039.96         943.159 
       0.204907         887.052         834.504 
       0.220756         793.921          706.04 
        0.23588         704.233         614.194 
         0.2514         630.582         557.989 
       0.267535         609.657         504.884 
       0.283568         531.854          445.24 
       0.299022         505.454         396.686 
       0.314451         505.814         362.544 
       0.330372         434.988         332.593 
       0.346141         403.125         301.879 
       0.361624         383.902         274.367 
       0.377134         356.646         252.461 
       0.392932         346.718         233.597 
       0.408854         329.033         215.331 
       0.424564         316.836         198.474 
       0.440253          285.99         184.008 
       0.455999         272.701          171.43 
       0.471626         271.197         159.871 
        0.48727         258.318         149.057 
       0.502856         236.135         139.343 
       0.518488         236.579         130.676 
       0.534347         219.765         122.618 
       0.550082         214.389         115.189 
       0.565732         212.321         108.392 
       0.581496          198.63         102.166 
       0.597222         193.958         96.4571 
       0.612804         188.139         91.2073 
       0.628434         181.963          86.314 
       0.644267           173.4         81.7393 
       0.660051         169.452         77.5229 
       0.675724         167.655         73.6296 
       0.691403         163.233         70.0004 
       0.707174         157.612         66.5954 
       0.722871         155.102         63.4304 
        0.73838         153.111         60.5049 
       0.754018         143.974         57.7419 
       0.769845          143.78         55.1214 
        0.78569         139.952         52.6613 
       0.801365         135.744         50.3759 
       0.817031         132.026         48.2281 
       0.832809         129.799         46.1926 
       0.848511          126.71         44.2842 
       0.864097         124.467         42.4973 
       0.879701         122.771         40.8078 
       0.895507         118.995         39.1906 
       0.911279         116.315         37.6648 
        0.92691         113.823         36.2333 
       0.942635         111.567         34.8686 
       0.958396         110.412         33.5716 
       0.974128         107.989         32.3432 
       0.989692         105.518         31.1887 
        1.00528         104.067          30.089 
        1.02113         101.329         29.0254 
        1.03692         101.017         28.0173 
        1.05264         99.6675          27.062 
        1.06832          96.474         26.1528 
        1.08405         95.6646         25.2832 
        1.09979         94.8781         24.4528 
        1.11537         92.2839          23.668 
        1.13105         91.1755         22.9131 
        1.14679         89.6593         22.1884 
        1.16256         87.8477         21.4937 
        1.17828         87.0944         20.8311 
        1.19395          84.739         20.1989 
         1.2097         84.6707         19.5897 
        1.22537         82.6493         19.0087 
          1.241         82.4369         18.4531 
        1.25666         79.5486         17.9184 
        1.27241         79.0907         17.4024 
        1.28819         78.5312          16.906 
        1.30392         76.9528         16.4304 
        1.31957         76.2616         15.9753 
        1.33529          75.174         15.5359 
        1.35108         74.6301         15.1112 
        1.36674         73.3449         14.7056 
         1.3824         72.6755         14.3152 
        1.39811         70.9405         13.9378 
        1.41389         69.9563         13.5725 
        1.42964         69.1818          13.221 
        1.44531         68.5631         12.8837 
        1.46101         67.8716         12.5575 
        1.47667         66.8204         12.2436 
        1.49229         66.0247         11.9413 
        1.50793         65.2192         11.6488 
        1.52367         64.7153         11.3643 
        1.53953          63.632         11.0875 
        1.55526         62.5966          10.822 
        1.57092         62.4651         10.5664 
        1.58662         61.5174         10.3185 
        1.60235         60.6863          10.078 
        1.61809         59.6404         9.84515 
        1.63369         58.9847         9.62171 
        1.64941          58.727         9.40361 
        1.66519         57.3144         9.19151 
        1.68085         57.0369         8.98747 
        1.69652         55.8511         8.78958 
        1.71228         55.5932         8.59653 
        1.72806         54.9956         8.40914 
        1.74368          54.211         8.22923 
        1.75933          53.808         8.05423 
        1.77505         53.2492         7.88352 
        1.79081         52.4799         7.71746 
         1.8065         52.0789          7.5569 
        1.82218         50.6537         7.40106 
        1.83797         50.3697         7.24855 
        1.85367         50.0101         7.10119 
        1.86928         49.6019         6.95882 
        1.88497         48.7009         6.81959 
        1.90073         48.0758         6.68365 
        1.91647         47.9196         6.55155 
        1.93218         47.5813          6.4233 
        1.94787         46.7616         6.29869 
        1.96363         46.0462         6.17689 
        1.97935         45.6891         6.05856 
        1.99499         45.1468         5.94401 
        2.01064         44.5772         5.83226 
         2.0264         44.4118         5.72268 
        2.04216         43.6883         5.61597 
        2.05781         43.1924         5.51267 
        2.07353          42.506          5.4116 
        2.08928         42.4392         5.31284 
        2.10499         42.0084         5.21682 
        2.12065         41.4388         5.12346 
        2.13633         41.1978         5.03231 
        2.15211         40.5268         4.94278 
        2.16785         39.9009         4.85569 
        2.18349          39.554         4.77125 
        2.19916         39.1794         4.68864 
        2.21489         38.9488         4.60771 
        2.23063         38.3953         4.52865 
         2.2463         38.1347         4.45179 
        2.26194         37.6186         4.37691 
        2.27765         37.1793         4.30337 
        2.29341         36.7375         4.23133 
        2.30914         36.4129         4.16109 
        2.32486           35.86         4.09249 
        2.34061         35.6552         4.02532 
        2.35635         35.2963         3.95971 
        2.37203         34.9777          3.8958 
        2.38768         34.6902         3.83343 
        2.40339         34.3996         3.77221 
        2.41914         34.0128         3.71218 
        2.43483         33.6044         3.65366 
         2.4505          33.324         3.59651 
        2.46622         32.9101         3.54039 
        2.48195         32.7061         3.48546 
        2.49759         32.2081         3.43199 
        2.51328         31.8966          3.3795 
        2.52906         31.6948         3.32778 
        2.54479         31.3478         3.27733 
        2.56049         31.1585         3.22803 
        2.57618         30.7477         3.17979 
        2.59189         30.4071         3.13246 
        2.60758         30.0976         3.08617 
        2.62325         29.8989         3.04087 
        2.63898         29.6629         2.99632 
        2.65468         29.2156         2.95276 
        2.67044         29.0322         2.90988 
        2.68618         28.7744         2.86795 
        2.70184         28.4307         2.82701 
        2.71755         28.1762         2.78677 
        2.73329         27.8894         2.74725 
        2.74897         27.5969         2.70863 
        2.76462         27.3907         2.67084 
        2.78034         27.0639         2.63361 
        2.79607         26.8293         2.59705 
        2.81179         26.5978         2.56123 
        2.82749         26.3102         2.52613 
        2.84321         26.0614         2.49164 
        2.85893         25.8717         2.45781 
        2.87462         25.6342         2.42466 
        2.89033         25.3635          2.3921 
        2.90605         25.1213          2.3601 
        2.92176         24.8879         2.32871 
        2.93747          24.649          2.2979 
        2.95318         24.5412         2.26765 
        2.96891         24.2027         2.23792 
        2.98456         24.0078         2.20886 
        3.00023         23.6853         2.18028 
        3.01596         23.3974         2.15211 
        3.03164         23.2587         2.12452 
        3.04738         23.1208         2.09733 
         3.0631         22.8822         2.07062 
        3.07883          22.597         2.04439 
        3.09456         22.3964         2.01861 
        3.11026         22.1552         1.99331 
        3.12596         21.9215         1.96845 
        3.14163         21.7684         1.94407 
        3.15734         21.6158         1.92005 
        3.17308          21.351         1.89637 
        3.18879         21.1805         1.87316 
        3.20447         21.0481         1.85038 
         3.2202         20.7816          1.8279 
         3.2359          20.576         1.80583 
        3.25157          20.393         1.78418 
        3.26729         20.2741         1.76282 
        3.28304         20.0696         1.74177 
        3.29877         19.8919         1.72109 
        3.31446         19.7144         1.70079 
        3.33014         19.4764         1.68083 
        3.34585         19.4088         1.66117 
        3.36158          19.124         1.64179 
        3.37727         19.0116         1.62278 
        3.39294         18.8738         1.60408 
        3.40867         18.6751         1.58562 
        3.42439         18.4733         1.56746 
        3.44008         18.3134         1.54961 
        3.45578         18.1488         1.53203 
        3.47153         18.0032         1.51469 
        3.48724         17.8735         1.49764 
        3.50292          17.686         1.48089 
        3.51859         17.5495         1.46441 
        3.53431         17.3837         1.44813 
        3.55007          17.198         1.43206 
        3.56577         17.1094         1.41629 
        3.58146         16.9081         1.40077 
        3.59719          16.786         1.38545 
        3.61292         16.6441         1.37035 
        3.62859         16.4363         1.35554 
        3.64429         16.3113         1.34093 
        3.66003         16.2346         1.32648 
        3.67578         16.1327         1.31225 
        3.69146          15.927         1.29828 
        3.70712          15.793         1.28454 
        3.72284         15.6536         1.27095 
        3.73853         15.5691         1.25758 
        3.75422         15.3393         1.24439 
        3.76993         15.2585         1.23139 
        3.78564         15.1136         1.21857 
        3.80137         14.9755         1.20592 
        3.81707         14.8327         1.19347 
        3.83279         14.7687         1.18119 
        3.84853         14.5985         1.16906 
        3.86424         14.4466         1.15713 
        3.87992         14.3883         1.14538 
        3.89561          14.242         1.13379 
        3.91134         14.1466         1.12234 
        3.92704         14.0184         1.11106 
        3.94273           13.89         1.09994 
        3.95845         13.7718         1.08896 
        3.97418         13.6299         1.07812 
        3.98988          13.544         1.06745 
        4.00554         13.4179         1.05695 
        4.02125         13.3072         1.04656 
        4.03698         13.2293          1.0363 
        4.05268         13.1023         1.02619 
        4.06839         12.9593         1.01622 
         4.0841         12.8879         1.00638 
        4.09983         12.7301        0.996653 
        4.11555         12.6568         0.98706 
        4.13124         12.5474         0.97762 
        4.14693         12.4532        0.968296 
        4.16266         12.3413        0.959072 
        4.17839         12.2233        0.949973 
        4.19408         12.1577        0.941013 
        4.20977         12.0479        0.932165 
        4.22551         11.9451        0.923409 
        4.24123         11.8631        0.914774 
        4.25691         11.7426        0.906274 
        4.27259         11.6426        0.897878 
        4.28831         11.5928        0.889572 
        4.30404         11.4696        0.881363 
        4.31974         11.3902        0.873276 
        4.33543         11.2501        0.865295 
        4.35116          11.208        0.857394 
        4.36688         11.0804        0.849594 
        4.38255         10.9847        0.841921 
        4.39825         10.9182        0.834326 
        4.41398         10.8418        0.826809 
         4.4297         10.7371        0.819393 
        4.44541         10.6686         0.81207 
        4.46111          10.572        0.804841 
        4.47683         10.4734        0.797695 
        4.49251         10.3942         0.79065 
        4.50819          10.314        0.783692 
         4.5239         10.2537        0.776808 
        4.53962         10.1529        0.769998 
        4.55535         10.0723        0.763266 
        4.57106         10.0306        0.756624 
        4.58678         9.93212         0.75006 
         4.6025         9.86534        0.743572 
        4.61821         9.79782        0.737162 
        4.63391         9.69219        0.730836 
         4.6496         9.61031        0.724586 
        4.66532         9.55906          0.7184 
        4.68103         9.45432        0.712289 
        4.69673         9.39134        0.706254 
        4.71241         9.32502        0.700296 
        4.72811         9.25229        0.694396 
        4.74384         9.20169        0.688557 
        4.75955         9.11074        0.682794 
        4.77525         9.03926          0.6771 
        4.79096         8.98849        0.671464 
        4.80669         8.89746        0.665889 
         4.8224         8.84667        0.660384 
        4.83809         8.77048        0.654947 
        4.85379         8.72067        0.649567 
         4.8695         8.64432        0.644244 
        4.88521         8.56161        0.638983 
        4.90093         8.53085        0.633779 
        4.91663          8.4411        0.628638 
        4.93234         8.39077        0.623549 
        4.94807         8.32746        0.618512 
        4.96377         8.27006        0.613541 
        4.97943           8.204        0.608635 
        4.99514         8.14141        0.603769 
        5.01086         8.09515        0.598953 
        5.02654         8.01507        0.594202 
        5.04227         7.95723        0.589489 
          5.058         7.91065        0.584824 
        5.07371         7.86507        0.580219 
        5.08942         7.77622        0.575662 
        5.10513         7.71527        0.571155 
        5.12084         7.66633        0.566693 
        5.13656         7.62461         0.56228 
        5.15225         7.55937        0.557921 
        5.16796         7.49913        0.553601 
        5.18369         7.45411        0.549323 
         5.1994         7.41083        0.545098 
        5.21509         7.35146        0.540921 
        5.23079         7.27337        0.536784 
        5.24649         7.24748        0.532692 
        5.26217          7.1929        0.528646 
        5.27788         7.13848        0.524636 
        5.29359         7.08675        0.520668 
        5.30933         7.01211        0.516734 
        5.32504         6.98683        0.512848 
        5.34073         6.93078        0.509005 
        5.35646         6.89348        0.505195 
        5.37218          6.8439        0.501423 
        5.38789         6.78804        0.497695 
        5.40357         6.73652        0.494009 
        5.41929         6.70807        0.490353 
        5.43502         6.64588        0.486733 
         5.4507         6.60129        0.483158 
        5.46639         6.55421        0.479619 
        5.48212         6.50342        0.476107 
        5.49786         6.46263        0.472625 
        5.51353         6.43107        0.469196 
        5.52921         6.36976        0.465798 
        5.54495         6.32885        0.462423 
        5.56066         6.29304        0.459085 
        5.57637         6.24325         0.45578 
        5.59207         6.18622        0.452511 
        5.60778         6.16639        0.449273 
        5.62346         6.11592        0.446071 
        5.63916         6.07984        0.442897 
        5.65487         6.02884        0.439752 
         5.6706         5.99482        0.436634 
        5.68633          5.9552        0.433545 
        5.70203         5.91881        0.430493 
        5.71773         5.87141         0.42747 
        5.73344         5.84218        0.424475 
        5.74916         5.79354        0.421505 
        5.76486         5.76205        0.418568 
        5.78054         5.71073        0.415664 
        5.79626         5.68309        0.412779 
          5.812         5.64098        0.409918 
         5.8277         5.59777        0.407093 
        5.84339          5.5639        0.404294 
        5.85911         5.52386        0.401517 
        5.87484         5.49262        0.398766 
        5.89053          5.4498        0.396046 
        5.90623         5.42463         0.39335 
        5.92195         5.39041        0.390675 
        5.93767         5.35061        0.388026 
        5.95336         5.31405        0.385406 
        5.96905         5.27286        0.382811 
        5.98476         5.25036        0.380236 
        6.00048         5.20763        0.377684 
        6.01617         5.17927        0.375159 
        6.03185         5.15282         0.37266 
        6.04756         5.12574        0.370178 
        6.06331         5.07294        0.367713 
        6.07903         5.03674        0.365275 
        6.09473         5.00786        0.362862 
        6.11044         4.97233        0.360469 
        6.12616         4.94662        0.358098 
        6.14186         4.91402         0.35575 
        6.15755         4.88491        0.353423 
        6.17326         4.85738        0.351116 
        6.18898         4.82922        0.348828 
        6.20467         4.79453        0.346564 
        6.22036         4.76431        0.344321 
         6.2361         4.73496        0.342091 
         6.2518         4.70206        0.339885 
        6.26748         4.68196        0.337703 
        6.28319         4.64925        0.335534 
        6.29893         4.61551        0.333383 
        6.31463         4.59085        0.331254 
        6.33033         4.55919        0.329144 
        6.34604         4.53219        0.327051 
        6.36177         4.50185        0.324974 
        6.37747         4.47934        0.322919 
