# k  (h/Mpc)    Pcb(k)  (Mpc/h)^3    Pcb_linear(k) (Mpc/h)^3   ShotnoiseSubtracted = true
      0.0200456         11204.3         11370.7 
      0.0350414         8481.96         8266.09 
      0.0492313         5952.38         6005.99 
      0.0637834         4818.01         4992.72 
      0.0800726         3796.21          3962.6 
       0.096163         2972.97         2875.21 
       0.111083         2414.98         2293.34 
       0.126058         2014.74         2032.37 
       0.142273         1735.94         1721.86 
       0.158546         1424.83         1359.91 
        0.17375         1245.19         1145.72 
       0.188953         1151.91         1037.43 
       0.204907         983.384         917.912 
       0.220756         880.976         776.609 
        0.23588         782.317         675.582 
         0.2514         700.507          613.76 
       0.267535          678.47         555.347 
       0.283568         592.501         489.742 
       0.299022         564.095         436.334 
       0.314451         567.776          398.78 
       0.330372         487.986         365.836 
       0.346141         452.194         332.052 
       0.361624         431.406          301.79 
       0.377134         402.415         277.694 
       0.392932          390.68         256.945 
       0.408854         371.181         236.854 
       0.424564         358.156         218.311 
       0.440253         323.658           202.4 
       0.455999          309.36         188.564 
       0.471626         309.208         175.849 
        0.48727         293.816         163.956 
       0.502856         269.172         153.271 
       0.518488         270.108         143.737 
       0.534347          250.85         134.874 
       0.550082         244.132         126.702 
       0.565732         242.375         119.225 
       0.581496         228.347         112.378 
       0.597222         222.574         106.098 
       0.612804         216.241         100.323 
       0.628434         208.689         94.9411 
       0.644267         199.215         89.9091 
       0.660051         195.309         85.2713 
       0.675724          193.18         80.9889 
       0.691403         187.996         76.9969 
       0.707174         181.528         73.2516 
       0.722871         178.682         69.7702 
        0.73838         176.866         66.5524 
       0.754018         166.813         63.5132 
       0.769845         166.683         60.6307 
        0.78569           162.3         57.9248 
       0.801365         157.611         55.4109 
       0.817031         153.644         53.0485 
       0.832809         151.078         50.8095 
       0.848511         147.445         48.7104 
       0.864097         144.587         46.7449 
       0.879701         143.057         44.8865 
       0.895507         139.144         43.1077 
       0.911279         135.521         41.4294 
        0.92691         133.088         39.8547 
       0.942635          130.78         38.3536 
       0.958396         128.938          36.927 
       0.974128         126.198         35.5759 
       0.989692         123.075         34.3059 
        1.00528         121.752         33.0964 
        1.02113         118.596         31.9265 
        1.03692         117.857         30.8176 
        1.05264         116.359         29.7668 
        1.06832         113.233         28.7668 
        1.08405         111.884         27.8102 
        1.09979         111.082         26.8968 
        1.11537         108.171         26.0336 
        1.13105         107.082         25.2033 
        1.14679         105.173         24.4061 
        1.16256         103.151          23.642 
        1.17828         102.186         22.9132 
        1.19395         99.5462         22.2177 
         1.2097         99.1545         21.5477 
        1.22537         96.9369         20.9086 
          1.241         96.4898         20.2975 
        1.25666         93.4378         19.7093 
        1.27241         92.3914         19.1418 
        1.28819         91.9182         18.5957 
        1.30392         90.1702         18.0727 
        1.31957         89.0208         17.5721 
        1.33529         87.8574         17.0887 
        1.35108           87.34         16.6216 
        1.36674         85.6567         16.1754 
         1.3824         85.2176          15.746 
        1.39811         82.9989         15.3308 
        1.41389         82.0237         14.9291 
        1.42964         80.7567         14.5424 
        1.44531           80.16         14.1714 
        1.46101         79.2862         13.8126 
        1.47667         78.2677         13.4673 
        1.49229         77.4169         13.1348 
        1.50793         76.2086         12.8131 
        1.52367         75.6408         12.5002 
        1.53953         74.4989         12.1956 
        1.55526         73.1987         11.9037 
        1.57092         73.0667         11.6225 
        1.58662         72.0061         11.3498 
        1.60235         70.9427         11.0853 
        1.61809         69.9096         10.8292 
        1.63369         69.0265         10.5834 
        1.64941         68.9302         10.3435 
        1.66519         67.2159         10.1102 
        1.68085         66.6996         9.88576 
        1.69652         65.4338         9.66809 
        1.71228         64.9186         9.45575 
        1.72806         64.5126         9.24963 
        1.74368         63.4636         9.05174 
        1.75933         62.9133         8.85925 
        1.77505         62.2968         8.67147 
        1.79081         61.2838         8.48881 
         1.8065         61.0657          8.3122 
        1.82218         59.3874         8.14079 
        1.83797         59.0933         7.97304 
        1.85367         58.4741         7.81095 
        1.86928         57.9413         7.65435 
        1.88497         57.0995          7.5012 
        1.90073          56.313         7.35168 
        1.91647         55.9645         7.20637 
        1.93218         55.4383         7.06531 
        1.94787            54.6         6.92824 
        1.96363         53.8427         6.79426 
        1.97935         53.3118         6.66411 
        1.99499         52.7755         6.53811 
        2.01064         52.1782         6.41519 
         2.0264         51.7923         6.29466 
        2.04216         50.9737         6.17729 
        2.05781         50.3775         6.06366 
        2.07353         49.6421         5.95248 
        2.08928         49.3428         5.84386 
        2.10499         48.8831         5.73823 
        2.12065         48.3224         5.63554 
        2.13633         47.9423         5.53528 
        2.15211         47.2303         5.43681 
        2.16785          46.486         5.34102 
        2.18349         46.0166         5.24813 
        2.19916         45.5621         5.15727 
        2.21489         45.3394         5.06825 
        2.23063         44.5782         4.98128 
         2.2463         44.2285         4.89674 
        2.26194         43.8417         4.81438 
        2.27765         43.2124         4.73349 
        2.29341         42.5842         4.65425 
        2.30914         42.2236         4.57699 
        2.32486         41.6506         4.50153 
        2.34061         41.3638         4.42764 
        2.35635         40.8057         4.35548 
        2.37203         40.4391         4.28519 
        2.38768         40.1811         4.21658 
        2.40339          39.759         4.14924 
        2.41914         39.3654         4.08321 
        2.43483         38.6357         4.01885 
         2.4505         38.5079         3.95598 
        2.46622          38.064         3.89425 
        2.48195         37.6776         3.83383 
        2.49759         37.2005         3.77501 
        2.51328         36.8473         3.71728 
        2.52906         36.4989         3.66039 
        2.54479         36.1405          3.6049 
        2.56049         35.7402         3.55067 
        2.57618         35.4111         3.49761 
        2.59189         34.9679         3.44555 
        2.60758         34.5444         3.39463 
        2.62325         34.4875          3.3448 
        2.63898          33.993          3.2958 
        2.65468         33.5815         3.24788 
        2.67044         33.3485         3.20072 
        2.68618         33.0483          3.1546 
        2.70184         32.6075         3.10957 
        2.71755         32.3369         3.06531 
        2.73329         31.9129         3.02184 
        2.74897          31.605         2.97936 
        2.76462         31.2827         2.93779 
        2.78034         31.0564         2.89684 
        2.79607         30.6652         2.85663 
        2.81179         30.4492         2.81722 
        2.82749          30.108         2.77861 
        2.84321         29.7919         2.74068 
        2.85893         29.5156         2.70346 
        2.87462         29.2888           2.667 
        2.89033         28.9541         2.63118 
        2.90605         28.7495         2.59599 
        2.92176         28.5241         2.56146 
        2.93747          28.155         2.52757 
        2.95318         27.9339         2.49429 
        2.96891         27.6769          2.4616 
        2.98456          27.356         2.42964 
        3.00023         27.0242         2.39819 
        3.01596         26.7904         2.36721 
        3.03164         26.5168         2.33686 
        3.04738         26.3476         2.30695 
         3.0631         26.1024         2.27758 
        3.07883         25.7437         2.24872 
        3.09456         25.4904         2.22036 
        3.11026         25.2308         2.19254 
        3.12596         24.9661         2.16519 
        3.14163         24.7708         2.13838 
        3.15734         24.5956         2.11196 
        3.17308         24.2736         2.08592 
        3.18879         24.1052         2.06039 
        3.20447         23.8574         2.03532 
         3.2202         23.5935         2.01059 
         3.2359         23.4049         1.98632 
        3.25157         23.2063         1.96251 
        3.26729         23.0467         1.93901 
        3.28304         22.7462         1.91586 
        3.29877         22.5322         1.89311 
        3.31446         22.3665         1.87078 
        3.33014         22.1264         1.84883 
        3.34585          21.988          1.8272 
        3.36158         21.7002         1.80588 
        3.37727         21.5298         1.78497 
        3.39294         21.3783         1.76441 
        3.40867         21.1612          1.7441 
        3.42439          20.952         1.72412 
        3.44008         20.7233         1.70449 
        3.45578         20.5926         1.68516 
        3.47153         20.3615         1.66608 
        3.48724         20.2692         1.64733 
        3.50292         20.0094         1.62891 
        3.51859         19.8629         1.61078 
        3.53431         19.7081         1.59287 
        3.55007         19.4708         1.57519 
        3.56577         19.3371         1.55785 
        3.58146         19.1135         1.54078 
        3.59719         18.9686         1.52392 
        3.61292         18.8046         1.50732 
        3.62859         18.5797         1.49103 
        3.64429         18.3871         1.47495 
        3.66003         18.3351         1.45906 
        3.67578         18.1737         1.44341 
        3.69146         17.9495         1.42804 
        3.70712         17.7892         1.41293 
        3.72284         17.6613         1.39798 
        3.73853         17.5215         1.38327 
        3.75422         17.3458         1.36877 
        3.76993         17.1838         1.35447 
        3.78564           17.05         1.34037 
        3.80137         16.8929         1.32645 
        3.81707         16.7517         1.31276 
        3.83279         16.5715         1.29925 
        3.84853          16.424         1.28591 
        3.86424          16.275         1.27278 
        3.87992         16.1546         1.25986 
        3.89561         16.0252         1.24711 
        3.91134         15.8985         1.23451 
        3.92704         15.7823         1.22211 
        3.94273         15.6469         1.20988 
        3.95845         15.4505          1.1978 
        3.97418         15.3291         1.18588 
        3.98988           15.21         1.17414 
        4.00554         15.1159         1.16259 
        4.02125         14.9247         1.15117 
        4.03698         14.8018         1.13988 
        4.05268         14.7298         1.12876 
        4.06839          14.567         1.11779 
         4.0841         14.4653         1.10696 
        4.09983         14.2639         1.09627 
        4.11555         14.2315         1.08572 
        4.13124         14.1103         1.07533 
        4.14693         13.9514         1.06508 
        4.16266         13.8798         1.05493 
        4.17839         13.7251         1.04492 
        4.19408         13.6048         1.03507 
        4.20977         13.5283         1.02533 
        4.22551         13.3847          1.0157 
        4.24123         13.2686          1.0062 
        4.25691         13.1601        0.996855 
        4.27259         13.0438         0.98762 
        4.28831         12.9866        0.978484 
        4.30404         12.8977        0.969455 
        4.31974         12.7606        0.960559 
        4.33543         12.6235         0.95178 
        4.35116           12.54         0.94309 
        4.36688         12.4083        0.934511 
        4.38255          12.342        0.926071 
        4.39825         12.2282        0.917716 
        4.41398         12.1263        0.909448 
         4.4297         12.0188        0.901291 
        4.44541         11.9331        0.893235 
        4.46111         11.8365        0.885284 
        4.47683         11.7255        0.877424 
        4.49251         11.6266        0.869675 
        4.50819         11.5338        0.862021 
         4.5239         11.4632        0.854449 
        4.53962         11.3705        0.846958 
        4.55535         11.2606        0.839554 
        4.57106         11.2172        0.832248 
        4.58678         11.0956        0.825028 
         4.6025         11.0135        0.817891 
        4.61821         10.9203        0.810841 
        4.63391          10.851        0.803882 
         4.6496         10.7599        0.797008 
        4.66532          10.681        0.790204 
        4.68103         10.5741        0.783482 
        4.69673         10.4824        0.776844 
        4.71241         10.4142         0.77029 
        4.72811         10.3406        0.763801 
        4.74384         10.2403        0.757378 
        4.75955         10.1741        0.751039 
        4.77525          10.085        0.744775 
        4.79096         10.0367        0.738576 
        4.80669         9.92615        0.732444 
         4.8224         9.85724        0.726389 
        4.83809         9.77443        0.720408 
        4.85379         9.71153        0.714491 
         4.8695         9.62813        0.708636 
        4.88521         9.53517        0.702848 
        4.90093         9.48429        0.697125 
        4.91663          9.3902         0.69147 
        4.93234         9.34153        0.685872 
        4.94807         9.24337        0.680332 
        4.96377         9.20841        0.674864 
        4.97943         9.11906        0.669467 
        4.99514         9.04386        0.664116 
        5.01086         9.00981        0.658818 
        5.02654          8.9207        0.653592 
        5.04227         8.84166        0.648408 
          5.058         8.77324        0.643277 
        5.07371         8.71668        0.638211 
        5.08942         8.65676          0.6332 
        5.10513         8.57654        0.628241 
        5.12084         8.54487        0.623333 
        5.13656          8.4682        0.618479 
        5.15225         8.38583        0.613684 
        5.16796         8.33686        0.608933 
        5.18369         8.27035        0.604228 
         5.1994         8.21894         0.59958 
        5.21509         8.16824        0.594986 
        5.23079         8.08716        0.590435 
        5.24649          8.0295        0.585934 
        5.26217         7.98186        0.581484 
        5.27788         7.92343        0.577073 
        5.29359         7.86526        0.572708 
        5.30933         7.80219        0.568381 
        5.32504          7.7602        0.564106 
        5.34073         7.70599         0.55988 
        5.35646         7.62296        0.555689 
        5.37218         7.58456        0.551539 
        5.38789         7.51155        0.547439 
        5.40357         7.47453        0.543385 
        5.41929         7.42956        0.539363 
        5.43502         7.37257        0.535382 
         5.4507         7.31824         0.53145 
        5.46639         7.27041        0.527556 
        5.48212          7.2131        0.523693 
        5.49786         7.17587        0.519864 
        5.51353         7.12957        0.516092 
        5.52921         7.05513        0.512354 
        5.54495         7.00359        0.508641 
        5.56066         6.95959         0.50497 
        5.57637         6.93289        0.501335 
        5.59207         6.87526        0.497739 
        5.60778         6.81921        0.494177 
        5.62346         6.77478        0.490655 
        5.63916          6.7348        0.487164 
        5.65487         6.69203        0.483705 
         5.6706         6.64516        0.480276 
        5.68633         6.59955        0.476878 
        5.70203         6.55403         0.47352 
        5.71773         6.51023        0.470195 
        5.73344         6.46167        0.466901 
        5.74916         6.40374        0.463634 
        5.76486         6.37446        0.460404 
        5.78054         6.31988        0.457209 
        5.79626         6.27818        0.454036 
          5.812         6.24022        0.450889 
         5.8277         6.19589        0.447782 
        5.84339         6.16113        0.444703 
        5.85911         6.10975        0.441648 
        5.87484         6.08141        0.438622 
        5.89053         6.03238         0.43563 
        5.90623         5.99929        0.432665 
        5.92195         5.95015        0.429722 
        5.93767         5.92335        0.426809 
        5.95336         5.86469        0.423927 
        5.96905         5.83972        0.421072 
        5.98476         5.79998         0.41824 
        6.00048         5.75965        0.415433 
        6.01617         5.71473        0.412656 
        6.03185         5.68809        0.409907 
        6.04756         5.65033        0.407177 
        6.06331         5.60848        0.404465 
        6.07903         5.56359        0.401784 
        6.09473         5.53597         0.39913 
        6.11044         5.49155        0.396498 
        6.12616         5.46037        0.393889 
        6.14186         5.42595        0.391307 
        6.15755         5.39873        0.388748 
        6.17326         5.35962         0.38621 
        6.18898         5.32026        0.383693 
        6.20467         5.28785        0.381203 
        6.22036         5.25917        0.378735 
         6.2361         5.22424        0.376283 
         6.2518         5.18458        0.373856 
        6.26748         5.15309        0.371456 
        6.28319         5.12566        0.369071 
        6.29893         5.09191        0.366704 
        6.31463         5.07048        0.364362 
        6.33033         5.01967        0.362041 
        6.34604         4.99944        0.359739 
        6.36177         4.96233        0.357455 
        6.37747         4.93049        0.355195 
