# k  (h/Mpc)    Pcb(k)  (Mpc/h)^3    Pcb_linear(k) (Mpc/h)^3   ShotnoiseSubtracted = true
      0.0200456         3182.75         3231.65 
      0.0350414         2319.66          2349.3 
      0.0492313         1708.63         1706.96 
      0.0637834         1438.21         1418.98 
      0.0800726         1140.13         1126.21 
       0.096163         810.349         817.161 
       0.111083         642.778         651.789 
       0.126058         583.249         577.617 
       0.142273         499.668         489.369 
       0.158546         401.028         386.499 
        0.17375         328.451         325.625 
       0.188953         306.375         294.846 
       0.204907         283.172         260.879 
       0.220756         236.199         220.719 
        0.23588         205.958         192.007 
         0.2514         183.396         174.436 
       0.267535         170.278         157.835 
       0.283568         152.805         139.189 
       0.299022         139.131          124.01 
       0.314451         125.072         113.337 
       0.330372         116.319         103.974 
       0.346141         105.241         94.3721 
       0.361624          98.173         85.7713 
       0.377134         92.3483         78.9232 
       0.392932         82.3268          73.026 
       0.408854         79.2508         67.3159 
       0.424564         75.0528          62.046 
       0.440253         69.2913         57.5239 
       0.455999         65.2731         53.5917 
       0.471626         60.8677          49.978 
        0.48727         58.3089         46.5976 
       0.502856         54.8981         43.5609 
       0.518488         52.5442         40.8513 
       0.534347          50.464         38.3323 
       0.550082          46.216         36.0097 
       0.565732         43.3836         33.8849 
       0.581496         42.2898         31.9388 
       0.597222         40.8895          30.154 
       0.612804         38.2488         28.5128 
       0.628434          36.981         26.9831 
       0.644267         35.9986          25.553 
       0.660051         34.2572         24.2349 
       0.675724         32.5232         23.0178 
       0.691403         31.4989         21.8832 
       0.707174         30.4907         20.8188 
       0.722871          29.277         19.8293 
        0.73838         28.2734         18.9148 
       0.754018         27.1055          18.051 
       0.769845         26.3126         17.2318 
        0.78569         25.4756         16.4627 
       0.801365         24.5335         15.7483 
       0.817031         23.9269         15.0769 
       0.832809         23.4319         14.4405 
       0.848511         22.0185         13.8439 
       0.864097         21.6362         13.2853 
       0.879701         21.0968         12.7571 
       0.895507         20.4853         12.2516 
       0.911279         19.9014         11.7746 
        0.92691           19.39         11.3271 
       0.942635         18.6142         10.9004 
       0.958396         18.2449          10.495 
       0.974128         17.7082          10.111 
       0.989692          17.538         9.75006 
        1.00528          17.071          9.4063 
        1.02113          16.366         9.07379 
        1.03692         16.0165         8.75865 
        1.05264         15.7119         8.45999 
        1.06832         15.3331         8.17578 
        1.08405         14.8855         7.90392 
        1.09979         14.5811         7.64431 
        1.11537         14.3219         7.39898 
        1.13105         14.0184         7.16299 
        1.14679         13.8026         6.93643 
        1.16256          13.298         6.71926 
        1.17828         13.2755         6.51214 
        1.19395         12.7761         6.31448 
         1.2097         12.6215         6.12405 
        1.22537         12.2887         5.94241 
          1.241         12.1096         5.76872 
        1.25666         11.8504         5.60157 
        1.27241         11.5609         5.44027 
        1.28819         11.3409         5.28508 
        1.30392         11.2398         5.13641 
        1.31957         11.0308         4.99414 
        1.33529         10.8301         4.85675 
        1.35108         10.5538         4.72401 
        1.36674         10.4919         4.59719 
         1.3824         10.1894         4.47516 
        1.39811         10.0423         4.35716 
        1.41389          9.8929         4.24298 
        1.42964         9.76857         4.13309 
        1.44531           9.619         4.02765 
        1.46101         9.37431         3.92567 
        1.47667         9.26857         3.82753 
        1.49229         9.15036         3.73302 
        1.50793         8.97207          3.6416 
        1.52367         8.83184         3.55267 
        1.53953         8.69717         3.46611 
        1.55526           8.574         3.38314 
        1.57092         8.47267         3.30323 
        1.58662         8.34183         3.22572 
        1.60235          8.2111         3.15055 
        1.61809         8.09092         3.07775 
        1.63369         7.96953         3.00789 
        1.64941         7.85218         2.93972 
        1.66519         7.78571         2.87341 
        1.68085         7.64528         2.80962 
        1.69652         7.52569         2.74776 
        1.71228         7.42584         2.68741 
        1.72806         7.36605         2.62883 
        1.74368          7.2258         2.57259 
        1.75933         7.16456         2.51788 
        1.77505         7.06473         2.46451 
        1.79081          6.9267          2.4126 
         1.8065         6.89141          2.3624 
        1.82218          6.7764         2.31369 
        1.83797          6.7319         2.26601 
        1.85367         6.60727         2.21994 
        1.86928         6.59236         2.17544 
        1.88497          6.4444         2.13191 
        1.90073         6.37509         2.08941 
        1.91647         6.33208         2.04812 
        1.93218         6.25138         2.00802 
        1.94787         6.16764         1.96907 
        1.96363         6.10999         1.93099 
        1.97935         6.01126           1.894 
        1.99499         5.93571         1.85819 
        2.01064         5.88229         1.82325 
         2.0264         5.81835           1.789 
        2.04216         5.76243         1.75564 
        2.05781         5.68659         1.72335 
        2.07353          5.6348         1.69175 
        2.08928         5.58776         1.66088 
        2.10499         5.53608         1.63086 
        2.12065         5.46115         1.60167 
        2.13633         5.41392         1.57318 
        2.15211         5.33505         1.54519 
        2.16785         5.28265         1.51797 
        2.18349         5.22991         1.49157 
        2.19916         5.16498         1.46574 
        2.21489         5.12247         1.44044 
        2.23063         5.06993         1.41572 
         2.2463         5.01906          1.3917 
        2.26194         4.95196         1.36829 
        2.27765         4.93571          1.3453 
        2.29341         4.86903         1.32278 
        2.30914         4.82433         1.30082 
        2.32486          4.7626         1.27937 
        2.34061         4.74506         1.25838 
        2.35635          4.6945         1.23787 
        2.37203         4.66134         1.21789 
        2.38768          4.6032         1.19839 
        2.40339          4.5586         1.17925 
        2.41914         4.49939         1.16048 
        2.43483         4.49471         1.14219 
         2.4505          4.4283         1.12433 
        2.46622         4.40202         1.10678 
        2.48195          4.3456         1.08961 
        2.49759         4.33309         1.07289 
        2.51328         4.28069         1.05648 
        2.52906         4.26607         1.04032 
        2.54479         4.20187         1.02455 
        2.56049         4.18196         1.00913 
        2.57618         4.12845        0.994051 
        2.59189         4.10805        0.979255 
        2.60758          4.0815        0.964784 
        2.62325         4.03369        0.950622 
        2.63898         3.98359        0.936696 
        2.65468          3.9627        0.923078 
        2.67044         3.93013        0.909673 
        2.68618         3.90624        0.896565 
        2.70184         3.86205        0.883767 
        2.71755          3.8376        0.871188 
        2.73329         3.80978        0.858834 
        2.74897         3.79529         0.84676 
        2.76462         3.75705        0.834946 
        2.78034         3.70378        0.823307 
        2.79607         3.68313        0.811879 
        2.81179         3.66772         0.80068 
        2.82749         3.61279        0.789706 
        2.84321         3.60914        0.778925 
        2.85893          3.5768        0.768348 
        2.87462         3.55107        0.757986 
        2.89033         3.52363        0.747806 
        2.90605         3.49483        0.737804 
        2.92176         3.45686         0.72799 
        2.93747         3.43693        0.718359 
        2.95318         3.41245        0.708901 
        2.96891         3.39866        0.699609 
        2.98456         3.36796        0.690524 
        3.00023         3.33217        0.681588 
        3.01596         3.31545        0.672782 
        3.03164          3.2956        0.664156 
        3.04738         3.26653        0.655657 
         3.0631         3.24137        0.647309 
        3.07883         3.22557        0.639107 
        3.09456         3.19726        0.631047 
        3.11026         3.17898        0.623139 
        3.12596         3.14673        0.615368 
        3.14163         3.12481        0.607747 
        3.15734         3.10166        0.600237 
        3.17308         3.08824        0.592836 
        3.18879         3.06698         0.58558 
        3.20447         3.05333        0.578456 
         3.2202         3.01415        0.571429 
         3.2359         3.01186        0.564531 
        3.25157         2.98405        0.557763 
        3.26729         2.95935        0.551085 
        3.28304         2.94731        0.544504 
        3.29877         2.92919        0.538039 
        3.31446          2.9004        0.531692 
        3.33014         2.89002        0.525454 
        3.34585         2.86911        0.519307 
        3.36158         2.85599        0.513248 
        3.37727         2.81814        0.507305 
        3.39294         2.81725        0.501462 
        3.40867         2.78762        0.495689 
        3.42439         2.77572        0.490011 
        3.44008         2.75631        0.484433 
        3.45578         2.74275        0.478937 
        3.47153         2.72151        0.473514 
        3.48724         2.70917        0.468185 
        3.50292          2.6999        0.462951 
        3.51859          2.6714        0.457798 
        3.53431         2.65623        0.452709 
        3.55007         2.64385        0.447684 
        3.56577         2.62213        0.442755 
        3.58146         2.61305        0.437903 
        3.59719         2.59542        0.433112 
        3.61292         2.57971        0.428394 
        3.62859         2.55773        0.423764 
        3.64429         2.53993        0.419194 
        3.66003         2.53825        0.414677 
        3.67578          2.5181        0.410229 
        3.69146         2.49911        0.405862 
        3.70712         2.48468        0.401567 
        3.72284         2.46919        0.397319 
        3.73853         2.45522        0.393139 
        3.75422         2.43996        0.389017 
        3.76993         2.41555        0.384951 
        3.78564         2.41012        0.380945 
        3.80137         2.39745        0.376989 
        3.81707         2.37377        0.373098 
        3.83279         2.36324        0.369259 
        3.84853         2.35834        0.365467 
        3.86424         2.33738        0.361736 
        3.87992          2.3254        0.358062 
        3.89561         2.30689         0.35444 
        3.91134         2.30458         0.35086 
        3.92704         2.28608        0.347333 
        3.94273         2.27107        0.343859 
        3.95845         2.25888        0.340426 
        3.97418         2.24073        0.337038 
        3.98988         2.22536        0.333702 
        4.00554         2.20821         0.33042 
        4.02125         2.20244        0.327172 
        4.03698          2.1884        0.323963 
        4.05268         2.17727        0.320804 
        4.06839         2.16428        0.317686 
         4.0841         2.15012        0.314609 
        4.09983         2.13255        0.311569 
        4.11555         2.12324         0.30857 
        4.13124         2.11246        0.305619 
        4.14693         2.09355        0.302704 
        4.16266          2.0832        0.299821 
        4.17839         2.07001        0.296976 
        4.19408         2.05765        0.294175 
        4.20977         2.04108        0.291409 
        4.22551         2.03441        0.288672 
        4.24123         2.02161        0.285973 
        4.25691         2.00995        0.283315 
        4.27259         1.99432        0.280691 
        4.28831         1.98731        0.278094 
        4.30404         1.97409        0.275528 
        4.31974         1.96267           0.273 
        4.33543         1.95042        0.270504 
        4.35116         1.94186        0.268035 
        4.36688         1.93049        0.265596 
        4.38255          1.9139        0.263198 
        4.39825         1.90754        0.260823 
        4.41398         1.89312        0.258473 
         4.4297         1.88543        0.256155 
        4.44541         1.87319        0.253866 
        4.46111          1.8645        0.251606 
        4.47683         1.85287        0.249372 
        4.49251          1.8445        0.247169 
        4.50819         1.83621        0.244994 
         4.5239         1.82643        0.242842 
        4.53962         1.81761        0.240713 
        4.55535         1.80651        0.238609 
        4.57106         1.79687        0.236532 
        4.58678         1.78981         0.23448 
         4.6025         1.78008        0.232452 
        4.61821         1.76621        0.230448 
        4.63391         1.76015        0.228471 
         4.6496          1.7518        0.226517 
        4.66532         1.74448        0.224583 
        4.68103          1.7366        0.222673 
        4.69673         1.72716        0.220786 
        4.71241         1.71736        0.218923 
        4.72811         1.70823        0.217079 
        4.74384         1.70379        0.215254 
        4.75955         1.69269        0.213452 
        4.77525         1.68557        0.211672 
        4.79096         1.67829         0.20991 
        4.80669         1.66861        0.208167 
         4.8224         1.66254        0.206446 
        4.83809         1.65667        0.204746 
        4.85379         1.64473        0.203065 
         4.8695         1.63848        0.201401 
        4.88521           1.632        0.199756 
        4.90093         1.62155        0.198129 
        4.91663         1.61603        0.196522 
        4.93234         1.61151        0.194931 
        4.94807         1.60069        0.193357 
        4.96377         1.59487        0.191802 
        4.97943         1.58845        0.190269 
        4.99514         1.57895        0.188748 
        5.01086         1.57539        0.187242 
        5.02654         1.56705        0.185757 
        5.04227          1.5617        0.184283 
          5.058         1.55503        0.182825 
        5.07371         1.54638        0.181385 
        5.08942         1.54044        0.179961 
        5.10513         1.53324        0.178552 
        5.12084         1.52822        0.177157 
        5.13656         1.51959        0.175777 
        5.15225         1.51565        0.174415 
        5.16796         1.50915        0.173064 
        5.18369         1.50148        0.171727 
         5.1994         1.49684        0.170406 
        5.21509          1.4915          0.1691 
        5.23079         1.48529        0.167807 
        5.24649         1.47942        0.166528 
        5.26217         1.47278        0.165263 
        5.27788         1.46406        0.164009 
        5.29359         1.46357        0.162769 
        5.30933         1.45776        0.161539 
        5.32504         1.45052        0.160324 
        5.34073         1.44639        0.159123 
        5.35646         1.44182        0.157932 
        5.37218         1.43406        0.156752 
        5.38789            1.43        0.155587 
        5.40357         1.42332        0.154435 
        5.41929         1.41439        0.153292 
        5.43502         1.41234         0.15216 
         5.4507         1.40347        0.151043 
        5.46639         1.40349        0.149936 
        5.48212         1.39666        0.148838 
        5.49786         1.39033         0.14775 
        5.51353         1.38317        0.146678 
        5.52921         1.37828        0.145616 
        5.54495         1.37298         0.14456 
        5.56066         1.37067        0.143517 
        5.57637          1.3633        0.142484 
        5.59207         1.35893        0.141462 
        5.60778         1.35374         0.14045 
        5.62346         1.35078        0.139449 
        5.63916         1.34881        0.138456 
        5.65487         1.34037        0.137473 
         5.6706         1.33833        0.136499 
        5.68633         1.33137        0.135533 
        5.70203           1.326        0.134579 
        5.71773         1.32142        0.133634 
        5.73344         1.31592        0.132697 
        5.74916         1.31073        0.131769 
        5.76486          1.3062        0.130851 
        5.78054         1.30572        0.129943 
        5.79626         1.30008        0.129041 
          5.812         1.29472        0.128147 
         5.8277         1.28906        0.127264 
        5.84339         1.28615        0.126389 
        5.85911         1.28415         0.12552 
        5.87484         1.27907         0.12466 
        5.89053         1.27406         0.12381 
        5.90623         1.26884        0.122967 
        5.92195         1.26595        0.122131 
        5.93767         1.26153        0.121303 
        5.95336          1.2544        0.120484 
        5.96905         1.25049        0.119673 
        5.98476         1.24907        0.118868 
        6.00048         1.24374         0.11807 
        6.01617         1.24002         0.11728 
        6.03185         1.23461        0.116499 
        6.04756         1.23197        0.115723 
        6.06331         1.22798        0.114953 
        6.07903          1.2252        0.114191 
        6.09473         1.22135        0.113436 
        6.11044         1.21949        0.112688 
        6.12616         1.21259        0.111947 
        6.14186         1.20787        0.111213 
        6.15755          1.2081        0.110486 
        6.17326         1.20263        0.109764 
        6.18898         1.19957        0.109049 
        6.20467         1.19653        0.108341 
        6.22036         1.19083         0.10764 
         6.2361         1.18819        0.106943 
         6.2518         1.18211        0.106253 
        6.26748         1.18183        0.105571 
        6.28319         1.17658        0.104893 
        6.29893         1.17324        0.104221 
        6.31463         1.16703        0.103555 
        6.33033         1.16665        0.102895 
        6.34604         1.16113        0.102241 
        6.36177         1.15825        0.101592 
        6.37747         1.15619        0.100949 
