# k  (h/Mpc)    Pcb(k)  (Mpc/h)^3    Pcb_linear(k) (Mpc/h)^3   ShotnoiseSubtracted = true
      0.0200456         25219.4         25685.5 
      0.0350414         19282.3         18672.5 
      0.0492313           13223         13567.1 
      0.0637834         10654.3         11278.2 
      0.0800726         8352.22         8951.23 
       0.096163         6758.55          6494.9 
       0.111083         5504.69          5180.5 
       0.126058         4546.66         4590.97 
       0.142273          3998.9         3889.57 
       0.158546         3279.36         3071.94 
        0.17375         2952.44         2588.11 
       0.188953         2818.19         2343.47 
       0.204907         2426.64          2073.5 
       0.220756         2201.76          1754.3 
        0.23588         1967.04         1526.09 
         0.2514         1790.02         1386.44 
       0.267535         1721.38         1254.49 
       0.283568         1544.38         1106.29 
       0.299022         1470.38         985.648 
       0.314451          1535.1         900.815 
       0.330372         1374.78         826.397 
       0.346141         1262.94         750.081 
       0.361624         1210.92         681.721 
       0.377134          1166.5         627.291 
       0.392932         1106.07          580.42 
       0.408854         1065.84         535.035 
       0.424564         1044.24          493.15 
       0.440253         976.198         457.207 
       0.455999         933.231         425.953 
       0.471626          945.18         397.231 
        0.48727         894.781         370.364 
       0.502856         869.212         346.227 
       0.518488         836.151         324.691 
       0.534347         809.787          304.67 
       0.550082         773.662          286.21 
       0.565732         759.118         269.321 
       0.581496         742.567         253.853 
       0.597222         731.413         239.668 
       0.612804         711.982         226.623 
       0.628434         683.829         214.465 
       0.644267         666.413         203.098 
       0.660051         659.298         192.622 
       0.675724         647.706         182.948 
       0.691403         624.101          173.93 
       0.707174         609.042          165.47 
       0.722871         605.699         157.606 
        0.73838         588.113         150.337 
       0.754018         577.901         143.472 
       0.769845          568.71          136.96 
        0.78569         555.939         130.848 
       0.801365         539.381         125.169 
       0.817031         533.262         119.833 
       0.832809         524.001         114.775 
       0.848511         515.309         110.033 
       0.864097         506.205         105.593 
       0.879701          507.61         101.395 
       0.895507         487.785         97.3771 
       0.911279         482.711          93.586 
        0.92691         474.762          90.029 
       0.942635         468.074         86.6381 
       0.958396         456.546         83.4154 
       0.974128         448.753         80.3633 
       0.989692          438.63         77.4946 
        1.00528         432.331         74.7624 
        1.02113          424.94         72.1196 
        1.03692         418.954         69.6148 
        1.05264         413.912          67.241 
        1.06832         404.071         64.9821 
        1.08405          402.71         62.8213 
        1.09979         392.953         60.7579 
        1.11537         384.345          58.808 
        1.13105         379.565         56.9323 
        1.14679         372.889         55.1316 
        1.16256          370.62         53.4055 
        1.17828         364.949         51.7593 
        1.19395         356.345         50.1882 
         1.2097         351.427         48.6747 
        1.22537         346.912          47.231 
          1.241         339.837         45.8505 
        1.25666         336.459         44.5219 
        1.27241         333.181           43.24 
        1.28819         324.208         42.0064 
        1.30392         323.192         40.8248 
        1.31957         316.048          39.694 
        1.33529         311.324         38.6021 
        1.35108         310.625          37.547 
        1.36674         302.468          36.539 
         1.3824         297.202         35.5691 
        1.39811         293.528         34.6312 
        1.41389         288.853         33.7237 
        1.42964         284.437         32.8503 
        1.44531         280.087         32.0122 
        1.46101         274.617         31.2017 
        1.47667         272.978         30.4217 
        1.49229         269.311         29.6705 
        1.50793         264.062         28.9439 
        1.52367          259.88          28.237 
        1.53953          256.91         27.5491 
        1.55526         252.441         26.8896 
        1.57092         250.343         26.2545 
        1.58662         245.199         25.6384 
        1.60235         241.695          25.041 
        1.61809         239.855         24.4623 
        1.63369         235.251         23.9071 
        1.64941         232.339         23.3652 
        1.66519         228.871         22.8382 
        1.68085         224.842         22.3312 
        1.69652         222.116         21.8395 
        1.71228         218.717         21.3599 
        1.72806         216.114         20.8942 
        1.74368         213.174         20.4472 
        1.75933         211.283         20.0124 
        1.77505         207.949         19.5882 
        1.79081         205.175         19.1756 
         1.8065         204.034         18.7767 
        1.82218         198.539         18.3895 
        1.83797         196.997         18.0105 
        1.85367          194.22         17.6444 
        1.86928         190.803         17.2906 
        1.88497         188.922         16.9447 
        1.90073         187.314         16.6069 
        1.91647         184.236         16.2787 
        1.93218         181.053           15.96 
        1.94787         178.397         15.6504 
        1.96363         177.426         15.3477 
        1.97935         174.931         15.0537 
        1.99499         172.704         14.7691 
        2.01064          168.98         14.4914 
         2.0264         168.273         14.2192 
        2.04216         165.147          13.954 
        2.05781         163.265         13.6974 
        2.07353         162.123         13.4462 
        2.08928         160.228         13.2008 
        2.10499         157.342         12.9623 
        2.12065         155.792         12.7303 
        2.13633         153.534         12.5038 
        2.15211         151.552         12.2814 
        2.16785         150.111          12.065 
        2.18349         148.165         11.8552 
        2.19916         146.552         11.6499 
        2.21489         143.953         11.4488 
        2.23063         142.287         11.2524 
         2.2463         140.555         11.0614 
        2.26194          139.33         10.8753 
        2.27765         137.149         10.6926 
        2.29341         135.883         10.5136 
        2.30914         133.842         10.3391 
        2.32486         132.591         10.1686 
        2.34061         130.238         10.0017 
        2.35635         129.059         9.83873 
        2.37203         127.685         9.67992 
        2.38768           126.4         9.52496 
        2.40339         124.506         9.37283 
        2.41914         122.573         9.22367 
        2.43483         121.394         9.07828 
         2.4505         120.596         8.93628 
        2.46622         118.279         8.79682 
        2.48195         117.187         8.66034 
        2.49759         115.289         8.52748 
        2.51328         114.216         8.39706 
        2.52906          113.19         8.26855 
        2.54479         111.564         8.14321 
        2.56049         110.264         8.02071 
        2.57618         109.016         7.90084 
        2.59189         108.262         7.78324 
        2.60758         106.673         7.66822 
        2.62325         105.218         7.55566 
        2.63898         103.819         7.44497 
        2.65468         102.936         7.33674 
        2.67044         102.023         7.23019 
        2.68618         100.529         7.12601 
        2.70184          99.628         7.02429 
        2.71755          98.265         6.92431 
        2.73329         96.8732         6.82612 
        2.74897          96.004         6.73016 
        2.76462         95.4329         6.63625 
        2.78034         94.3486         6.54375 
        2.79607         92.8684         6.45291 
        2.81179         91.9948         6.36391 
        2.82749         91.2938         6.27668 
        2.84321         89.7875         6.19099 
        2.85893         88.7201         6.10693 
        2.87462         87.9637         6.02457 
        2.89033         86.9816         5.94365 
        2.90605         85.9466         5.86416 
        2.92176         85.2447         5.78615 
        2.93747         84.2836         5.70961 
        2.95318         83.1184         5.63443 
        2.96891         82.7626         5.56058 
        2.98456         81.2062         5.48837 
        3.00023         80.5626         5.41734 
        3.01596         80.1257         5.34735 
        3.03164         78.8411          5.2788 
        3.04738         78.4588         5.21124 
         3.0631         77.4522         5.14489 
        3.07883         76.6137          5.0797 
        3.09456         75.6262         5.01564 
        3.11026         75.2158         4.95279 
        3.12596         74.1321         4.89102 
        3.14163         73.5338         4.83045 
        3.15734         72.5352         4.77076 
        3.17308         72.0352         4.71193 
        3.18879         71.2412         4.65426 
        3.20447         70.7263         4.59764 
         3.2202         69.5708         4.54179 
         3.2359          69.135         4.48696 
        3.25157         68.4029         4.43317 
        3.26729         67.5269         4.38009 
        3.28304         66.8202         4.32778 
        3.29877         66.2922          4.2764 
        3.31446         65.4883         4.22596 
        3.33014         64.9553         4.17637 
        3.34585         64.1847         4.12751 
        3.36158         63.6855         4.07936 
        3.37727         63.0049         4.03212 
        3.39294         62.3167         3.98568 
        3.40867          61.923          3.9398 
        3.42439         60.9604         3.89467 
        3.44008         60.4402         3.85033 
        3.45578         59.9944         3.80665 
        3.47153         59.4251         3.76355 
        3.48724         58.7105         3.72119 
        3.50292         58.3026         3.67959 
        3.51859         57.6632         3.63864 
        3.53431          57.044         3.59818 
        3.55007          56.341         3.55825 
        3.56577         55.8306         3.51907 
        3.58146         55.3755          3.4805 
        3.59719         54.9196         3.44242 
        3.61292         54.3255         3.40493 
        3.62859         53.8986         3.36813 
        3.64429         53.4077         3.33181 
        3.66003         52.7549         3.29591 
        3.67578         52.2454         3.26055 
        3.69146         51.8304         3.22584 
        3.70712         51.2716         3.19171 
        3.72284         50.7141         3.15794 
        3.73853         50.4477         3.12471 
        3.75422         49.9932         3.09196 
        3.76993         49.5037         3.05964 
        3.78564         48.9955          3.0278 
        3.80137         48.4293         2.99636 
        3.81707         48.0223         2.96543 
        3.83279         47.6148         2.93491 
        3.84853         47.1947         2.90477 
        3.86424         46.7672         2.87512 
        3.87992         46.2698         2.84592 
        3.89561         45.9996         2.81713 
        3.91134         45.4324         2.78868 
        3.92704         45.1517         2.76065 
        3.94273         44.7221         2.73303 
        3.95845         44.1803         2.70574 
        3.97418         43.8107         2.67882 
        3.98988         43.4685          2.6523 
        4.00554         43.0344         2.62622 
        4.02125         42.5841          2.6004 
        4.03698         42.3247          2.5749 
        4.05268         41.9306         2.54979 
        4.06839         41.5499           2.525 
         4.0841         41.2233         2.50055 
        4.09983          40.934         2.47639 
        4.11555         40.5805         2.45255 
        4.13124         40.0059          2.4291 
        4.14693         39.7602         2.40593 
        4.16266         39.4611         2.38301 
        4.17839         38.9745          2.3604 
        4.19408         38.7716         2.33814 
        4.20977         38.3299         2.31615 
        4.22551         38.0092          2.2944 
        4.24123         37.6872         2.27294 
        4.25691         37.3344         2.25182 
        4.27259         37.0179         2.23096 
        4.28831         36.7534         2.21033 
        4.30404          36.484         2.18993 
        4.31974         36.0391         2.16983 
        4.33543         35.6884            2.15 
        4.35116          35.458         2.13037 
        4.36688          35.113         2.11099 
        4.38255         34.8624         2.09193 
        4.39825         34.6357         2.07306 
        4.41398         34.3826         2.05438 
         4.4297         33.9681         2.03595 
        4.44541         33.7935         2.01775 
        4.46111         33.5193         1.99979 
        4.47683         33.2519         1.98204 
        4.49251         32.9214         1.96453 
        4.50819         32.6284         1.94724 
         4.5239         32.2988         1.93014 
        4.53962         32.0658         1.91322 
        4.55535         31.7881         1.89649 
        4.57106         31.5125         1.87999 
        4.58678         31.3096         1.86368 
         4.6025         31.0238         1.84756 
        4.61821         30.8316         1.83163 
        4.63391         30.5115         1.81591 
         4.6496         30.3359         1.80038 
        4.66532         30.0611         1.78501 
        4.68103         29.7286         1.76983 
        4.69673         29.5617         1.75483 
        4.71241         29.2743         1.74003 
        4.72811         29.0353         1.72537 
        4.74384         28.8507         1.71086 
        4.75955         28.6766         1.69654 
        4.77525         28.4062         1.68239 
        4.79096         28.1935         1.66839 
        4.80669         27.9571         1.65454 
         4.8224         27.7421         1.64086 
        4.83809         27.4864         1.62735 
        4.85379         27.3253         1.61398 
         4.8695         27.0463         1.60076 
        4.88521         26.8555         1.58768 
        4.90093         26.6461         1.57476 
        4.91663         26.4637         1.56198 
        4.93234         26.2647         1.54934 
        4.94807          26.028         1.53682 
        4.96377         25.8215         1.52447 
        4.97943         25.6513         1.51228 
        4.99514         25.4877         1.50019 
        5.01086         25.2972         1.48822 
        5.02654         25.0646         1.47642 
        5.04227          24.829         1.46471 
          5.058         24.6756         1.45312 
        5.07371         24.4979         1.44167 
        5.08942          24.318         1.43035 
        5.10513         24.0745         1.41915 
        5.12084          23.885         1.40807 
        5.13656         23.7123          1.3971 
        5.15225         23.5817         1.38627 
        5.16796         23.3341         1.37554 
        5.18369         23.1883         1.36491 
         5.1994         22.9853         1.35441 
        5.21509         22.8084         1.34403 
        5.23079         22.6689         1.33375 
        5.24649         22.4829         1.32358 
        5.26217         22.3207         1.31353 
        5.27788          22.154         1.30357 
        5.29359         21.9708         1.29371 
        5.30933         21.7652         1.28393 
        5.32504          21.665         1.27428 
        5.34073         21.4841         1.26473 
        5.35646         21.3018         1.25526 
        5.37218         21.1479         1.24589 
        5.38789         21.0325         1.23663 
        5.40357         20.8467         1.22747 
        5.41929         20.7104         1.21838 
        5.43502         20.5134         1.20939 
         5.4507         20.4319         1.20051 
        5.46639         20.2477         1.19171 
        5.48212         20.1216         1.18299 
        5.49786         19.9663         1.17434 
        5.51353         19.7952         1.16582 
        5.52921         19.6484         1.15737 
        5.54495         19.5495         1.14898 
        5.56066         19.3431         1.14069 
        5.57637          19.201         1.13248 
        5.59207         19.1021         1.12436 
        5.60778         18.9677         1.11631 
        5.62346         18.7935         1.10835 
        5.63916         18.6645         1.10047 
        5.65487         18.5398         1.09265 
         5.6706         18.4075         1.08491 
        5.68633         18.2749         1.07723 
        5.70203         18.1237         1.06965 
        5.71773         18.0477         1.06214 
        5.73344         17.9103         1.05469 
        5.74916         17.7655         1.04732 
        5.76486         17.6557         1.04002 
        5.78054         17.4915          1.0328 
        5.79626         17.4343         1.02563 
          5.812         17.2486         1.01853 
         5.8277         17.1125         1.01151 
        5.84339         17.0282         1.00455 
        5.85911         16.8976        0.997651 
        5.87484         16.7609        0.990816 
        5.89053         16.6543        0.984058 
        5.90623         16.5598        0.977359 
        5.92195          16.406        0.970712 
        5.93767         16.3055         0.96413 
        5.95336         16.2074         0.95762 
        5.96905         16.0943        0.951172 
        5.98476         15.9995        0.944774 
        6.00048         15.8719        0.938434 
        6.01617         15.7378        0.932159 
        6.03185         15.6501         0.92595 
        6.04756         15.5387        0.919783 
        6.06331         15.4553        0.913658 
        6.07903          15.315        0.907602 
        6.09473         15.2284        0.901607 
        6.11044         15.1351         0.89566 
        6.12616          15.029        0.889768 
        6.14186         14.9231        0.883934 
        6.15755         14.8146        0.878153 
        6.17326         14.7599         0.87242 
        6.18898         14.6413        0.866735 
        6.20467          14.523         0.86111 
        6.22036         14.4117        0.855536 
         6.2361         14.3154        0.849996 
         6.2518         14.2189        0.844515 
        6.26748         14.1418        0.839093 
        6.28319         14.0463        0.833704 
        6.29893           13.94        0.828358 
        6.31463         13.8504        0.823068 
        6.33033         13.7669        0.817826 
        6.34604         13.6746        0.812625 
        6.36177         13.6055        0.807465 
        6.37747         13.4887        0.802359 
