# k  (h/Mpc)    Pcb(k)  (Mpc/h)^3    Pcb_linear(k) (Mpc/h)^3   ShotnoiseSubtracted = true
      0.0200456          58.631         59.4118 
      0.0350414         43.2704         43.1904 
      0.0492313         31.5216         31.3813 
      0.0637834         26.1368          26.087 
      0.0800726         20.7147         20.7046 
       0.096163         15.0804          15.023 
       0.111083          12.013         11.9827 
       0.126058         10.6184         10.6191 
       0.142273         8.99699         8.99674 
       0.158546         7.13913         7.10554 
        0.17375         5.99268         5.98641 
       0.188953          5.4175         5.42056 
       0.204907           4.821         4.79609 
       0.220756         4.07291         4.05778 
        0.23588         3.54338         3.52992 
         0.2514         3.20654          3.2069 
       0.267535         2.89961         2.90169 
       0.283568         2.56311          2.5589 
       0.299022         2.28731         2.27985 
       0.314451         2.07669         2.08363 
       0.330372         1.90921         1.91149 
       0.346141         1.73414         1.73497 
       0.361624         1.57941         1.57685 
       0.377134          1.4553         1.45095 
       0.392932         1.33246         1.34254 
       0.408854         1.23981         1.23756 
       0.424564         1.13816         1.14068 
       0.440253         1.05673         1.05754 
       0.455999        0.987351        0.985249 
       0.471626        0.921857        0.918814 
        0.48727        0.855712        0.856668 
       0.502856        0.798691        0.800839 
       0.518488        0.754069        0.751025 
       0.534347        0.709824        0.704716 
       0.550082        0.661065        0.662016 
       0.565732        0.618044        0.622952 
       0.581496        0.587424        0.587174 
       0.597222         0.55517        0.554362 
       0.612804        0.523729         0.52419 
       0.628434        0.497865        0.496067 
       0.644267        0.469617        0.469775 
       0.660051        0.444522        0.445543 
       0.675724        0.423418        0.423167 
       0.691403        0.403198        0.402309 
       0.707174        0.382752         0.38274 
       0.722871        0.362893         0.36455 
        0.73838        0.348243        0.347736 
       0.754018         0.33324        0.331857 
       0.769845        0.317855        0.316796 
        0.78569        0.303018        0.302657 
       0.801365        0.289243        0.289522 
       0.817031        0.277253        0.277179 
       0.832809         0.26563         0.26548 
       0.848511        0.254249        0.254512 
       0.864097        0.243186        0.244242 
       0.879701        0.233227        0.234532 
       0.895507        0.225514        0.225238 
       0.911279        0.216365        0.216469 
        0.92691        0.207645        0.208241 
       0.942635        0.200193        0.200398 
       0.958396        0.192291        0.192944 
       0.974128        0.185211        0.185884 
       0.989692        0.178835        0.179249 
        1.00528        0.172954        0.172929 
        1.02113        0.165715        0.166816 
        1.03692        0.160391        0.161022 
        1.05264        0.155012        0.155532 
        1.06832        0.149892        0.150307 
        1.08405        0.144441        0.145309 
        1.09979        0.139604        0.140536 
        1.11537        0.135954        0.136026 
        1.13105        0.131357        0.131687 
        1.14679        0.127522        0.127522 
        1.16256        0.122661        0.123529 
        1.17828        0.118873        0.119722 
        1.19395        0.115118        0.116088 
         1.2097        0.111675        0.112587 
        1.22537        0.108899        0.109248 
          1.241        0.105435        0.106054 
        1.25666        0.102609        0.102981 
        1.27241       0.0994317        0.100016 
        1.28819       0.0965465       0.0971628 
        1.30392        0.093674       0.0944297 
        1.31957       0.0912146       0.0918141 
        1.33529       0.0884165       0.0892884 
        1.35108       0.0861589       0.0868479 
        1.36674       0.0833471       0.0845164 
         1.3824       0.0818355       0.0822729 
        1.39811       0.0793654       0.0801036 
        1.41389       0.0772577       0.0780045 
        1.42964       0.0755237       0.0759843 
        1.44531       0.0731805       0.0740458 
        1.46101       0.0714653       0.0721709 
        1.47667       0.0694382       0.0703668 
        1.49229       0.0678762       0.0686293 
        1.50793       0.0660277       0.0669486 
        1.52367       0.0644888       0.0653136 
        1.53953       0.0631314       0.0637223 
        1.55526       0.0615537       0.0621969 
        1.57092       0.0597167       0.0607278 
        1.58662       0.0585384       0.0593028 
        1.60235       0.0573634       0.0579209 
        1.61809       0.0556123       0.0565824 
        1.63369       0.0545204       0.0552982 
        1.64941       0.0534424       0.0540448 
        1.66519       0.0520448       0.0528258 
        1.68085       0.0507998       0.0516531 
        1.69652       0.0496002       0.0505158 
        1.71228       0.0487406       0.0494063 
        1.72806       0.0473708       0.0483294 
        1.74368       0.0464984       0.0472954 
        1.75933       0.0455288       0.0462896 
        1.77505       0.0444765       0.0453085 
        1.79081       0.0436346       0.0443541 
         1.8065       0.0425032       0.0434313 
        1.82218       0.0417459       0.0425356 
        1.83797       0.0408443       0.0416592 
        1.85367       0.0399832       0.0408123 
        1.86928       0.0392796        0.039994 
        1.88497       0.0385158       0.0391938 
        1.90073       0.0376729       0.0384125 
        1.91647        0.036805       0.0376533 
        1.93218       0.0360772       0.0369163 
        1.94787       0.0353256       0.0362001 
        1.96363       0.0347481          0.0355 
        1.97935       0.0339737         0.03482 
        1.99499       0.0333551       0.0341616 
        2.01064       0.0328078       0.0335194 
         2.0264       0.0321984       0.0328896 
        2.04216       0.0314499       0.0322763 
        2.05781       0.0309459       0.0316826 
        2.07353       0.0302227       0.0311017 
        2.08928       0.0297488       0.0305342 
        2.10499       0.0290607       0.0299823 
        2.12065       0.0286861       0.0294457 
        2.13633       0.0280743       0.0289219 
        2.15211       0.0276946       0.0284074 
        2.16785       0.0271701       0.0279068 
        2.18349       0.0265322       0.0274215 
        2.19916       0.0262671       0.0269467 
        2.21489       0.0258254       0.0264816 
        2.23063       0.0252961       0.0260272 
         2.2463       0.0247431       0.0255855 
        2.26194       0.0243484       0.0251551 
        2.27765        0.023943       0.0247325 
        2.29341       0.0236131       0.0243185 
        2.30914       0.0231531       0.0239148 
        2.32486       0.0227596       0.0235205 
        2.34061       0.0223962       0.0231345 
        2.35635       0.0219905       0.0227574 
        2.37203       0.0216197       0.0223901 
        2.38768        0.021232       0.0220317 
        2.40339       0.0208878       0.0216798 
        2.41914       0.0205942       0.0213348 
        2.43483       0.0201713       0.0209985 
         2.4505       0.0198916         0.02067 
        2.46622       0.0195948       0.0203475 
        2.48195       0.0192296       0.0200318 
        2.49759       0.0189551       0.0197244 
        2.51328       0.0187163       0.0194228 
        2.52906       0.0184101       0.0191255 
        2.54479       0.0181255       0.0188356 
        2.56049        0.017839       0.0185523 
        2.57618       0.0175578        0.018275 
        2.59189       0.0172813        0.018003 
        2.60758       0.0170282       0.0177369 
        2.62325       0.0167627       0.0174766 
        2.63898       0.0164892       0.0172206 
        2.65468       0.0162544       0.0169702 
        2.67044       0.0160525       0.0167238 
        2.68618        0.015786       0.0164828 
        2.70184       0.0155387       0.0162475 
        2.71755       0.0152673       0.0160162 
        2.73329       0.0150649       0.0157891 
        2.74897       0.0148997       0.0155672 
        2.76462       0.0146382       0.0153499 
        2.78034       0.0144333        0.015136 
        2.79607        0.014244       0.0149259 
        2.81179       0.0140345         0.01472 
        2.82749       0.0138253       0.0145182 
        2.84321       0.0136323         0.01432 
        2.85893       0.0134133       0.0141256 
        2.87462        0.013249       0.0139351 
        2.89033       0.0131078       0.0137479 
        2.90605       0.0128779       0.0135641 
        2.92176       0.0127429       0.0133836 
        2.93747       0.0125377       0.0132066 
        2.95318       0.0123588       0.0130327 
        2.96891       0.0122135       0.0128619 
        2.98456       0.0120889       0.0126949 
        3.00023        0.011882       0.0125306 
        3.01596       0.0116722       0.0123687 
        3.03164       0.0116074       0.0122101 
        3.04738       0.0114266       0.0120538 
         3.0631       0.0112246       0.0119004 
        3.07883       0.0110919       0.0117496 
        3.09456       0.0109984       0.0116014 
        3.11026       0.0108162        0.011456 
        3.12596       0.0107107       0.0113132 
        3.14163       0.0105475        0.011173 
        3.15734       0.0104222        0.011035 
        3.17308       0.0102694       0.0108989 
        3.18879       0.0101763       0.0107655 
        3.20447       0.0100531       0.0106346 
         3.2202      0.00991568       0.0105054 
         3.2359      0.00979688       0.0103785 
        3.25157      0.00965831       0.0102541 
        3.26729      0.00957682       0.0101314 
        3.28304      0.00943498       0.0100104 
        3.29877      0.00933389       0.0098915 
        3.31446      0.00921818      0.00977483 
        3.33014      0.00907599      0.00966015 
        3.34585       0.0089627      0.00954712 
        3.36158      0.00886962      0.00943574 
        3.37727      0.00878921      0.00932648 
        3.39294      0.00868695      0.00921906 
        3.40867      0.00860121      0.00911294 
        3.42439      0.00848777      0.00900855 
        3.44008      0.00838924      0.00890599 
        3.45578      0.00828884      0.00880495 
        3.47153      0.00819743      0.00870527 
        3.48724      0.00813063      0.00860729 
        3.50292      0.00798085      0.00851106 
        3.51859      0.00791223      0.00841634 
        3.53431      0.00784599      0.00832276 
        3.55007      0.00778432      0.00823039 
        3.56577      0.00770497      0.00813977 
        3.58146      0.00756288      0.00805056 
        3.59719      0.00749963      0.00796248 
        3.61292      0.00740363      0.00787575 
        3.62859      0.00734894      0.00779064 
        3.64429      0.00726929      0.00770662 
        3.66003      0.00720151      0.00762358 
        3.67578      0.00712534       0.0075418 
        3.69146      0.00704536      0.00746152 
        3.70712      0.00698058      0.00738256 
        3.72284      0.00689587      0.00730445 
        3.73853       0.0068245       0.0072276 
        3.75422      0.00677614      0.00715183 
        3.76993       0.0066891      0.00707709 
        3.78564      0.00666344      0.00700343 
        3.80137      0.00658336      0.00693071 
        3.81707      0.00649665      0.00685917 
        3.83279      0.00644251      0.00678859 
        3.84853      0.00638398      0.00671888 
        3.86424       0.0063076      0.00665029 
        3.87992      0.00625619      0.00658275 
        3.89561      0.00620214      0.00651615 
        3.91134      0.00615284      0.00645033 
        3.92704      0.00606649       0.0063855 
        3.94273      0.00604381      0.00632163 
        3.95845      0.00596196      0.00625851 
        3.97418      0.00590498      0.00619624 
        3.98988       0.0058751       0.0061349 
        4.00554      0.00578793      0.00607456 
        4.02125      0.00571709      0.00601485 
        4.03698      0.00566895      0.00595586 
        4.05268      0.00559605      0.00589779 
        4.06839      0.00552953      0.00584045 
         4.0841      0.00546627      0.00578389 
        4.09983      0.00540686        0.005728 
        4.11555      0.00534725      0.00567287 
        4.13124      0.00528474      0.00561862 
        4.14693       0.0052404      0.00556503 
        4.16266      0.00516404      0.00551201 
        4.17839      0.00511997      0.00545972 
        4.19408      0.00506582      0.00540823 
        4.20977      0.00503132      0.00535737 
        4.22551      0.00498139      0.00530705 
        4.24123      0.00493381      0.00525742 
        4.25691      0.00488452      0.00520857 
        4.27259      0.00484552      0.00516032 
        4.28831      0.00481691      0.00511258 
        4.30404      0.00476761      0.00506541 
        4.31974      0.00472397      0.00501893 
        4.33543       0.0046874      0.00497305 
        4.35116      0.00465221      0.00492765 
        4.36688      0.00462266      0.00488282 
        4.38255      0.00459825      0.00483872 
        4.39825      0.00458048      0.00479507 
        4.41398      0.00455337      0.00475187 
         4.4297      0.00453235      0.00470925 
        4.44541      0.00451141      0.00466716 
        4.46111      0.00448233      0.00462561 
        4.47683      0.00447998      0.00458454 
        4.49251       0.0044409      0.00454405 
        4.50819      0.00444283      0.00450406 
         4.5239      0.00443625       0.0044645 
        4.53962      0.00442075      0.00442536 
        4.55535      0.00441028      0.00438667 
        4.57106      0.00441831       0.0043485 
        4.58678      0.00440275      0.00431077 
         4.6025      0.00441101      0.00427349 
        4.61821      0.00440965      0.00423665 
        4.63391      0.00440307      0.00420029 
         4.6496      0.00441083      0.00416437 
        4.66532      0.00440064      0.00412882 
        4.68103      0.00441927      0.00409369 
        4.69673      0.00441351      0.00405901 
        4.71241      0.00444104      0.00402477 
        4.72811      0.00445001      0.00399086 
        4.74384      0.00445996       0.0039573 
        4.75955      0.00448286      0.00392418 
        4.77525      0.00450184      0.00389145 
        4.79096       0.0045227      0.00385906 
        4.80669      0.00453515      0.00382702 
         4.8224      0.00455933      0.00379538 
        4.83809      0.00456706      0.00376413 
        4.85379      0.00462961      0.00373322 
         4.8695      0.00464612      0.00370262 
        4.88521      0.00466043      0.00367239 
        4.90093      0.00471034      0.00364248 
        4.91663      0.00475534      0.00361293 
        4.93234      0.00477442      0.00358368 
        4.94807      0.00483961      0.00355474 
        4.96377       0.0048928      0.00352617 
        4.97943      0.00492184      0.00349797 
        4.99514      0.00496702      0.00347001 
        5.01086      0.00499634      0.00344233 
        5.02654      0.00506794      0.00341502 
        5.04227      0.00511156      0.00338793 
          5.058      0.00518661      0.00336112 
        5.07371      0.00525364      0.00333466 
        5.08942      0.00531402      0.00330847 
        5.10513      0.00535051      0.00328256 
        5.12084      0.00543956      0.00325692 
        5.13656      0.00547648      0.00323156 
        5.15225      0.00556744       0.0032065 
        5.16796      0.00564326      0.00318168 
        5.18369      0.00573416      0.00315709 
         5.1994      0.00583629      0.00313281 
        5.21509      0.00590139       0.0031088 
        5.23079      0.00595326      0.00308502 
        5.24649      0.00609706      0.00306151 
        5.26217      0.00616048      0.00303826 
        5.27788      0.00626193      0.00301521 
        5.29359      0.00638044       0.0029924 
        5.30933      0.00647282      0.00296979 
        5.32504      0.00657732      0.00294746 
        5.34073      0.00671407      0.00292538 
        5.35646       0.0068093      0.00290348 
        5.37218       0.0068925       0.0028818 
        5.38789      0.00701773      0.00286037 
        5.40357      0.00715212      0.00283919 
        5.41929      0.00726017      0.00281818 
        5.43502       0.0074215      0.00279737 
         5.4507       0.0075797      0.00277683 
        5.46639      0.00773512      0.00275648 
        5.48212      0.00778915       0.0027363 
        5.49786      0.00801267      0.00271629 
        5.51353      0.00813502      0.00269658 
        5.52921      0.00827848      0.00267705 
        5.54495      0.00845995      0.00265765 
        5.56066      0.00862672      0.00263847 
        5.57637      0.00880106      0.00261948 
        5.59207      0.00897816      0.00260069 
        5.60778      0.00915251      0.00258208 
        5.62346      0.00937989      0.00256368 
        5.63916      0.00954663      0.00254543 
        5.65487      0.00971451      0.00252736 
         5.6706       0.0099443      0.00250944 
        5.68633       0.0101897      0.00249169 
        5.70203       0.0103854      0.00247414 
        5.71773       0.0106731      0.00245677 
        5.73344       0.0108127      0.00243956 
        5.74916       0.0110876      0.00242249 
        5.76486       0.0113802      0.00240561 
        5.78054       0.0115828      0.00238892 
        5.79626       0.0117923      0.00237234 
          5.812       0.0121217       0.0023559 
         5.8277       0.0123739      0.00233966 
        5.84339       0.0127232      0.00232358 
        5.85911       0.0129867      0.00230761 
        5.87484       0.0133085       0.0022918 
        5.89053       0.0136572      0.00227617 
        5.90623       0.0140474      0.00226068 
        5.92195       0.0143418       0.0022453 
        5.93767        0.014649      0.00223008 
        5.95336       0.0149296      0.00221502 
        5.96905       0.0154563       0.0022001 
        5.98476       0.0156859      0.00218531 
        6.00048       0.0160801      0.00217064 
        6.01617       0.0164974      0.00215613 
        6.03185       0.0168136      0.00214177 
        6.04756       0.0173461       0.0021275 
        6.06331       0.0177369      0.00211333 
        6.07903       0.0182139      0.00209933 
        6.09473       0.0185351      0.00208546 
        6.11044       0.0191583       0.0020717 
        6.12616       0.0196204      0.00205807 
        6.14186       0.0200662      0.00204458 
        6.15755       0.0205917      0.00203121 
        6.17326       0.0211588      0.00201795 
        6.18898       0.0217986       0.0020048 
        6.20467       0.0223632      0.00199179 
        6.22036       0.0229426      0.00197889 
         6.2361       0.0235656      0.00196608 
         6.2518       0.0242424       0.0019534 
        6.26748       0.0247595      0.00194086 
        6.28319       0.0254616       0.0019284 
        6.29893       0.0261182      0.00191603 
        6.31463       0.0270076      0.00190379 
        6.33033        0.027607      0.00189167 
        6.34604       0.0283839      0.00187964 
        6.36177       0.0292395       0.0018677 
        6.37747       0.0300668      0.00185589 
