# k  (h/Mpc)    Pcb(k)  (Mpc/h)^3    Pcb_linear(k) (Mpc/h)^3   ShotnoiseSubtracted = true
      0.0200456         2220.44         2253.41 
      0.0350414          1622.3         1638.15 
      0.0492313         1192.72         1190.25 
      0.0637834         1000.96         989.445 
      0.0800726         793.561         785.298 
       0.096163         566.276         569.802 
       0.111083         449.325         454.489 
       0.126058         405.898         402.769 
       0.142273         346.936         341.234 
       0.158546         277.131         269.504 
        0.17375         228.063         227.057 
       0.188953         211.229         205.595 
       0.204907         194.097         181.909 
       0.220756         161.816         153.906 
        0.23588         140.977         133.885 
         0.2514          125.99         121.633 
       0.267535         116.083         110.057 
       0.283568         103.773         97.0557 
       0.299022         94.0754         86.4716 
       0.314451         84.2675         79.0292 
       0.330372         78.3511         72.5004 
       0.346141         71.0412         65.8051 
       0.361624          65.809         59.8079 
       0.377134         61.7614         55.0327 
       0.392932         54.8613         50.9206 
       0.408854         52.7746          46.939 
       0.424564         49.5264         43.2643 
       0.440253         45.6181         40.1111 
       0.455999         42.9913         37.3692 
       0.471626         40.2691         34.8494 
        0.48727         38.2097         32.4923 
       0.502856         35.7787         30.3747 
       0.518488         34.1744         28.4854 
       0.534347         32.7576         26.7289 
       0.550082           29.93         25.1094 
       0.565732         27.8624         23.6277 
       0.581496         27.2743         22.2707 
       0.597222         26.3063         21.0262 
       0.612804         24.5071         19.8818 
       0.628434          23.617         18.8152 
       0.644267         22.9126         17.8179 
       0.660051         21.6712         16.8988 
       0.675724         20.5484         16.0502 
       0.691403         19.8813          15.259 
       0.707174         19.1079         14.5168 
       0.722871         18.3393         13.8269 
        0.73838         17.6441         13.1892 
       0.754018           16.99         12.5869 
       0.769845         16.3422         12.0156 
        0.78569         15.8138         11.4794 
       0.801365         15.1876         10.9812 
       0.817031         14.7495          10.513 
       0.832809         14.4061         10.0693 
       0.848511         13.5238          9.6533 
       0.864097         13.2221         9.26378 
       0.879701         12.8343         8.89549 
       0.895507         12.3199         8.54296 
       0.911279         12.0806         8.21036 
        0.92691          11.705         7.89831 
       0.942635         11.2019         7.60082 
       0.958396         10.9065         7.31809 
       0.974128         10.6128         7.05033 
       0.989692         10.4882         6.79866 
        1.00528         10.1286         6.55896 
        1.02113         9.71553          6.3271 
        1.03692         9.50538         6.10736 
        1.05264         9.27522          5.8991 
        1.06832         9.05392         5.70092 
        1.08405         8.73345         5.51136 
        1.09979         8.53923         5.33033 
        1.11537         8.39318         5.15927 
        1.13105         8.16072         4.99471 
        1.14679         8.00807         4.83673 
        1.16256         7.74338          4.6853 
        1.17828         7.66404         4.54088 
        1.19395         7.38837         4.40305 
         1.2097         7.22313         4.27026 
        1.22537         7.03911         4.14361 
          1.241         6.92982          4.0225 
        1.25666           6.831         3.90594 
        1.27241         6.61842         3.79347 
        1.28819         6.46378         3.68525 
        1.30392         6.37929         3.58159 
        1.31957         6.24082         3.48239 
        1.33529         6.11738         3.38659 
        1.35108         5.95557         3.29402 
        1.36674         5.91867         3.20559 
         1.3824         5.69928          3.1205 
        1.39811         5.62549         3.03822 
        1.41389         5.53363         2.95861 
        1.42964          5.4369         2.88198 
        1.44531         5.33536         2.80846 
        1.46101         5.22444         2.73735 
        1.47667         5.12199         2.66892 
        1.49229         5.07046         2.60301 
        1.50793         4.92907         2.53927 
        1.52367         4.88492         2.47725 
        1.53953         4.77183          2.4169 
        1.55526         4.68978         2.35904 
        1.57092         4.63998         2.30332 
        1.58662         4.52819         2.24928 
        1.60235         4.47036         2.19686 
        1.61809         4.39051          2.1461 
        1.63369         4.31537         2.09739 
        1.64941         4.25209         2.04985 
        1.66519         4.19934         2.00361 
        1.68085         4.11142         1.95913 
        1.69652         4.03945           1.916 
        1.71228         3.99044         1.87391 
        1.72806         3.92387         1.83307 
        1.74368         3.85426         1.79385 
        1.75933         3.81453          1.7557 
        1.77505         3.76054         1.71849 
        1.79081         3.68184         1.68229 
         1.8065         3.64541         1.64729 
        1.82218         3.60144         1.61332 
        1.83797         3.56351         1.58008 
        1.85367         3.49277         1.54795 
        1.86928         3.45564         1.51692 
        1.88497         3.39859         1.48657 
        1.90073         3.33872         1.45694 
        1.91647         3.29625         1.42814 
        1.93218         3.27121         1.40018 
        1.94787         3.23745         1.37302 
        1.96363         3.17698         1.34647 
        1.97935         3.13296         1.32068 
        1.99499         3.07764          1.2957 
        2.01064         3.05381         1.27134 
         2.0264         3.01312         1.24746 
        2.04216         2.98396          1.2242 
        2.05781         2.93826         1.20168 
        2.07353         2.90684         1.17965 
        2.08928          2.8787         1.15812 
        2.10499         2.83326         1.13719 
        2.12065         2.81575         1.11684 
        2.13633         2.76874         1.09697 
        2.15211         2.73532         1.07745 
        2.16785         2.70935         1.05847 
        2.18349         2.67695         1.04006 
        2.19916         2.62717         1.02205 
        2.21489         2.61575         1.00441 
        2.23063         2.57068        0.987177 
         2.2463         2.55311        0.970423 
        2.26194         2.51751        0.954101 
        2.27765         2.50094         0.93807 
        2.29341          2.4657        0.922367 
        2.30914         2.43671        0.907056 
        2.32486         2.42356        0.892101 
        2.34061         2.39004        0.877459 
        2.35635         2.35444        0.863158 
        2.37203         2.34703        0.849226 
        2.38768         2.31802        0.835631 
        2.40339         2.29385        0.822285 
        2.41914         2.26592        0.809199 
        2.43483         2.24955        0.796444 
         2.4505          2.2138        0.783986 
        2.46622         2.20865        0.771751 
        2.48195         2.17313        0.759777 
        2.49759         2.15435        0.748122 
        2.51328          2.1328         0.73668 
        2.52906         2.12278        0.725406 
        2.54479         2.09114        0.714409 
        2.56049         2.07462        0.703663 
        2.57618         2.05555        0.693146 
        2.59189         2.04714        0.682829 
        2.60758         2.01398        0.672738 
        2.62325         1.99816        0.662863 
        2.63898         1.97527        0.653153 
        2.65468         1.95897        0.643657 
        2.67044         1.94805         0.63431 
        2.68618         1.92104        0.625169 
        2.70184         1.90696        0.616246 
        2.71755         1.89134        0.607474 
        2.73329         1.87127         0.59886 
        2.74897          1.8592        0.590441 
        2.76462         1.84035        0.582203 
        2.78034         1.82816        0.574088 
        2.79607          1.8062        0.566119 
        2.81179          1.7945         0.55831 
        2.82749         1.77637        0.550657 
        2.84321         1.76445         0.54314 
        2.85893         1.75024        0.535765 
        2.87462         1.73332         0.52854 
        2.89033         1.71262        0.521441 
        2.90605         1.70052        0.514466 
        2.92176         1.68987        0.507623 
        2.93747         1.67442        0.500908 
        2.95318         1.66111        0.494313 
        2.96891         1.65082        0.487833 
        2.98456         1.63654        0.481499 
        3.00023         1.62266        0.475267 
        3.01596         1.61232        0.469127 
        3.03164         1.60244        0.463112 
        3.04738          1.5814        0.457186 
         3.0631          1.5694        0.451365 
        3.07883         1.56147        0.445645 
        3.09456         1.55304        0.440026 
        3.11026         1.53683        0.434512 
        3.12596         1.52519        0.429093 
        3.14163         1.51559        0.423778 
        3.15734         1.50377        0.418542 
        3.17308         1.48916        0.413381 
        3.18879         1.48521        0.408322 
        3.20447         1.47188        0.403354 
         3.2202         1.45841        0.398454 
         3.2359         1.44749        0.393644 
        3.25157         1.44101        0.388925 
        3.26729         1.42477        0.384268 
        3.28304         1.42346        0.379679 
        3.29877         1.40489        0.375171 
        3.31446         1.39538        0.370746 
        3.33014         1.39304        0.366396 
        3.34585          1.3819        0.362109 
        3.36158         1.36738        0.357885 
        3.37727         1.36359        0.353741 
        3.39294         1.34817        0.349666 
        3.40867         1.33779        0.345641 
        3.42439         1.33257        0.341682 
        3.44008         1.32612        0.337792 
        3.45578         1.31742         0.33396 
        3.47153          1.3056        0.330179 
        3.48724          1.2963        0.326463 
        3.50292         1.29086        0.322813 
        3.51859         1.28559         0.31922 
        3.53431         1.27461        0.315671 
        3.55007          1.2651        0.312167 
        3.56577         1.25845        0.308731 
        3.58146         1.25309        0.305347 
        3.59719         1.24069        0.302006 
        3.61292         1.23853        0.298717 
        3.62859         1.22725        0.295488 
        3.64429         1.21868        0.292302 
        3.66003         1.20974        0.289152 
        3.67578         1.20298         0.28605 
        3.69146         1.19829        0.283006 
        3.70712         1.18594        0.280011 
        3.72284         1.18412        0.277048 
        3.73853         1.17425        0.274133 
        3.75422         1.16878        0.271259 
        3.76993         1.16256        0.268424 
        3.78564         1.15479        0.265631 
        3.80137         1.14473        0.262873 
        3.81707         1.14248        0.260159 
        3.83279          1.1315        0.257482 
        3.84853         1.12679        0.254838 
        3.86424         1.11809        0.252236 
        3.87992          1.1182        0.249675 
        3.89561          1.1072        0.247149 
        3.91134         1.10151        0.244652 
        3.92704         1.09417        0.242194 
        3.94273         1.09023        0.239771 
        3.95845         1.08314        0.237377 
        3.97418         1.07501        0.235015 
        3.98988          1.0686        0.232688 
        4.00554         1.06175          0.2304 
        4.02125         1.05597        0.228135 
        4.03698         1.04674        0.225898 
        4.05268          1.0405        0.223695 
        4.06839         1.02906         0.22152 
         4.0841         1.02599        0.219375 
        4.09983         1.01847        0.217255 
        4.11555         1.01264        0.215164 
        4.13124         1.00417        0.213107 
        4.14693          0.9958        0.211074 
        4.16266        0.989257        0.209063 
        4.17839        0.985619         0.20708 
        4.19408        0.979945        0.205127 
        4.20977        0.970471        0.203198 
        4.22551        0.968024        0.201289 
        4.24123        0.961465        0.199407 
        4.25691        0.953691        0.197554 
        4.27259        0.950413        0.195724 
        4.28831        0.943881        0.193913 
        4.30404        0.939504        0.192124 
        4.31974         0.93012        0.190361 
        4.33543        0.926479        0.188621 
        4.35116        0.923161        0.186899 
        4.36688         0.91597        0.185199 
        4.38255        0.910298        0.183526 
        4.39825        0.908992        0.181871 
        4.41398        0.902004        0.180232 
         4.4297        0.896968        0.178615 
        4.44541        0.892842        0.177019 
        4.46111        0.890697        0.175443 
        4.47683         0.88688        0.173885 
        4.49251        0.880877         0.17235 
        4.50819        0.877207        0.170833 
         4.5239        0.871436        0.169332 
        4.53962        0.869903        0.167848 
        4.55535        0.862305         0.16638 
        4.57106        0.862276        0.164933 
        4.58678        0.856689        0.163502 
         4.6025        0.853592        0.162088 
        4.61821        0.849516         0.16069 
        4.63391        0.845183        0.159311 
         4.6496        0.840041        0.157949 
        4.66532        0.838841          0.1566 
        4.68103        0.834308        0.155268 
        4.69673        0.831588        0.153953 
        4.71241        0.828016        0.152654 
        4.72811        0.826182        0.151368 
        4.74384        0.820925        0.150095 
        4.75955        0.817587        0.148839 
        4.77525        0.814181        0.147598 
        4.79096        0.811728        0.146369 
        4.80669        0.810648        0.145154 
         4.8224        0.806808        0.143954 
        4.83809        0.804728        0.142769 
        4.85379        0.801829        0.141596 
         4.8695        0.800493        0.140436 
        4.88521        0.793453        0.139289 
        4.90093        0.793724        0.138154 
        4.91663        0.793197        0.137034 
        4.93234        0.787618        0.135924 
        4.94807        0.786407        0.134826 
        4.96377        0.782752        0.133743 
        4.97943        0.781766        0.132673 
        4.99514        0.780254        0.131613 
        5.01086        0.777217        0.130563 
        5.02654        0.776788        0.129527 
        5.04227        0.772336          0.1285 
          5.058        0.771156        0.127483 
        5.07371        0.769801        0.126479 
        5.08942        0.766555        0.125486 
        5.10513        0.765279        0.124503 
        5.12084        0.764239        0.123531 
        5.13656        0.762561        0.122569 
        5.15225        0.760905        0.121618 
        5.16796        0.758393        0.120677 
        5.18369        0.755922        0.119744 
         5.1994        0.755648        0.118823 
        5.21509        0.753777        0.117913 
        5.23079          0.7526        0.117011 
        5.24649        0.751637        0.116119 
        5.26217        0.747296        0.115237 
        5.27788        0.749366        0.114363 
        5.29359        0.746725        0.113498 
        5.30933        0.744291         0.11264 
        5.32504        0.745109        0.111793 
        5.34073         0.74386        0.110956 
        5.35646        0.741208        0.110125 
        5.37218        0.740338        0.109303 
        5.38789        0.740419         0.10849 
        5.40357        0.737414        0.107687 
        5.41929         0.73749         0.10689 
        5.43502        0.736716          0.1061 
         5.4507         0.73665        0.105321 
        5.46639        0.734518         0.10455 
        5.48212        0.732602        0.103784 
        5.49786        0.731149        0.103025 
        5.51353        0.730592        0.102278 
        5.52921        0.729914        0.101537 
        5.54495        0.729734        0.100801 
        5.56066        0.727625        0.100074 
        5.57637        0.729045       0.0993533 
        5.59207        0.727574       0.0986407 
        5.60778        0.725116       0.0979348 
        5.62346        0.726253       0.0972367 
        5.63916        0.724657       0.0965449 
        5.65487        0.723797       0.0958594 
         5.6706        0.725926       0.0951797 
        5.68633        0.723327       0.0945064 
        5.70203        0.722748        0.093841 
        5.71773        0.722184       0.0931821 
        5.73344        0.719802       0.0925291 
        5.74916        0.720595       0.0918818 
        5.76486        0.719905       0.0912416 
        5.78054        0.718711       0.0906085 
        5.79626        0.717348       0.0899796 
          5.812        0.718553        0.089356 
         5.8277        0.717676       0.0887402 
        5.84339        0.716424       0.0881301 
        5.85911        0.715763       0.0875246 
        5.87484        0.715958       0.0869249 
        5.89053        0.715405        0.086332 
        5.90623        0.714293       0.0857444 
        5.92195        0.713499       0.0851612 
        5.93767        0.711287       0.0845838 
        5.95336        0.712709       0.0840126 
        5.96905        0.712541        0.083447 
        5.98476        0.709817       0.0828857 
        6.00048        0.712179       0.0823294 
        6.01617        0.710322        0.081779 
        6.03185        0.709487       0.0812343 
        6.04756        0.710045       0.0806932 
        6.06331        0.710389       0.0801559 
        6.07903        0.708541       0.0796246 
        6.09473        0.708403       0.0790986 
        6.11044        0.709077       0.0785769 
        6.12616        0.707182       0.0780599 
        6.14186        0.707159       0.0775482 
        6.15755        0.707086        0.077041 
        6.17326        0.706261        0.076538 
        6.18898        0.705874       0.0760392 
        6.20467        0.706677       0.0755458 
        6.22036        0.703177       0.0750568 
         6.2361        0.704289       0.0745708 
         6.2518        0.704677       0.0740898 
        6.26748        0.703559       0.0736142 
        6.28319        0.703253       0.0731415 
        6.29893        0.702867       0.0726724 
        6.31463        0.702529       0.0722083 
        6.33033        0.701999       0.0717484 
        6.34604        0.702329       0.0712922 
        6.36177        0.701425       0.0708394 
        6.37747        0.701174       0.0703915 
