# k  (h/Mpc)    Pcb(k)  (Mpc/h)^3    Pcb_linear(k) (Mpc/h)^3   ShotnoiseSubtracted = true
      0.0200456         606.529         614.321 
      0.0350414         451.121         446.591 
      0.0492313         325.709         324.484 
      0.0637834         267.724         269.741 
      0.0800726         212.001         214.087 
       0.096163         157.362         155.339 
       0.111083         126.039         123.902 
       0.126058           109.3         109.802 
       0.142273         92.3597         93.0268 
       0.158546         73.8673         73.4717 
        0.17375         62.7985         61.8998 
       0.188953         56.3797         56.0489 
       0.204907         48.8619         49.5918 
       0.220756         42.2223         41.9577 
        0.23588          36.775         36.4996 
         0.2514         33.3777         33.1595 
       0.267535         30.3569         30.0036 
       0.283568         26.7513         26.4592 
       0.299022         23.9698         23.5738 
       0.314451         22.2441         21.5448 
       0.330372         20.1582         19.7649 
       0.346141         18.3247         17.9397 
       0.361624          16.643         16.3047 
       0.377134         15.2565         15.0029 
       0.392932         14.5081         13.8819 
       0.408854         13.1142         12.7964 
       0.424564         12.3644         11.7947 
       0.440253         11.3229          10.935 
       0.455999         10.4085         10.1875 
       0.471626         9.73529         9.50059 
        0.48727         9.28943           8.858 
       0.502856         8.70041         8.28072 
       0.518488         8.01628         7.76564 
       0.534347         7.48946          7.2868 
       0.550082         7.16114         6.84528 
       0.565732         6.82711         6.44136 
       0.581496         6.39739         6.07141 
       0.597222         6.02608         5.73213 
       0.612804         5.67891         5.42015 
       0.628434         5.43259         5.12936 
       0.644267         5.16578          4.8575 
       0.660051         4.89397         4.60694 
       0.675724         4.61379         4.37557 
       0.691403         4.42128          4.1599 
       0.707174          4.2033         3.95755 
       0.722871         4.09504         3.76946 
        0.73838         3.81869         3.59561 
       0.754018         3.64772         3.43141 
       0.769845         3.45437         3.27569 
        0.78569         3.35827         3.12949 
       0.801365         3.21269         2.99367 
       0.817031         3.09439         2.86604 
       0.832809         2.93229         2.74508 
       0.848511         2.83762         2.63167 
       0.864097         2.73516         2.52548 
       0.879701         2.65067         2.42507 
       0.895507         2.51981         2.32897 
       0.911279         2.43893          2.2383 
        0.92691         2.36704         2.15322 
       0.942635         2.24749         2.07212 
       0.958396         2.17596         1.99505 
       0.974128         2.10788         1.92205 
       0.989692          2.0232         1.85344 
        1.00528          1.9568         1.78809 
        1.02113         1.90495         1.72489 
        1.03692         1.85104         1.66498 
        1.05264         1.76626          1.6082 
        1.06832         1.71862         1.55418 
        1.08405         1.65479          1.5025 
        1.09979         1.61488         1.45315 
        1.11537         1.55814         1.40651 
        1.13105         1.49848         1.36165 
        1.14679         1.46352         1.31858 
        1.16256          1.4167          1.2773 
        1.17828         1.38762         1.23793 
        1.19395         1.33839         1.20035 
         1.2097         1.29738         1.16415 
        1.22537         1.25365         1.12963 
          1.241         1.22496         1.09661 
        1.25666         1.20068         1.06483 
        1.27241         1.16354         1.03417 
        1.28819         1.12209         1.00467 
        1.30392         1.09521        0.976408 
        1.31957         1.07029        0.949363 
        1.33529         1.03087        0.923246 
        1.35108         1.00854        0.898012 
        1.36674        0.979285        0.873905 
         1.3824        0.965116        0.850706 
        1.39811        0.934697        0.828276 
        1.41389         0.91163        0.806571 
        1.42964        0.888097        0.785682 
        1.44531        0.867978        0.765637 
        1.46101         0.84143        0.746251 
        1.47667        0.826251        0.727596 
        1.49229        0.798534         0.70963 
        1.50793        0.782801        0.692252 
        1.52367        0.761333        0.675346 
        1.53953        0.743268        0.658892 
        1.55526        0.731222        0.643119 
        1.57092         0.71984        0.627929 
        1.58662        0.704835        0.613194 
        1.60235        0.683131        0.598905 
        1.61809        0.667369        0.585065 
        1.63369         0.64828        0.571787 
        1.64941        0.638402        0.558826 
        1.66519        0.626915        0.546222 
        1.68085         0.60918        0.534096 
        1.69652        0.596856        0.522336 
        1.71228        0.582923        0.510864 
        1.72806        0.571892        0.499728 
        1.74368        0.560314        0.489037 
        1.75933        0.549822        0.478637 
        1.77505        0.540082        0.468492 
        1.79081        0.522551        0.458623 
         1.8065        0.518053        0.449082 
        1.82218        0.503334        0.439821 
        1.83797        0.490253        0.430758 
        1.85367        0.485791        0.422001 
        1.86928        0.475096         0.41354 
        1.88497         0.46291        0.405266 
        1.90073        0.457601        0.397188 
        1.91647        0.446506        0.389337 
        1.93218        0.439209        0.381716 
        1.94787        0.430264         0.37431 
        1.96363          0.4228        0.367072 
        1.97935        0.413689        0.360041 
        1.99499        0.406564        0.353233 
        2.01064         0.39951        0.346592 
         2.0264        0.389599         0.34008 
        2.04216        0.383044        0.333739 
        2.05781        0.377561          0.3276 
        2.07353        0.370065        0.321594 
        2.08928        0.364391        0.315725 
        2.10499        0.356489        0.310019 
        2.12065        0.350712         0.30447 
        2.13633         0.34504        0.299054 
        2.15211        0.337935        0.293734 
        2.16785        0.332967        0.288558 
        2.18349        0.327628         0.28354 
        2.19916        0.320942        0.278631 
        2.21489        0.314798        0.273822 
        2.23063        0.309396        0.269123 
         2.2463         0.30506        0.264555 
        2.26194        0.300628        0.260106 
        2.27765        0.294533        0.255735 
        2.29341        0.289941        0.251454 
        2.30914        0.283763         0.24728 
        2.32486        0.279666        0.243203 
        2.34061        0.274541        0.239211 
        2.35635        0.270641        0.235313 
        2.37203         0.26824        0.231515 
        2.38768        0.262714        0.227809 
        2.40339        0.258332         0.22417 
        2.41914        0.254702        0.220603 
        2.43483        0.250044        0.217125 
         2.4505        0.246187        0.213729 
        2.46622        0.242689        0.210394 
        2.48195        0.237967        0.207129 
        2.49759        0.236869        0.203952 
        2.51328        0.230774        0.200833 
        2.52906        0.227244        0.197759 
        2.54479        0.224184        0.194761 
        2.56049        0.220029        0.191831 
        2.57618        0.218318        0.188964 
        2.59189        0.213657        0.186152 
        2.60758        0.211906        0.183401 
        2.62325        0.208503        0.180709 
        2.63898        0.206094        0.178062 
        2.65468        0.201217        0.175473 
        2.67044         0.19909        0.172925 
        2.68618        0.196143        0.170433 
        2.70184         0.19353           0.168 
        2.71755        0.190018        0.165609 
        2.73329        0.188925         0.16326 
        2.74897         0.18475        0.160965 
        2.76462        0.183019        0.158719 
        2.78034        0.179922        0.156507 
        2.79607        0.178137        0.154334 
        2.81179        0.174094        0.152206 
        2.82749         0.17288        0.150119 
        2.84321        0.170743         0.14807 
        2.85893        0.167813        0.146059 
        2.87462        0.165607         0.14409 
        2.89033        0.163137        0.142154 
        2.90605         0.16146        0.140253 
        2.92176        0.159922        0.138387 
        2.93747        0.157007        0.136557 
        2.95318        0.155264        0.134759 
        2.96891        0.153375        0.132992 
        2.98456        0.151853        0.131265 
        3.00023        0.149339        0.129567 
        3.01596        0.147247        0.127893 
        3.03164        0.145318        0.126253 
        3.04738         0.14396        0.124637 
         3.0631        0.142143         0.12305 
        3.07883        0.140227        0.121491 
        3.09456        0.138485        0.119959 
        3.11026         0.13629        0.118456 
        3.12596        0.134665        0.116979 
        3.14163        0.133402         0.11553 
        3.15734        0.132051        0.114102 
        3.17308        0.130144        0.112695 
        3.18879        0.128582        0.111316 
        3.20447        0.126805        0.109962 
         3.2202        0.125784        0.108626 
         3.2359         0.12406        0.107315 
        3.25157        0.122426        0.106028 
        3.26729        0.121321        0.104759 
        3.28304        0.120154        0.103508 
        3.29877        0.118272        0.102279 
        3.31446         0.11745        0.101072 
        3.33014        0.116075       0.0998864 
        3.34585        0.114146       0.0987178 
        3.36158        0.113131       0.0975661 
        3.37727        0.112271       0.0964363 
        3.39294        0.111073       0.0953256 
        3.40867        0.109581       0.0942283 
        3.42439        0.108622       0.0931488 
        3.44008        0.107663       0.0920884 
        3.45578        0.106427       0.0910437 
        3.47153        0.105487       0.0900129 
        3.48724        0.104354       0.0889999 
        3.50292        0.103543       0.0880048 
        3.51859        0.102193       0.0870254 
        3.53431         0.10108       0.0860578 
        3.55007        0.100147       0.0851026 
        3.56577       0.0994906       0.0841657 
        3.58146       0.0983187       0.0832433 
        3.59719       0.0972084       0.0823325 
        3.61292       0.0963436       0.0814357 
        3.62859       0.0956492       0.0805556 
        3.64429         0.09428       0.0796869 
        3.66003       0.0939921       0.0788283 
        3.67578       0.0929033       0.0779826 
        3.69146       0.0921607       0.0771526 
        3.70712       0.0911863       0.0763361 
        3.72284       0.0904908       0.0755284 
        3.73853       0.0897732       0.0747338 
        3.75422       0.0887903       0.0739503 
        3.76993        0.088056       0.0731774 
        3.78564       0.0874776       0.0724159 
        3.80137       0.0869498       0.0716639 
        3.81707       0.0854919       0.0709242 
        3.83279        0.085091       0.0701943 
        3.84853       0.0843469       0.0694735 
        3.86424       0.0836026       0.0687643 
        3.87992       0.0829742        0.068066 
        3.89561       0.0822246       0.0673773 
        3.91134       0.0814349       0.0666968 
        3.92704       0.0807017       0.0660264 
        3.94273       0.0799339        0.065366 
        3.95845       0.0791409       0.0647133 
        3.97418       0.0787287       0.0640694 
        3.98988       0.0774219       0.0634352 
        4.00554       0.0770651       0.0628112 
        4.02125       0.0762461       0.0621939 
        4.03698         0.07502       0.0615839 
        4.05268       0.0744501       0.0609834 
        4.06839       0.0733269       0.0603905 
         4.0841       0.0722112       0.0598057 
        4.09983        0.071382       0.0592278 
        4.11555       0.0703364       0.0586578 
        4.13124        0.069462       0.0580968 
        4.14693       0.0685998       0.0575427 
        4.16266       0.0676427       0.0569945 
        4.17839       0.0669127       0.0564538 
        4.19408        0.066034       0.0559213 
        4.20977       0.0652923       0.0553955 
        4.22551       0.0645729       0.0548752 
        4.24123       0.0637928       0.0543621 
        4.25691       0.0632048       0.0538569 
        4.27259        0.062495        0.053358 
        4.28831        0.062107       0.0528644 
        4.30404       0.0611058       0.0523766 
        4.31974       0.0607198        0.051896 
        4.33543       0.0600927       0.0514216 
        4.35116       0.0598046       0.0509521 
        4.36688       0.0590494       0.0504886 
        4.38255        0.058666       0.0500326 
        4.39825       0.0582742       0.0495813 
        4.41398       0.0577166       0.0491346 
         4.4297       0.0573827       0.0486939 
        4.44541       0.0570722       0.0482587 
        4.46111       0.0565783       0.0478291 
        4.47683       0.0562347       0.0474044 
        4.49251       0.0560448       0.0469858 
        4.50819       0.0557425       0.0465723 
         4.5239       0.0554006       0.0461632 
        4.53962       0.0551527       0.0457585 
        4.55535       0.0551049       0.0453584 
        4.57106       0.0547668       0.0449637 
        4.58678       0.0546685       0.0445736 
         4.6025       0.0543861       0.0441881 
        4.61821       0.0543943       0.0438071 
        4.63391       0.0542624       0.0434312 
         4.6496       0.0540783       0.0430598 
        4.66532       0.0541029       0.0426922 
        4.68103       0.0541369        0.042329 
        4.69673       0.0539152       0.0419704 
        4.71241       0.0542262       0.0416163 
        4.72811        0.053963       0.0412657 
        4.74384       0.0539474       0.0409187 
        4.75955       0.0540626       0.0405762 
        4.77525       0.0542382       0.0402378 
        4.79096       0.0542885       0.0399029 
        4.80669       0.0542646       0.0395716 
         4.8224       0.0545221       0.0392445 
        4.83809       0.0546937       0.0389214 
        4.85379       0.0548321       0.0386017 
         4.8695       0.0551613       0.0382853 
        4.88521       0.0552872       0.0379727 
        4.90093        0.055709       0.0376634 
        4.91663       0.0559153       0.0373579 
        4.93234        0.056008       0.0370555 
        4.94807       0.0564004       0.0367562 
        4.96377       0.0567367       0.0364608 
        4.97943         0.05728       0.0361692 
        4.99514         0.05761       0.0358801 
        5.01086       0.0578997       0.0355939 
        5.02654       0.0584938       0.0353115 
        5.04227       0.0588766       0.0350314 
          5.058       0.0591915       0.0347542 
        5.07371        0.059802       0.0344805 
        5.08942       0.0605098       0.0342098 
        5.10513       0.0610069       0.0339419 
        5.12084       0.0615686       0.0336767 
        5.13656        0.062153       0.0334145 
        5.15225        0.063025       0.0331554 
        5.16796       0.0636175       0.0328987 
        5.18369        0.064228       0.0326445 
         5.1994        0.064858       0.0323934 
        5.21509       0.0657236       0.0321452 
        5.23079       0.0664869       0.0318993 
        5.24649       0.0672803       0.0316562 
        5.26217       0.0680762       0.0314157 
        5.27788       0.0691874       0.0311774 
        5.29359       0.0699731       0.0309416 
        5.30933       0.0707843       0.0307078 
        5.32504        0.071835       0.0304769 
        5.34073       0.0725318       0.0302485 
        5.35646       0.0737908       0.0300221 
        5.37218       0.0748182       0.0297979 
        5.38789       0.0759696       0.0295764 
        5.40357       0.0770701       0.0293574 
        5.41929       0.0781841       0.0291401 
        5.43502       0.0796752        0.028925 
         5.4507       0.0807378       0.0287125 
        5.46639       0.0818043       0.0285022 
        5.48212       0.0830834       0.0282935 
        5.49786       0.0848645       0.0280866 
        5.51353       0.0864091       0.0278828 
        5.52921       0.0871918       0.0276808 
        5.54495       0.0891941       0.0274803 
        5.56066       0.0904509       0.0272819 
        5.57637       0.0921765       0.0270855 
        5.59207       0.0932211       0.0268913 
        5.60778       0.0948745       0.0266988 
        5.62346       0.0965614       0.0265085 
        5.63916       0.0985047       0.0263199 
        5.65487        0.100644        0.026133 
         5.6706        0.101552       0.0259478 
        5.68633        0.103918       0.0257642 
        5.70203        0.105826       0.0255828 
        5.71773        0.107901       0.0254032 
        5.73344        0.110078       0.0252252 
        5.74916        0.112439       0.0250487 
        5.76486        0.114317       0.0248742 
        5.78054        0.116463       0.0247016 
        5.79626         0.11879       0.0245301 
          5.812        0.120596       0.0243601 
         5.8277        0.123169       0.0241922 
        5.84339        0.125353       0.0240259 
        5.85911        0.127486       0.0238608 
        5.87484        0.129753       0.0236974 
        5.89053        0.132484       0.0235357 
        5.90623        0.136372       0.0233755 
        5.92195        0.137823       0.0232165 
        5.93767         0.14047       0.0230591 
        5.95336        0.143267       0.0229034 
        5.96905        0.147148       0.0227492 
        5.98476        0.149024       0.0225962 
        6.00048        0.151905       0.0224445 
        6.01617        0.155045       0.0222945 
        6.03185        0.158078        0.022146 
        6.04756        0.159857       0.0219985 
        6.06331        0.164805        0.021852 
        6.07903        0.167628       0.0217071 
        6.09473        0.170198       0.0215637 
        6.11044        0.175327       0.0214215 
        6.12616        0.176769       0.0212806 
        6.14186        0.181023       0.0211411 
        6.15755        0.184286       0.0210028 
        6.17326        0.188409       0.0208657 
        6.18898        0.191397       0.0207297 
        6.20467         0.19506       0.0205952 
        6.22036        0.198358       0.0204619 
         6.2361        0.201494       0.0203294 
         6.2518        0.207457       0.0201983 
        6.26748        0.211225       0.0200686 
        6.28319        0.215235       0.0199397 
        6.29893        0.219653       0.0198119 
        6.31463        0.223581       0.0196853 
        6.33033        0.226441       0.0195599 
        6.34604        0.231661       0.0194356 
        6.36177        0.234459       0.0193121 
        6.37747        0.240143         0.01919 
