# k  (h/Mpc)    Pcb(k)  (Mpc/h)^3    Pcb_linear(k) (Mpc/h)^3   ShotnoiseSubtracted = true
      0.0200456         130.596         132.349 
      0.0350414         96.2899         96.2133 
      0.0492313         70.2114         69.9067 
      0.0637834         58.2796         58.1128 
      0.0800726         46.1908         46.1227 
       0.096163         33.5549          33.466 
       0.111083         26.7145         26.6934 
       0.126058         23.6641         23.6558 
       0.142273         20.0622         20.0416 
       0.158546         15.9143         15.8287 
        0.17375         13.3345         13.3357 
       0.188953         12.0737         12.0751 
       0.204907         10.7794          10.684 
       0.220756         9.08566         9.03934 
        0.23588         7.90372         7.86344 
         0.2514         7.14535         7.14386 
       0.267535         6.46511         6.46397 
       0.283568         5.71713         5.70035 
       0.299022         5.10628         5.07872 
       0.314451         4.62322          4.6416 
       0.330372         4.25626         4.25815 
       0.346141         3.86599         3.86492 
       0.361624         3.52398         3.51268 
       0.377134         3.25115         3.23222 
       0.392932         2.96187         2.99071 
       0.408854          2.7687         2.75686 
       0.424564         2.53877         2.54104 
       0.440253         2.35688         2.35583 
       0.455999         2.20503          2.1948 
       0.471626         2.06064          2.0468 
        0.48727          1.9103         1.90836 
       0.502856         1.78146         1.78399 
       0.518488          1.6866         1.67303 
       0.534347         1.59013         1.56986 
       0.550082         1.47486         1.47474 
       0.565732         1.37439         1.38772 
       0.581496         1.31251         1.30802 
       0.597222         1.24152         1.23493 
       0.612804         1.16898         1.16772 
       0.628434         1.11411         1.10507 
       0.644267         1.04974          1.0465 
       0.660051        0.992621        0.992516 
       0.675724        0.945876         0.94267 
       0.691403         0.90207        0.896206 
       0.707174        0.855094        0.852612 
       0.722871        0.810206        0.812091 
        0.73838        0.778691        0.774637 
       0.754018        0.746506        0.739262 
       0.769845        0.710748        0.705712 
        0.78569        0.677782        0.674216 
       0.801365        0.646604        0.644955 
       0.817031        0.620319        0.617458 
       0.832809        0.594083        0.591398 
       0.848511        0.567786        0.566965 
       0.864097        0.542542        0.544088 
       0.879701        0.520377        0.522457 
       0.895507        0.503812        0.501752 
       0.911279        0.484085        0.482217 
        0.92691        0.464235         0.46389 
       0.942635         0.44718        0.446417 
       0.958396         0.42912        0.429812 
       0.974128        0.413296        0.414085 
       0.989692        0.399585        0.399304 
        1.00528        0.386216        0.385226 
        1.02113        0.369391        0.371608 
        1.03692        0.358401        0.358702 
        1.05264        0.346099        0.346471 
        1.06832        0.334752        0.334831 
        1.08405        0.321646        0.323697 
        1.09979        0.311069        0.313065 
        1.11537        0.303335        0.303018 
        1.13105        0.293099        0.293354 
        1.14679        0.285014        0.284075 
        1.16256        0.273222        0.275181 
        1.17828        0.264914        0.266698 
        1.19395        0.256308        0.258603 
         1.2097        0.248213        0.250804 
        1.22537         0.24267        0.243366 
          1.241        0.234752        0.236253 
        1.25666        0.229003        0.229407 
        1.27241        0.221158        0.222801 
        1.28819        0.214717        0.216445 
        1.30392        0.208618        0.210357 
        1.31957        0.203069         0.20453 
        1.33529        0.196759        0.198904 
        1.35108        0.191372        0.193467 
        1.36674        0.184813        0.188273 
         1.3824         0.18209        0.183276 
        1.39811        0.176189        0.178443 
        1.41389        0.171667        0.173767 
        1.42964        0.167896        0.169267 
        1.44531        0.162142        0.164948 
        1.46101        0.158646        0.160772 
        1.47667        0.153671        0.156753 
        1.49229        0.150489        0.152882 
        1.50793        0.146154        0.149138 
        1.52367        0.142913        0.145496 
        1.53953        0.139718        0.141951 
        1.55526        0.136249        0.138553 
        1.57092         0.13194        0.135281 
        1.58662        0.129489        0.132106 
        1.60235        0.126847        0.129028 
        1.61809        0.122669        0.126046 
        1.63369        0.120773        0.123185 
        1.64941        0.117966        0.120393 
        1.66519        0.114817        0.117678 
        1.68085        0.111952        0.115065 
        1.69652        0.109313        0.112532 
        1.71228        0.107481         0.11006 
        1.72806        0.104248        0.107661 
        1.74368        0.102535        0.105358 
        1.75933        0.100225        0.103117 
        1.77505       0.0978995        0.100932 
        1.79081       0.0961321       0.0988056 
         1.8065       0.0933531       0.0967499 
        1.82218       0.0917347       0.0947547 
        1.83797       0.0896155       0.0928022 
        1.85367       0.0877716       0.0909156 
        1.86928       0.0862276       0.0890929 
        1.88497       0.0845196       0.0873103 
        1.90073       0.0825252       0.0855699 
        1.91647       0.0806724       0.0838786 
        1.93218       0.0789756       0.0822367 
        1.94787       0.0773228       0.0806412 
        1.96363       0.0759909       0.0790818 
        1.97935        0.074148       0.0775669 
        1.99499       0.0729162       0.0761003 
        2.01064       0.0716567       0.0746696 
         2.0264       0.0701952       0.0732667 
        2.04216       0.0687509       0.0719006 
        2.05781       0.0674991        0.070578 
        2.07353       0.0657986       0.0692839 
        2.08928       0.0647191       0.0680196 
        2.10499       0.0632791       0.0667902 
        2.12065       0.0625026       0.0655949 
        2.13633       0.0609928       0.0644279 
        2.15211       0.0602686       0.0632818 
        2.16785       0.0590248       0.0621668 
        2.18349       0.0575013       0.0610857 
        2.19916       0.0570538        0.060028 
        2.21489       0.0560312        0.058992 
        2.23063       0.0548785       0.0579796 
         2.2463       0.0536891       0.0569957 
        2.26194       0.0527214        0.056037 
        2.27765       0.0517844       0.0550955 
        2.29341       0.0511367       0.0541732 
        2.30914       0.0499795       0.0532739 
        2.32486       0.0490997       0.0523956 
        2.34061       0.0483396       0.0515356 
        2.35635       0.0474226       0.0506957 
        2.37203       0.0466504       0.0498774 
        2.38768       0.0458339        0.049079 
        2.40339       0.0449962       0.0482951 
        2.41914       0.0444362       0.0475265 
        2.43483       0.0434226       0.0467774 
         2.4505       0.0426943       0.0460457 
        2.46622       0.0420588       0.0453271 
        2.48195       0.0412245       0.0446238 
        2.49759       0.0407797       0.0439393 
        2.51328       0.0402201       0.0432673 
        2.52906       0.0394624       0.0426051 
        2.54479        0.038772       0.0419593 
        2.56049       0.0381872       0.0413281 
        2.57618       0.0375628       0.0407104 
        2.59189       0.0369735       0.0401044 
        2.60758       0.0364906       0.0395118 
        2.62325       0.0358066       0.0389318 
        2.63898       0.0352661       0.0383615 
        2.65468       0.0345993       0.0378038 
        2.67044       0.0342709       0.0372548 
        2.68618       0.0336676       0.0367179 
        2.70184       0.0331258       0.0361938 
        2.71755       0.0324813       0.0356787 
        2.73329       0.0321003       0.0351727 
        2.74897       0.0317015       0.0346783 
        2.76462       0.0311255       0.0341944 
        2.78034       0.0307095       0.0337178 
        2.79607       0.0302523       0.0332497 
        2.81179       0.0298203       0.0327911 
        2.82749       0.0293333       0.0323416 
        2.84321       0.0289178       0.0319001 
        2.85893       0.0284832        0.031467 
        2.87462       0.0281727       0.0310426 
        2.89033        0.027761       0.0306257 
        2.90605       0.0272304        0.030216 
        2.92176       0.0269763       0.0298141 
        2.93747       0.0265634       0.0294197 
        2.95318       0.0261042       0.0290324 
        2.96891        0.025834       0.0286518 
        2.98456       0.0255432       0.0282798 
        3.00023       0.0250672       0.0279138 
        3.01596       0.0246828       0.0275531 
        3.03164       0.0244962       0.0271999 
        3.04738       0.0241098       0.0268518 
         3.0631       0.0236697       0.0265099 
        3.07883       0.0233668        0.026174 
        3.09456       0.0232006       0.0258439 
        3.11026       0.0227857       0.0255201 
        3.12596       0.0225839       0.0252018 
        3.14163       0.0222267       0.0248897 
        3.15734       0.0219495       0.0245821 
        3.17308       0.0216574        0.024279 
        3.18879       0.0213742       0.0239819 
        3.20447       0.0211568       0.0236901 
         3.2202       0.0208445       0.0234023 
         3.2359       0.0206259       0.0231198 
        3.25157       0.0203168       0.0228426 
        3.26729       0.0201106       0.0225692 
        3.28304       0.0198234       0.0222996 
        3.29877       0.0196279       0.0220349 
        3.31446       0.0193426        0.021775 
        3.33014       0.0191129       0.0215195 
        3.34585       0.0188969       0.0212677 
        3.36158       0.0185964       0.0210196 
        3.37727       0.0184431       0.0207762 
        3.39294       0.0182432       0.0205369 
        3.40867       0.0180333       0.0203005 
        3.42439       0.0178309       0.0200679 
        3.44008       0.0176134       0.0198395 
        3.45578       0.0174472       0.0196144 
        3.47153       0.0171999       0.0193923 
        3.48724       0.0171026       0.0191741 
        3.50292       0.0167977       0.0189597 
        3.51859       0.0165825       0.0187487 
        3.53431       0.0165031       0.0185402 
        3.55007       0.0163169       0.0183345 
        3.56577       0.0161896       0.0181326 
        3.58146       0.0158976       0.0179339 
        3.59719       0.0157756       0.0177377 
        3.61292       0.0155718       0.0175445 
        3.62859       0.0154152       0.0173549 
        3.64429       0.0153095       0.0171677 
        3.66003       0.0151267       0.0169827 
        3.67578       0.0149679       0.0168005 
        3.69146       0.0148583       0.0166217 
        3.70712       0.0147235       0.0164458 
        3.72284       0.0145249       0.0162718 
        3.73853         0.01436       0.0161006 
        3.75422       0.0143033       0.0159318 
        3.76993       0.0140992       0.0157653 
        3.78564       0.0140226       0.0156012 
        3.80137       0.0138692       0.0154392 
        3.81707       0.0136807       0.0152799 
        3.83279       0.0135836       0.0151226 
        3.84853       0.0134656       0.0149673 
        3.86424       0.0133076       0.0148145 
        3.87992       0.0132133       0.0146641 
        3.89561       0.0131152       0.0145157 
        3.91134       0.0130037       0.0143691 
        3.92704       0.0128343       0.0142247 
        3.94273       0.0127188       0.0140824 
        3.95845        0.012589       0.0139418 
        3.97418       0.0124954       0.0138031 
        3.98988       0.0123762       0.0136664 
        4.00554       0.0122203        0.013532 
        4.02125       0.0120645        0.013399 
        4.03698       0.0119589       0.0132676 
        4.05268       0.0117727       0.0131382 
        4.06839       0.0115991       0.0130105 
         4.0841       0.0114666       0.0128845 
        4.09983       0.0112911         0.01276 
        4.11555       0.0111844       0.0126372 
        4.13124       0.0110077       0.0125163 
        4.14693       0.0108647        0.012397 
        4.16266       0.0107284       0.0122789 
        4.17839       0.0105905       0.0121624 
        4.19408       0.0104916       0.0120477 
        4.20977       0.0103557       0.0119344 
        4.22551       0.0102166       0.0118223 
        4.24123       0.0101072       0.0117117 
        4.25691        0.010017       0.0116029 
        4.27259       0.0099021       0.0114954 
        4.28831      0.00982925       0.0113891 
        4.30404      0.00972115        0.011284 
        4.31974      0.00960657       0.0111804 
        4.33543      0.00952324       0.0110783 
        4.35116      0.00944169       0.0109771 
        4.36688      0.00936554       0.0108772 
        4.38255      0.00930393        0.010779 
        4.39825      0.00925034       0.0106818 
        4.41398       0.0092069       0.0105855 
         4.4297      0.00914036       0.0104906 
        4.44541      0.00907556       0.0103968 
        4.46111      0.00901508       0.0103043 
        4.47683      0.00899194       0.0102128 
        4.49251      0.00892266       0.0101226 
        4.50819      0.00888762       0.0100335 
         4.5239      0.00886274      0.00994537 
        4.53962      0.00884678      0.00985818 
        4.55535      0.00882196      0.00977199 
        4.57106      0.00882895      0.00968696 
        4.58678      0.00876978      0.00960292 
         4.6025      0.00878829      0.00951985 
        4.61821      0.00877857      0.00943779 
        4.63391      0.00876644      0.00935679 
         4.6496      0.00878287      0.00927678 
        4.66532      0.00877313      0.00919758 
        4.68103      0.00879425      0.00911934 
        4.69673      0.00880484      0.00904208 
        4.71241      0.00885615       0.0089658 
        4.72811       0.0088339      0.00889026 
        4.74384      0.00887448      0.00881551 
        4.75955      0.00889771      0.00874172 
        4.77525      0.00895461      0.00866882 
        4.79096      0.00900653      0.00859666 
        4.80669      0.00900349      0.00852529 
         4.8224      0.00910659      0.00845481 
        4.83809      0.00912626      0.00838519 
        4.85379      0.00920977      0.00831632 
         4.8695      0.00924753      0.00824817 
        4.88521       0.0093068      0.00818081 
        4.90093      0.00938392      0.00811419 
        4.91663      0.00951959      0.00804837 
        4.93234      0.00956548      0.00798321 
        4.94807      0.00965273      0.00791873 
        4.96377      0.00971203      0.00785508 
        4.97943      0.00982172      0.00779227 
        4.99514       0.0099178      0.00772998 
        5.01086       0.0100037      0.00766832 
        5.02654       0.0101583      0.00760749 
        5.04227         0.01027      0.00754714 
          5.058       0.0103922      0.00748742 
        5.07371       0.0105044      0.00742846 
        5.08942       0.0107151      0.00737013 
        5.10513       0.0107729      0.00731242 
        5.12084       0.0108958      0.00725529 
        5.13656       0.0110769      0.00719879 
        5.15225       0.0112129      0.00714298 
        5.16796       0.0114237      0.00708768 
        5.18369       0.0115345      0.00703291 
         5.1994       0.0117349      0.00697882 
        5.21509       0.0119432      0.00692535 
        5.23079       0.0120596      0.00687237 
        5.24649       0.0122965      0.00681999 
        5.26217       0.0124769      0.00676819 
        5.27788       0.0127187      0.00671685 
        5.29359       0.0128825      0.00666604 
        5.30933       0.0131886      0.00661568 
        5.32504       0.0133264      0.00656592 
        5.34073       0.0136264      0.00651673 
        5.35646       0.0138232      0.00646794 
        5.37218       0.0140986      0.00641965 
        5.38789       0.0143588      0.00637192 
        5.40357       0.0145706      0.00632474 
        5.41929       0.0148298      0.00627792 
        5.43502        0.015134      0.00623158 
         5.4507       0.0154594      0.00618581 
        5.46639        0.015851       0.0061405 
        5.48212       0.0159445      0.00609553 
        5.49786       0.0163195      0.00605096 
        5.51353       0.0167406      0.00600706 
        5.52921       0.0170815      0.00596355 
        5.54495       0.0174449      0.00592034 
        5.56066       0.0177691       0.0058776 
        5.57637       0.0181619      0.00583529 
        5.59207        0.018482      0.00579344 
        5.60778       0.0188804      0.00575198 
        5.62346       0.0193427      0.00571099 
        5.63916       0.0197025      0.00567035 
        5.65487       0.0201956      0.00563009 
         5.6706       0.0204752      0.00559017 
        5.68633       0.0210495      0.00555062 
        5.70203       0.0214999      0.00551154 
        5.71773       0.0220177      0.00547284 
        5.73344       0.0224411      0.00543449 
        5.74916       0.0231037      0.00539648 
        5.76486       0.0235424      0.00535887 
        5.78054       0.0239321      0.00532169 
        5.79626       0.0245968      0.00528475 
          5.812       0.0251205      0.00524813 
         5.8277       0.0257551      0.00521196 
        5.84339       0.0262966      0.00517613 
        5.85911       0.0271007      0.00514057 
        5.87484       0.0277187      0.00510534 
        5.89053       0.0283158      0.00507052 
        5.90623       0.0291063      0.00503601 
        5.92195       0.0299119      0.00500176 
        5.93767       0.0304625      0.00496784 
        5.95336       0.0312819       0.0049343 
        5.96905       0.0320386      0.00490107 
        5.98476       0.0325307      0.00486811 
        6.00048       0.0334975      0.00483544 
        6.01617       0.0342916      0.00480311 
        6.03185       0.0351989      0.00477111 
        6.04756        0.036092      0.00473933 
        6.06331       0.0369536      0.00470778 
        6.07903       0.0381307      0.00467657 
        6.09473       0.0388755      0.00464568 
        6.11044       0.0400424      0.00461504 
        6.12616       0.0412438      0.00458468 
        6.14186        0.042004      0.00455462 
        6.15755       0.0430998      0.00452483 
        6.17326        0.043934      0.00449529 
        6.18898       0.0454809        0.004466 
        6.20467       0.0469397      0.00443702 
        6.22036       0.0479135      0.00440829 
         6.2361       0.0491957      0.00437975 
         6.2518        0.050621       0.0043515 
        6.26748       0.0515278      0.00432357 
        6.28319       0.0534356       0.0042958 
        6.29893       0.0547675      0.00426825 
        6.31463       0.0562468        0.004241 
        6.33033       0.0576261      0.00421398 
        6.34604       0.0592549      0.00418719 
        6.36177       0.0611419       0.0041606 
        6.37747       0.0625299      0.00413429 
