# k  (h/Mpc)    Pcb(k)  (Mpc/h)^3    Pcb_linear(k) (Mpc/h)^3   ShotnoiseSubtracted = true
      0.0200456         15747.7         16000.3 
      0.0350414         11966.6         11631.7 
      0.0492313         8328.93         8451.36 
      0.0637834         6726.15         7025.54 
      0.0800726         5290.05            5576 
       0.096163         4193.99         4045.87 
       0.111083         3412.71         3227.09 
       0.126058         2831.37         2859.86 
       0.142273         2458.63         2422.93 
       0.158546          2019.7         1913.61 
        0.17375         1781.85         1612.21 
       0.188953         1667.06         1459.82 
       0.204907         1428.49         1291.65 
       0.220756         1284.68         1092.81 
        0.23588         1144.58          950.65 
         0.2514         1027.76         863.656 
       0.267535         997.024          781.46 
       0.283568         877.236         689.143 
       0.299022         837.797         613.991 
       0.314451         860.222         561.146 
       0.330372         743.701         514.788 
       0.346141         686.591         467.249 
       0.361624         657.831         424.665 
       0.377134          623.18         390.759 
       0.392932         600.456         361.562 
       0.408854         572.361          333.29 
       0.424564         556.179         307.198 
       0.440253         507.671         284.808 
       0.455999         486.226         265.339 
       0.471626         493.339         247.448 
        0.48727         466.148         230.711 
       0.502856         434.251         215.676 
       0.518488          431.96          202.26 
       0.534347         404.919         189.789 
       0.550082         389.398         178.289 
       0.565732         386.686         167.769 
       0.581496         374.353         158.133 
       0.597222         363.619         149.296 
       0.612804         354.868         141.171 
       0.628434         340.861         133.597 
       0.644267          327.64         126.516 
       0.660051         323.114          119.99 
       0.675724         318.024         113.964 
       0.691403         310.308         108.347 
       0.707174         298.582         103.076 
       0.722871         293.984         98.1776 
        0.73838         290.511         93.6496 
       0.754018         278.776          89.373 
       0.769845          277.64          85.317 
        0.78569         271.154         81.5092 
       0.801365         263.466         77.9718 
       0.817031         259.427         74.6476 
       0.832809         254.924         71.4969 
       0.848511         248.482         68.5432 
       0.864097         242.554         65.7774 
       0.879701         241.394         63.1623 
       0.895507         235.169         60.6592 
       0.911279          228.78         58.2976 
        0.92691         226.398         56.0819 
       0.942635          224.63         53.9696 
       0.958396         218.768         51.9621 
       0.974128          215.43         50.0608 
       0.989692         208.092         48.2738 
        1.00528         207.606         46.5718 
        1.02113         204.195         44.9255 
        1.03692         199.679         43.3652 
        1.05264         196.531         41.8865 
        1.06832         196.098         40.4794 
        1.08405         190.452         39.1334 
        1.09979         189.236          37.848 
        1.11537         185.418         36.6333 
        1.13105         182.329         35.4649 
        1.14679         180.484         34.3432 
        1.16256         177.739          33.268 
        1.17828         175.755         32.2425 
        1.19395         171.128         31.2638 
         1.2097         170.314          30.321 
        1.22537         168.937         29.4217 
          1.241         164.687         28.5617 
        1.25666         162.605         27.7341 
        1.27241         158.947         26.9355 
        1.28819         157.639         26.1671 
        1.30392         155.416         25.4311 
        1.31957         151.812         24.7266 
        1.33529         150.188         24.0464 
        1.35108          148.44         23.3892 
        1.36674         145.862         22.7613 
         1.3824         145.071         22.1571 
        1.39811         141.794         21.5729 
        1.41389         139.881         21.0076 
        1.42964         137.798         20.4635 
        1.44531         136.453         19.9414 
        1.46101         133.566         19.4365 
        1.47667         133.334         18.9506 
        1.49229         131.179         18.4827 
        1.50793         128.765         18.0301 
        1.52367         127.192         17.5897 
        1.53953         125.082         17.1612 
        1.55526         124.477         16.7504 
        1.57092         122.743         16.3547 
        1.58662         120.454          15.971 
        1.60235         118.912         15.5988 
        1.61809         117.797         15.2383 
        1.63369         115.774         14.8925 
        1.64941         115.252         14.5549 
        1.66519         113.292         14.2266 
        1.68085           111.3         13.9108 
        1.69652          110.31         13.6045 
        1.71228         109.326         13.3057 
        1.72806         107.911         13.0157 
        1.74368         106.109         12.7372 
        1.75933         105.334         12.4664 
        1.77505         103.428         12.2021 
        1.79081         102.202         11.9451 
         1.8065         100.472         11.6966 
        1.82218         99.4499         11.4554 
        1.83797         99.0851         11.2193 
        1.85367         96.9829         10.9912 
        1.86928         96.6181         10.7709 
        1.88497          94.917         10.5554 
        1.90073         94.1976          10.345 
        1.91647          92.511         10.1405 
        1.93218         91.3944           9.942 
        1.94787         90.1916         9.74911 
        1.96363          89.344         9.56059 
        1.97935         88.5076         9.37744 
        1.99499         87.6461         9.20014 
        2.01064         85.6372         9.02717 
         2.0264           85.11         8.85757 
        2.04216         83.5249         8.69241 
        2.05781         83.0549         8.53251 
        2.07353         82.0049         8.37607 
        2.08928         80.8413         8.22322 
        2.10499         79.8038         8.07459 
        2.12065         79.4289         7.93009 
        2.13633          78.393         7.78901 
        2.15211         77.0778         7.65045 
        2.16785         75.9516         7.51565 
        2.18349         75.0878         7.38495 
        2.19916         74.2875         7.25708 
        2.21489         73.3243         7.13182 
        2.23063         72.4146         7.00944 
         2.2463          71.954         6.89048 
        2.26194         70.9486         6.77459 
        2.27765         70.1078         6.66076 
        2.29341         69.3003         6.54926 
        2.30914         68.4899         6.44054 
        2.32486         67.0042         6.33435 
        2.34061         66.7116         6.23039 
        2.35635         65.9806         6.12885 
        2.37203         64.9855         6.02993 
        2.38768         64.4055         5.93339 
        2.40339         63.6587         5.83863 
        2.41914         62.6684         5.74571 
        2.43483         62.3101         5.65514 
         2.4505         61.4116         5.56668 
        2.46622         60.9879         5.47981 
        2.48195          60.058         5.39479 
        2.49759         59.4402         5.31203 
        2.51328         58.8198         5.23079 
        2.52906         58.1264         5.15074 
        2.54479         57.4172         5.07266 
        2.56049          56.692         4.99635 
        2.57618         55.9992         4.92168 
        2.59189         55.6034         4.84842 
        2.60758         54.8222         4.77677 
        2.62325         54.3181         4.70666 
        2.63898         53.7146         4.63771 
        2.65468         53.1533         4.57028 
        2.67044         52.5955         4.50391 
        2.68618         52.1154         4.43901 
        2.70184         51.3233         4.37565 
        2.71755         50.6873         4.31337 
        2.73329         50.3666          4.2522 
        2.74897         49.9398         4.19242 
        2.76462         49.4005         4.13393 
        2.78034          48.747          4.0763 
        2.79607         48.0063         4.01972 
        2.81179         47.5872         3.96428 
        2.82749         47.2073         3.90994 
        2.84321         46.8261         3.85656 
        2.85893          46.218          3.8042 
        2.87462         45.4885         3.75289 
        2.89033         45.1344         3.70249 
        2.90605         44.5652         3.65297 
        2.92176          44.234         3.60437 
        2.93747         43.7287         3.55669 
        2.95318         43.3088         3.50986 
        2.96891         42.8042         3.46386 
        2.98456         42.4555         3.41888 
        3.00023         41.8083         3.37463 
        3.01596         41.5604         3.33103 
        3.03164          41.033         3.28833 
        3.04738         40.6212         3.24625 
         3.0631         40.3786         3.20491 
        3.07883         39.8724          3.1643 
        3.09456         39.4186          3.1244 
        3.11026         38.9537         3.08525 
        3.12596          38.578         3.04677 
        3.14163         38.2226         3.00904 
        3.15734         37.8784         2.97185 
        3.17308         37.5906         2.93521 
        3.18879         37.1457         2.89929 
        3.20447         36.6142         2.86401 
         3.2202         36.3016         2.82922 
         3.2359         36.0574         2.79507 
        3.25157         35.5514         2.76156 
        3.26729         35.3339          2.7285 
        3.28304         35.0031         2.69591 
        3.29877         34.4744          2.6639 
        3.31446         34.2738         2.63248 
        3.33014         33.7984         2.60159 
        3.34585         33.4572         2.57116 
        3.36158         33.1641         2.54116 
        3.37727          32.832         2.51173 
        3.39294         32.5335          2.4828 
        3.40867         32.2789         2.45422 
        3.42439         31.9252         2.42611 
        3.44008         31.6538         2.39849 
        3.45578         31.3193         2.37128 
        3.47153         31.1226         2.34443 
        3.48724         30.7136         2.31805 
        3.50292         30.4943         2.29213 
        3.51859         30.1612         2.26662 
        3.53431         29.8889         2.24142 
        3.55007         29.4509         2.21654 
        3.56577         29.2658         2.19214 
        3.58146         28.9864         2.16811 
        3.59719         28.7202         2.14439 
        3.61292         28.5396         2.12104 
        3.62859         28.1602         2.09811 
        3.64429         27.8869         2.07549 
        3.66003         27.6555         2.05312 
        3.67578         27.4243          2.0311 
        3.69146         27.2456         2.00948 
        3.70712         26.8462         1.98821 
        3.72284         26.6845         1.96718 
        3.73853         26.4624         1.94648 
        3.75422         26.2254         1.92608 
        3.76993         25.9257         1.90594 
        3.78564         25.6724         1.88611 
        3.80137         25.4914         1.86652 
        3.81707         25.2198         1.84726 
        3.83279         24.9445         1.82825 
        3.84853         24.7979         1.80947 
        3.86424         24.4039           1.791 
        3.87992         24.2488         1.77281 
        3.89561         24.1301         1.75488 
        3.91134         23.8139         1.73715 
        3.92704         23.6019         1.71969 
        3.94273         23.3496         1.70249 
        3.95845         23.2095         1.68549 
        3.97418         23.0295         1.66872 
        3.98988         22.7938          1.6522 
        4.00554         22.5292         1.63595 
        4.02125         22.3563         1.61987 
        4.03698         22.1809         1.60398 
        4.05268         21.9795         1.58835 
        4.06839         21.7786          1.5729 
         4.0841         21.6081         1.55767 
        4.09983         21.3618         1.54262 
        4.11555         21.2195         1.52777 
        4.13124         21.0865         1.51316 
        4.14693         20.9063         1.49873 
        4.16266         20.6696         1.48445 
        4.17839         20.5214         1.47037 
        4.19408          20.275          1.4565 
        4.20977         20.1646         1.44281 
        4.22551         20.0025         1.42925 
        4.24123          19.795         1.41589 
        4.25691         19.6392         1.40273 
        4.27259         19.4892         1.38974 
        4.28831         19.3073         1.37688 
        4.30404         19.0996         1.36417 
        4.31974         18.9844         1.35166 
        4.33543         18.8558          1.3393 
        4.35116         18.6758         1.32707 
        4.36688         18.5148           1.315 
        4.38255         18.3133         1.30313 
        4.39825         18.2212         1.29137 
        4.41398         18.0131         1.27974 
         4.4297         17.9348         1.26826 
        4.44541         17.7323         1.25692 
        4.46111         17.5079         1.24573 
        4.47683         17.4188         1.23467 
        4.49251         17.3223         1.22377 
        4.50819         17.1607           1.213 
         4.5239         17.0271         1.20234 
        4.53962          16.932          1.1918 
        4.55535         16.7422         1.18138 
        4.57106         16.6274          1.1711 
        4.58678         16.4511         1.16094 
         4.6025         16.2811          1.1509 
        4.61821          16.227         1.14098 
        4.63391          16.049         1.13119 
         4.6496         15.9207         1.12151 
        4.66532         15.7999         1.11194 
        4.68103         15.6827         1.10248 
        4.69673         15.5307         1.09314 
        4.71241         15.4574         1.08392 
        4.72811         15.2971         1.07479 
        4.74384         15.1528         1.06575 
        4.75955         15.0603         1.05683 
        4.77525         14.9386         1.04802 
        4.79096         14.8134         1.03929 
        4.80669         14.7272         1.03066 
         4.8224         14.6051         1.02214 
        4.83809         14.4572         1.01373 
        4.85379         14.3535          1.0054 
         4.8695         14.2595        0.997161 
        4.88521         14.1214        0.989018 
        4.90093         13.9878        0.980964 
        4.91663         13.9299        0.973007 
        4.93234         13.8056        0.965129 
        4.94807         13.7014        0.957334 
        4.96377         13.6019        0.949639 
        4.97943         13.5023        0.942045 
        4.99514         13.3853        0.934515 
        5.01086          13.296        0.927061 
        5.02654         13.1836        0.919707 
        5.04227         13.0865        0.912411 
          5.058         12.9664        0.905191 
        5.07371          12.889        0.898063 
        5.08942         12.7715        0.891011 
        5.10513         12.7003        0.884034 
        5.12084          12.594        0.877128 
        5.13656          12.506        0.870297 
        5.15225         12.4054         0.86355 
        5.16796         12.3066        0.856864 
        5.18369         12.2075        0.850243 
         5.1994         12.1279        0.843703 
        5.21509         12.0317        0.837239 
        5.23079         11.9373        0.830834 
        5.24649         11.8608        0.824501 
        5.26217          11.763        0.818239 
        5.27788         11.6685        0.812033 
        5.29359         11.5824         0.80589 
        5.30933         11.5052        0.799801 
        5.32504         11.4114        0.793786 
        5.34073         11.3536        0.787839 
        5.35646         11.2813        0.781941 
        5.37218         11.1638        0.776102 
        5.38789         11.0873        0.770332 
        5.40357         11.0021        0.764628 
        5.41929         10.9317        0.758969 
        5.43502         10.8582        0.753366 
         5.4507         10.7742        0.747833 
        5.46639         10.6708        0.742355 
        5.48212          10.619        0.736918 
        5.49786          10.555         0.73153 
        5.51353          10.474        0.726222 
        5.52921         10.4041        0.720962 
        5.54495         10.3065        0.715738 
        5.56066          10.235        0.710572 
        5.57637         10.1886        0.705457 
        5.59207         10.1061        0.700397 
        5.60778         10.0282        0.695385 
        5.62346         9.95111        0.690429 
        5.63916         9.89341        0.685516 
        5.65487         9.82502        0.680649 
         5.6706         9.74441        0.675823 
        5.68633          9.6619        0.671042 
        5.70203          9.6064        0.666317 
        5.71773         9.53314        0.661639 
        5.73344          9.4845        0.657002 
        5.74916         9.42792        0.652406 
        5.76486         9.35259         0.64786 
        5.78054         9.28623        0.643365 
        5.79626         9.21715        0.638899 
          5.812         9.14119        0.634472 
         5.8277         9.09224        0.630099 
        5.84339         9.00155        0.625767 
        5.85911         8.96907        0.621468 
        5.87484         8.88992         0.61721 
        5.89053         8.83553           0.613 
        5.90623          8.7893        0.608828 
        5.92195         8.72351        0.604687 
        5.93767         8.65357        0.600586 
        5.95336         8.58897        0.596531 
        5.96905         8.55355        0.592515 
        5.98476         8.47599        0.588529 
        6.00048         8.42207        0.584579 
        6.01617         8.36842        0.580671 
        6.03185         8.32478        0.576803 
        6.04756         8.26392        0.572961 
        6.06331         8.20634        0.569146 
        6.07903         8.14642        0.565374 
        6.09473         8.09069        0.561639 
        6.11044         8.04081        0.557934 
        6.12616         7.99515        0.554264 
        6.14186         7.94796         0.55063 
        6.15755         7.89706        0.547029 
        6.17326         7.81914        0.543457 
        6.18898         7.78876        0.539916 
        6.20467         7.73384        0.536412 
        6.22036         7.66889         0.53294 
         6.2361         7.63203        0.529489 
         6.2518          7.5774        0.526074 
        6.26748         7.53006        0.522697 
        6.28319         7.49109         0.51934 
        6.29893         7.43362         0.51601 
        6.31463         7.37614        0.512715 
        6.33033         7.33225        0.509449 
        6.34604         7.27903        0.506209 
        6.36177         7.24809        0.502995 
        6.37747         7.19341        0.499814 
