# k  (h/Mpc)    Pcb(k)  (Mpc/h)^3    Pcb_linear(k) (Mpc/h)^3   ShotnoiseSubtracted = true
      0.0200456         806.264         816.613 
      0.0350414         600.211          593.65 
      0.0492313         432.868         431.335 
      0.0637834         355.479         358.565 
      0.0800726         281.456         284.584 
       0.096163         209.424          206.49 
       0.111083          167.86         164.702 
       0.126058         145.252          145.96 
       0.142273         122.754          123.66 
       0.158546         98.3162         97.6654 
        0.17375         83.6909          82.283 
       0.188953         75.1453         74.5054 
       0.204907         64.9631         65.9221 
       0.220756         56.2917         55.7741 
        0.23588         49.0498         48.5186 
         0.2514         44.5087         44.0786 
       0.267535         40.5683         39.8836 
       0.283568         35.7324          35.172 
       0.299022         32.0891         31.3364 
       0.314451          29.849         28.6394 
       0.330372         26.9975         26.2734 
       0.346141         24.5573         23.8471 
       0.361624         22.3254         21.6738 
       0.377134         20.4583         19.9433 
       0.392932         19.5211         18.4531 
       0.408854         17.6409         17.0102 
       0.424564         16.6832         15.6786 
       0.440253         15.2572         14.5358 
       0.455999         14.0007         13.5422 
       0.471626         13.1151         12.6291 
        0.48727         12.5595         11.7749 
       0.502856          11.763         11.0075 
       0.518488         10.8385         10.3228 
       0.534347         10.1321         9.68629 
       0.550082          9.6999         9.09939 
       0.565732         9.25826         8.56245 
       0.581496         8.68778         8.07068 
       0.597222         8.18003         7.61968 
       0.612804         7.70974         7.20497 
       0.628434         7.41002         6.81843 
       0.644267         7.04046         6.45704 
       0.660051         6.66666         6.12397 
       0.675724         6.29006         5.81641 
       0.691403         6.04764         5.52972 
       0.707174         5.75054         5.26074 
       0.722871         5.60488         5.01072 
        0.73838         5.22951         4.77962 
       0.754018         4.99446         4.56135 
       0.769845         4.73963         4.35435 
        0.78569         4.61413         4.16001 
       0.801365         4.41023         3.97947 
       0.817031         4.25389         3.80981 
       0.832809         4.03281         3.64901 
       0.848511         3.91063         3.49826 
       0.864097         3.76807          3.3571 
       0.879701         3.65845         3.22363 
       0.895507         3.48743         3.09588 
       0.911279         3.36913         2.97535 
        0.92691         3.27023         2.86227 
       0.942635         3.11466         2.75446 
       0.958396         3.01554           2.652 
       0.974128         2.92751         2.55497 
       0.989692          2.8028         2.46377 
        1.00528         2.72514          2.3769 
        1.02113         2.64845         2.29288 
        1.03692         2.57605         2.21324 
        1.05264          2.4613         2.13777 
        1.06832         2.39681         2.06596 
        1.08405         2.31453         1.99726 
        1.09979         2.25916         1.93166 
        1.11537          2.1842         1.86967 
        1.13105         2.10358         1.81003 
        1.14679         2.05222         1.75278 
        1.16256         1.98554         1.69791 
        1.17828         1.95234         1.64557 
        1.19395         1.87961         1.59562 
         1.2097          1.8249          1.5475 
        1.22537         1.76367          1.5016 
          1.241          1.7265         1.45771 
        1.25666         1.69486         1.41547 
        1.27241         1.64716         1.37472 
        1.28819           1.585          1.3355 
        1.30392         1.54706         1.29793 
        1.31957         1.51801         1.26198 
        1.33529         1.45735         1.22726 
        1.35108         1.42966         1.19372 
        1.36674         1.38951         1.16167 
         1.3824         1.37113         1.13084 
        1.39811         1.32983         1.10102 
        1.41389          1.2962         1.07217 
        1.42964         1.26417          1.0444 
        1.44531         1.23974         1.01776 
        1.46101         1.20283        0.991986 
        1.47667         1.18183        0.967188 
        1.49229         1.14098        0.943306 
        1.50793         1.11611        0.920206 
        1.52367         1.09022        0.897732 
        1.53953         1.06383         0.87586 
        1.55526          1.0523        0.854893 
        1.57092         1.03264        0.834701 
        1.58662         1.01569        0.815115 
        1.60235        0.980769        0.796121 
        1.61809        0.962204        0.777723 
        1.63369        0.934576        0.760072 
        1.64941        0.920867        0.742844 
        1.66519        0.905585        0.726088 
        1.68085        0.880703         0.70997 
        1.69652        0.863613        0.694337 
        1.71228        0.843901        0.679088 
        1.72806        0.828521        0.664285 
        1.74368        0.813051        0.650073 
        1.75933        0.798854        0.636249 
        1.77505        0.784974        0.622763 
        1.79081        0.759926        0.609645 
         1.8065        0.753974        0.596961 
        1.82218        0.733467        0.584651 
        1.83797        0.716563        0.572603 
        1.85367        0.708738        0.560963 
        1.86928        0.694628        0.549716 
        1.88497        0.677514        0.538717 
        1.90073        0.671415        0.527979 
        1.91647        0.653117        0.517543 
        1.93218        0.643334        0.507413 
        1.94787        0.631779        0.497568 
        1.96363        0.621952        0.487946 
        1.97935        0.608532        0.478599 
        1.99499        0.599131         0.46955 
        2.01064        0.588752        0.460722 
         2.0264        0.573936        0.452066 
        2.04216        0.566917        0.443637 
        2.05781        0.557897        0.435476 
        2.07353        0.547548        0.427492 
        2.08928        0.538881        0.419691 
        2.10499        0.528662        0.412105 
        2.12065        0.519656         0.40473 
        2.13633        0.512168         0.39753 
        2.15211        0.500749        0.390458 
        2.16785        0.495186        0.383578 
        2.18349        0.486954        0.376908 
        2.19916        0.478957        0.370382 
        2.21489        0.469886        0.363989 
        2.23063        0.461454        0.357743 
         2.2463        0.455435        0.351672 
        2.26194        0.449309        0.345756 
        2.27765        0.441165        0.339947 
        2.29341        0.434365        0.334256 
        2.30914         0.42535        0.328708 
        2.32486        0.419973        0.323288 
        2.34061        0.412051        0.317982 
        2.35635        0.406685          0.3128 
        2.37203        0.402746        0.307751 
        2.38768        0.395615        0.302824 
        2.40339        0.389552        0.297988 
        2.41914        0.384302        0.293245 
        2.43483        0.377651        0.288623 
         2.4505        0.372302        0.284108 
        2.46622        0.367198        0.279675 
        2.48195         0.36014        0.275336 
        2.49759        0.358677        0.271112 
        2.51328        0.350398        0.266965 
        2.52906        0.345082         0.26288 
        2.54479        0.340382        0.258895 
        2.56049        0.335256           0.255 
        2.57618        0.332071        0.251189 
        2.59189        0.325583         0.24745 
        2.60758         0.32335        0.243793 
        2.62325        0.318107        0.240215 
        2.63898         0.31482        0.236696 
        2.65468        0.307802        0.233255 
        2.67044         0.30466        0.229867 
        2.68618        0.300913        0.226555 
        2.70184        0.296443        0.223321 
        2.71755        0.291855        0.220143 
        2.73329        0.290448        0.217021 
        2.74897        0.284102         0.21397 
        2.76462        0.281507        0.210984 
        2.78034        0.276923        0.208043 
        2.79607         0.27464        0.205156 
        2.81179        0.269072        0.202326 
        2.82749         0.26701        0.199553 
        2.84321        0.263548        0.196828 
        2.85893         0.25995        0.194156 
        2.87462        0.255928        0.191537 
        2.89033        0.253838        0.188965 
        2.90605        0.250488        0.186437 
        2.92176        0.248642        0.183957 
        2.93747        0.244044        0.181524 
        2.95318        0.241489        0.179134 
        2.96891        0.238895        0.176786 
        2.98456        0.236329         0.17449 
        3.00023        0.232911        0.172232 
        3.01596        0.229956        0.170007 
        3.03164        0.227129        0.167827 
        3.04738        0.225118         0.16568 
         3.0631        0.222569         0.16357 
        3.07883        0.219805        0.161497 
        3.09456        0.217421        0.159461 
        3.11026        0.214327        0.157463 
        3.12596        0.211398        0.155499 
        3.14163        0.210008        0.153573 
        3.15734        0.207781        0.151675 
        3.17308        0.205389        0.149805 
        3.18879         0.20285        0.147972 
        3.20447         0.20012        0.146171 
         3.2202        0.198932        0.144396 
         3.2359        0.196075        0.142653 
        3.25157        0.193202        0.140942 
        3.26729        0.192379        0.139255 
        3.28304        0.190129        0.137592 
        3.29877        0.187772        0.135958 
        3.31446        0.186636        0.134355 
        3.33014        0.184168        0.132778 
        3.34585        0.181752        0.131225 
        3.36158        0.180412        0.129694 
        3.37727        0.178897        0.128192 
        3.39294        0.177192        0.126716 
        3.40867        0.174639        0.125257 
        3.42439        0.173608        0.123822 
        3.44008        0.171929        0.122412 
        3.45578        0.169893        0.121024 
        3.47153        0.168586        0.119653 
        3.48724        0.166962        0.118307 
        3.50292        0.165683        0.116984 
        3.51859        0.163809        0.115682 
        3.53431        0.162009        0.114396 
        3.55007        0.160785        0.113126 
        3.56577        0.159768        0.111881 
        3.58146        0.157862        0.110655 
        3.59719        0.156498        0.109444 
        3.61292        0.155312        0.108252 
        3.62859        0.153969        0.107082 
        3.64429         0.15201        0.105927 
        3.66003        0.151111        0.104786 
        3.67578        0.149689        0.103662 
        3.69146        0.148304        0.102558 
        3.70712        0.147254        0.101473 
        3.72284        0.146528        0.100399 
        3.73853        0.145304       0.0993431 
        3.75422        0.143582       0.0983017 
        3.76993        0.142479       0.0972742 
        3.78564        0.141198       0.0962619 
        3.80137        0.140352       0.0952623 
        3.81707        0.138701        0.094279 
        3.83279        0.137872       0.0933088 
        3.84853         0.13669       0.0923507 
        3.86424        0.135525       0.0914079 
        3.87992        0.134411       0.0904796 
        3.89561        0.133484       0.0895642 
        3.91134        0.132176       0.0886596 
        3.92704        0.131008       0.0877685 
        3.94273        0.130084       0.0868905 
        3.95845        0.128652       0.0860229 
        3.97418        0.127796        0.085167 
        3.98988        0.126308       0.0843239 
        4.00554        0.125425       0.0834945 
        4.02125        0.123947       0.0826739 
        4.03698        0.122275        0.081863 
        4.05268        0.121386       0.0810648 
        4.06839         0.11955       0.0802767 
         4.0841        0.118149       0.0794993 
        4.09983         0.11689       0.0787311 
        4.11555         0.11541       0.0779734 
        4.13124        0.114059       0.0772277 
        4.14693         0.11272       0.0764911 
        4.16266         0.11141       0.0757624 
        4.17839        0.110187       0.0750437 
        4.19408        0.108709       0.0743358 
        4.20977        0.108005       0.0736369 
        4.22551        0.106945       0.0729452 
        4.24123        0.105506       0.0722631 
        4.25691        0.104697       0.0715916 
        4.27259        0.103632       0.0709284 
        4.28831        0.103043       0.0702722 
        4.30404        0.101406       0.0696238 
        4.31974        0.100848       0.0689849 
        4.33543         0.10004       0.0683544 
        4.35116       0.0992961       0.0677303 
        4.36688       0.0983756       0.0671142 
        4.38255       0.0975527        0.066508 
        4.39825       0.0971473        0.065908 
        4.41398       0.0962747       0.0653143 
         4.4297        0.095797       0.0647284 
        4.44541       0.0949228       0.0641499 
        4.46111       0.0943645       0.0635788 
        4.47683       0.0937405       0.0630143 
        4.49251       0.0931733       0.0624578 
        4.50819       0.0929815       0.0619082 
         4.5239        0.092298       0.0613644 
        4.53962       0.0918395       0.0608264 
        4.55535       0.0916545       0.0602946 
        4.57106       0.0911452       0.0597699 
        4.58678       0.0908273       0.0592514 
         4.6025       0.0907239       0.0587389 
        4.61821       0.0904347       0.0582325 
        4.63391       0.0900879       0.0577328 
         4.6496       0.0898455       0.0572391 
        4.66532       0.0896657       0.0567504 
        4.68103       0.0895607       0.0562677 
        4.69673       0.0894804        0.055791 
        4.71241       0.0896336       0.0553203 
        4.72811        0.089355       0.0548542 
        4.74384       0.0891323        0.054393 
        4.75955       0.0892389       0.0539377 
        4.77525       0.0893913       0.0534879 
        4.79096       0.0893924       0.0530426 
        4.80669       0.0889814       0.0526023 
         4.8224       0.0895732       0.0521674 
        4.83809       0.0895532       0.0517379 
        4.85379       0.0897577       0.0513129 
         4.8695       0.0897496       0.0508924 
        4.88521        0.090171       0.0504768 
        4.90093       0.0906978       0.0500657 
        4.91663       0.0905857       0.0496596 
        4.93234       0.0910406       0.0492576 
        4.94807       0.0912695       0.0488597 
        4.96377        0.091873        0.048467 
        4.97943       0.0926494       0.0480794 
        4.99514       0.0924684       0.0476951 
        5.01086       0.0927172       0.0473147 
        5.02654       0.0937724       0.0469393 
        5.04227       0.0941807        0.046567 
          5.058       0.0946604       0.0461985 
        5.07371       0.0951897       0.0458347 
        5.08942       0.0961141       0.0454748 
        5.10513       0.0967381       0.0451187 
        5.12084       0.0974027       0.0447662 
        5.13656       0.0978855       0.0444176 
        5.15225        0.098812       0.0440733 
        5.16796        0.099783        0.043732 
        5.18369        0.100483       0.0433941 
         5.1994        0.101408       0.0430603 
        5.21509        0.102275       0.0427304 
        5.23079        0.103099       0.0424035 
        5.24649        0.104179       0.0420803 
        5.26217        0.105314       0.0417607 
        5.27788        0.106176       0.0414439 
        5.29359        0.107281       0.0411304 
        5.30933         0.10864       0.0408197 
        5.32504        0.109712       0.0405127 
        5.34073        0.110577       0.0402092 
        5.35646        0.112085       0.0399081 
        5.37218        0.113654       0.0396102 
        5.38789        0.114531       0.0393157 
        5.40357        0.115537       0.0390245 
        5.41929        0.116902       0.0387357 
        5.43502        0.118779       0.0384497 
         5.4507        0.120499       0.0381674 
        5.46639        0.121737       0.0378878 
        5.48212        0.123141       0.0376103 
        5.49786        0.124919       0.0373353 
        5.51353        0.127494       0.0370644 
        5.52921        0.127872       0.0367959 
        5.54495        0.130573       0.0365293 
        5.56066        0.132372       0.0362657 
        5.57637         0.13384       0.0360046 
        5.59207        0.135015       0.0357464 
        5.60778        0.137653       0.0354906 
        5.62346        0.139507       0.0352376 
        5.63916        0.141102       0.0349869 
        5.65487        0.143614       0.0347385 
         5.6706        0.145088       0.0344922 
        5.68633        0.147722       0.0342482 
        5.70203        0.150112        0.034007 
        5.71773        0.152523       0.0337682 
        5.73344        0.155158       0.0335316 
        5.74916         0.15706        0.033297 
        5.76486        0.159686        0.033065 
        5.78054        0.161258       0.0328356 
        5.79626        0.164634       0.0326077 
          5.812        0.166833       0.0323817 
         5.8277        0.168714       0.0321585 
        5.84339        0.172189       0.0319375 
        5.85911        0.174376        0.031718 
        5.87484        0.177362       0.0315007 
        5.89053        0.179416       0.0312859 
        5.90623        0.183767       0.0310729 
        5.92195        0.185733       0.0308616 
        5.93767        0.188547       0.0306523 
        5.95336        0.191561       0.0304453 
        5.96905        0.194201       0.0302403 
        5.98476        0.196026       0.0300369 
        6.00048        0.200703       0.0298353 
        6.01617         0.20372       0.0296359 
        6.03185        0.206736       0.0294385 
        6.04756        0.209577       0.0292424 
        6.06331        0.213879       0.0290477 
        6.07903        0.218058       0.0288551 
        6.09473        0.219252       0.0286645 
        6.11044         0.22472       0.0284755 
        6.12616        0.225506       0.0282881 
        6.14186        0.230157       0.0281027 
        6.15755        0.233728       0.0279189 
        6.17326        0.237817       0.0277366 
        6.18898        0.240937       0.0275558 
        6.20467        0.243893        0.027377 
        6.22036        0.247325       0.0271998 
         6.2361        0.248817       0.0270237 
         6.2518        0.253924       0.0268494 
        6.26748        0.258101        0.026677 
        6.28319        0.262767       0.0265057 
        6.29893        0.267065       0.0263358 
        6.31463        0.270663       0.0261676 
        6.33033         0.27379       0.0260009 
        6.34604        0.278184       0.0258356 
        6.36177        0.281732       0.0256715 
        6.37747        0.284415       0.0255092 
