# k  (h/Mpc)    Pcb(k)  (Mpc/h)^3    Pcb_linear(k) (Mpc/h)^3   ShotnoiseSubtracted = true
      0.0200456          6722.9         6815.33 
      0.0350414         5064.79         4954.52 
      0.0492313         3587.63         3599.86 
      0.0637834          2914.3         2992.53 
      0.0800726         2300.79          2375.1 
       0.096163         1774.07         1723.34 
       0.111083         1436.48         1374.58 
       0.126058         1209.36         1218.16 
       0.142273         1033.13         1032.05 
       0.158546           844.1         815.101 
        0.17375         730.854         686.722 
       0.188953         667.559         621.811 
       0.204907         568.186         550.176 
       0.220756         506.344         465.482 
        0.23588         446.817         404.929 
         0.2514         400.959         367.874 
       0.267535         383.046         332.863 
       0.283568         333.916          293.54 
       0.299022         314.042         261.529 
       0.314451         306.614          239.02 
       0.330372          266.11         219.274 
       0.346141         245.978         199.025 
       0.361624         231.868         180.886 
       0.377134          212.74         166.444 
       0.392932         207.156         154.007 
       0.408854          195.13         141.965 
       0.424564         186.389         130.851 
       0.440253         168.604         121.314 
       0.455999         158.198         113.021 
       0.471626         153.969           105.4 
        0.48727         148.345         98.2714 
       0.502856         135.605          91.867 
       0.518488         133.317         86.1527 
       0.534347          124.91         80.8404 
       0.550082         121.763         75.9422 
       0.565732         119.007          71.461 
       0.581496         109.705         67.3568 
       0.597222         107.044         63.5928 
       0.612804         103.451         60.1317 
       0.628434         100.753         56.9056 
       0.644267         95.4542         53.8895 
       0.660051         92.3639         51.1098 
       0.675724         90.4612          48.543 
       0.691403         88.5147         46.1503 
       0.707174         85.4096         43.9054 
       0.722871         83.5497         41.8188 
        0.73838         80.8694           39.89 
       0.754018           76.28         38.0684 
       0.769845         75.7008         36.3408 
        0.78569         73.3002         34.7189 
       0.801365          71.171         33.2121 
       0.817031         68.7131         31.7961 
       0.832809         67.5093         30.4541 
       0.848511         65.8757          29.196 
       0.864097         64.6432         28.0179 
       0.879701         63.3186          26.904 
       0.895507         60.9732         25.8378 
       0.911279         60.0226         24.8319 
        0.92691         58.3183         23.8881 
       0.942635         57.1202         22.9883 
       0.958396         56.8726         22.1332 
       0.974128         55.4273         21.3234 
       0.989692         53.9351         20.5622 
        1.00528         52.9972         19.8373 
        1.02113         51.8236          19.136 
        1.03692         51.5017         18.4714 
        1.05264         50.3054         17.8416 
        1.06832         49.0799         17.2422 
        1.08405         48.1755         16.6688 
        1.09979         47.9386         16.1214 
        1.11537         46.5691          15.604 
        1.13105         45.4591         15.1063 
        1.14679         44.9429         14.6285 
        1.16256         44.3011         14.1705 
        1.17828         43.7467         13.7337 
        1.19395         42.6232         13.3168 
         1.2097         42.5354         12.9152 
        1.22537         41.5444         12.5322 
          1.241         40.9078         12.1659 
        1.25666          40.106         11.8133 
        1.27241         39.9107         11.4732 
        1.28819         38.7961         11.1459 
        1.30392         38.5677         10.8324 
        1.31957         38.1449         10.5323 
        1.33529         37.4291         10.2426 
        1.35108         36.7774         9.96263 
        1.36674         36.3919         9.69517 
         1.3824         35.8011         9.43781 
        1.39811         35.1245         9.18897 
        1.41389         34.7221         8.94817 
        1.42964         34.4771         8.71643 
        1.44531         33.7117         8.49405 
        1.46101         33.5268         8.27898 
        1.47667         33.1039         8.07201 
        1.49229         32.4903          7.8727 
        1.50793         32.2157         7.67991 
        1.52367         31.6643         7.49234 
        1.53953         31.5233         7.30981 
        1.55526         30.9916         7.13482 
        1.57092         30.6421          6.9663 
        1.58662         30.1782         6.80283 
        1.60235         29.8091         6.64431 
        1.61809         29.5054         6.49077 
        1.63369         29.2211         6.34345 
        1.64941         28.8233         6.19967 
        1.66519         28.3724         6.05983 
        1.68085         27.9727         5.92531 
        1.69652          27.751         5.79484 
        1.71228         27.5599         5.66757 
        1.72806         27.0907         5.54403 
        1.74368         26.7679         5.42541 
        1.75933         26.5739         5.31004 
        1.77505         26.3424         5.19749 
        1.79081         26.0063         5.08801 
         1.8065         25.6596         4.98215 
        1.82218         25.3795         4.87941 
        1.83797         25.2332         4.77887 
        1.85367         24.9058         4.68172 
        1.86928         24.8516         4.58785 
        1.88497          24.366         4.49606 
        1.90073         24.1565         4.40644 
        1.91647         23.8825         4.31934 
        1.93218         23.9048         4.23479 
        1.94787         23.5322         4.15263 
        1.96363         23.2578         4.07233 
        1.97935         22.9472         3.99432 
        1.99499         22.8024          3.9188 
        2.01064          22.484         3.84512 
         2.0264          22.311         3.77288 
        2.04216         22.1956         3.70253 
        2.05781         21.9088         3.63442 
        2.07353          21.723         3.56779 
        2.08928         21.3478         3.50268 
        2.10499         21.2134         3.43937 
        2.12065         21.0141         3.37782 
        2.13633         20.8827         3.31773 
        2.15211         20.5421         3.25871 
        2.16785         20.5293         3.20129 
        2.18349         20.2433         3.14562 
        2.19916         20.0568         3.09115 
        2.21489         19.8167          3.0378 
        2.23063         19.7432         2.98567 
         2.2463         19.4851           2.935 
        2.26194          19.325         2.88563 
        2.27765         19.0286         2.83715 
        2.29341         18.9116         2.78966 
        2.30914         18.7119         2.74335 
        2.32486         18.6355         2.69812 
        2.34061         18.4496         2.65383 
        2.35635         18.1827         2.61058 
        2.37203         18.0816         2.56845 
        2.38768         17.9073         2.52733 
        2.40339         17.8331         2.48696 
        2.41914         17.6185         2.44738 
        2.43483          17.429         2.40881 
         2.4505         17.2197         2.37113 
        2.46622         17.1619         2.33413 
        2.48195         16.9572         2.29791 
        2.49759         16.7155         2.26266 
        2.51328         16.6955         2.22806 
        2.52906         16.5447         2.19396 
        2.54479          16.355          2.1607 
        2.56049         16.2053          2.1282 
        2.57618         16.1616         2.09639 
        2.59189         15.9438         2.06519 
        2.60758         15.7442         2.03467 
        2.62325         15.6512          2.0048 
        2.63898           15.58         1.97543 
        2.65468         15.3436         1.94671 
        2.67044         15.2415         1.91844 
        2.68618         15.1545          1.8908 
        2.70184         14.9866         1.86381 
        2.71755         14.8505         1.83728 
        2.73329         14.7382         1.81123 
        2.74897         14.6084         1.78576 
        2.76462         14.5031         1.76085 
        2.78034         14.3419          1.7363 
        2.79607         14.2518          1.7122 
        2.81179         14.1369         1.68858 
        2.82749         14.0088         1.66544 
        2.84321         13.8931          1.6427 
        2.85893         13.7203          1.6204 
        2.87462         13.6898         1.59854 
        2.89033          13.523         1.57707 
        2.90605         13.4393         1.55598 
        2.92176         13.3164         1.53528 
        2.93747         13.1948         1.51497 
        2.95318         13.0919         1.49503 
        2.96891         12.9897         1.47543 
        2.98456         12.8731         1.45627 
        3.00023         12.7741         1.43742 
        3.01596         12.6941         1.41885 
        3.03164         12.5858         1.40066 
        3.04738         12.4811         1.38274 
         3.0631         12.3268         1.36513 
        3.07883          12.259         1.34783 
        3.09456         12.1636         1.33084 
        3.11026         12.0897         1.31416 
        3.12596         11.9903         1.29777 
        3.14163         11.8792          1.2817 
        3.15734         11.7737         1.26586 
        3.17308         11.7174         1.25025 
        3.18879         11.5896         1.23495 
        3.20447         11.5299         1.21993 
         3.2202         11.4105         1.20511 
         3.2359         11.2957         1.19056 
        3.25157          11.263         1.17629 
        3.26729         11.1273          1.1622 
        3.28304          11.019         1.14832 
        3.29877         10.9888         1.13469 
        3.31446         10.8773          1.1213 
        3.33014         10.7998         1.10815 
        3.34585         10.6861         1.09518 
        3.36158         10.6242         1.08241 
        3.37727         10.5782         1.06987 
        3.39294          10.473         1.05755 
        3.40867         10.3811         1.04538 
        3.42439         10.2832          1.0334 
        3.44008         10.2339         1.02164 
        3.45578          10.128         1.01005 
        3.47153          10.076        0.998611 
        3.48724         9.98801        0.987372 
        3.50292         9.90131        0.976333 
        3.51859         9.82991        0.965467 
        3.53431         9.72037        0.954733 
        3.55007         9.65625        0.944136 
        3.56577         9.57296        0.933742 
        3.58146         9.49444        0.923508 
        3.59719         9.41713        0.913404 
        3.61292         9.39124        0.903455 
        3.62859         9.32147        0.893691 
        3.64429         9.21657        0.884053 
        3.66003         9.17528        0.874528 
        3.67578         9.07659        0.865146 
        3.69146          9.0485        0.855937 
        3.70712          8.9551         0.84688 
        3.72284         8.88181        0.837919 
        3.73853         8.82881        0.829104 
        3.75422         8.76717        0.820412 
        3.76993         8.67172        0.811837 
        3.78564         8.62177        0.803388 
        3.80137         8.56534        0.795046 
        3.81707         8.48063         0.78684 
        3.83279         8.40134        0.778742 
        3.84853          8.3579        0.770746 
        3.86424         8.30879        0.762877 
        3.87992         8.26002         0.75513 
        3.89561         8.17626         0.74749 
        3.91134         8.10198         0.73994 
        3.92704          8.0488        0.732503 
        3.94273         7.98478        0.725176 
        3.95845         7.94142        0.717935 
        3.97418          7.8721        0.710792 
        3.98988         7.82612        0.703756 
        4.00554         7.76103        0.696833 
        4.02125         7.72332        0.689985 
        4.03698         7.63993        0.683217 
        4.05268         7.57874        0.676556 
        4.06839         7.50236        0.669978 
         4.0841         7.46837         0.66349 
        4.09983         7.41063        0.657079 
        4.11555         7.33736        0.650755 
        4.13124          7.2944        0.644531 
        4.14693         7.23428        0.638384 
        4.16266         7.18618        0.632302 
        4.17839         7.14343        0.626304 
        4.19408         7.09165        0.620396 
        4.20977         7.01664        0.614563 
        4.22551         6.98924         0.60879 
        4.24123         6.93881        0.603097 
        4.25691         6.88579        0.597493 
        4.27259         6.80541        0.591958 
        4.28831         6.77616        0.586482 
        4.30404         6.72082         0.58107 
        4.31974         6.67252        0.575738 
        4.33543         6.61516        0.570476 
        4.35116         6.57001        0.565267 
        4.36688         6.53055        0.560125 
        4.38255         6.47984        0.555067 
        4.39825         6.42896        0.550059 
        4.41398         6.37331        0.545104 
         4.4297         6.34132        0.540214 
        4.44541          6.2892        0.535386 
        4.46111         6.26302         0.53062 
        4.47683         6.21362        0.525909 
        4.49251         6.17195        0.521264 
        4.50819         6.13089        0.516677 
         4.5239         6.06397        0.512138 
        4.53962         6.03472        0.507648 
        4.55535         5.98815         0.50321 
        4.57106         5.94241        0.498832 
        4.58678         5.90481        0.494504 
         4.6025         5.86219        0.490226 
        4.61821         5.83226           0.486 
        4.63391         5.77516         0.48183 
         4.6496         5.73921        0.477709 
        4.66532         5.69586        0.473631 
        4.68103         5.66244        0.469602 
        4.69673          5.6279        0.465623 
        4.71241         5.58738        0.461695 
        4.72811         5.53439        0.457806 
        4.74384         5.52108        0.453956 
        4.75955         5.46523        0.450156 
        4.77525          5.4277        0.446402 
        4.79096         5.39706        0.442686 
        4.80669         5.34939        0.439011 
         4.8224         5.32138        0.435382 
        4.83809         5.28206        0.431797 
        4.85379          5.2318         0.42825 
         4.8695         5.21416        0.424741 
        4.88521         5.18203        0.421272 
        4.90093         5.13239        0.417842 
        4.91663           5.098        0.414452 
        4.93234         5.07541        0.411097 
        4.94807         5.03689        0.407776 
        4.96377         5.00284        0.404499 
        4.97943         4.96865        0.401264 
        4.99514         4.92775        0.398057 
        5.01086         4.90606        0.394881 
        5.02654         4.87671        0.391749 
        5.04227         4.84052        0.388641 
          5.058         4.79688        0.385566 
        5.07371         4.77123         0.38253 
        5.08942          4.7423        0.379526 
        5.10513          4.7102        0.376554 
        5.12084         4.68146        0.373613 
        5.13656         4.63985        0.370703 
        5.15225         4.61237        0.367829 
        5.16796         4.58861        0.364981 
        5.18369         4.54748        0.362161 
         5.1994         4.51514        0.359375 
        5.21509         4.49607        0.356622 
        5.23079         4.46544        0.353894 
        5.24649         4.43673        0.351196 
        5.26217          4.4001        0.348529 
        5.27788         4.38233        0.345885 
        5.29359         4.35067        0.343269 
        5.30933         4.32477        0.340675 
        5.32504         4.29658        0.338113 
        5.34073         4.27217         0.33558 
        5.35646         4.24621        0.333068 
        5.37218         4.20698        0.330581 
        5.38789         4.18805        0.328123 
        5.40357         4.16065        0.325693 
        5.41929         4.13133        0.323283 
        5.43502         4.10353        0.320896 
         5.4507          4.0839        0.318539 
        5.46639         4.04999        0.316206 
        5.48212         4.03636         0.31389 
        5.49786         4.00153        0.311595 
        5.51353         3.97812        0.309334 
        5.52921         3.96069        0.307094 
        5.54495          3.9285        0.304869 
        5.56066         3.90716        0.302668 
        5.57637         3.87947        0.300489 
        5.59207         3.85146        0.298334 
        5.60778         3.84088        0.296199 
        5.62346         3.81388        0.294088 
        5.63916         3.78425        0.291996 
        5.65487         3.76252        0.289922 
         5.6706         3.74147        0.287867 
        5.68633         3.72002         0.28583 
        5.70203         3.69374        0.283818 
        5.71773         3.67321        0.281825 
        5.73344         3.65054         0.27985 
        5.74916         3.62714        0.277892 
        5.76486         3.60495        0.275956 
        5.78054         3.58339        0.274041 
        5.79626         3.56061        0.272139 
          5.812         3.53514        0.270253 
         5.8277         3.51149        0.268391 
        5.84339         3.50396        0.266546 
        5.85911         3.47857        0.264714 
        5.87484         3.45478        0.262901 
        5.89053         3.43194        0.261107 
        5.90623         3.41763         0.25933 
        5.92195         3.39532        0.257566 
        5.93767         3.37254         0.25582 
        5.95336         3.35549        0.254092 
        5.96905         3.33159        0.252382 
        5.98476          3.3188        0.250684 
        6.00048         3.29086        0.249002 
        6.01617         3.27394        0.247337 
        6.03185         3.26232        0.245689 
        6.04756         3.23377        0.244053 
        6.06331         3.21732        0.242428 
        6.07903         3.19666        0.240821 
        6.09473         3.17963         0.23923 
        6.11044         3.15642        0.237652 
        6.12616         3.14505        0.236089 
        6.14186         3.12853        0.234541 
        6.15755         3.10909        0.233007 
        6.17326         3.08936        0.231486 
        6.18898         3.06646        0.229977 
        6.20467         3.05195        0.228485 
        6.22036         3.03483        0.227006 
         6.2361         3.01833        0.225536 
         6.2518         3.00028        0.224081 
        6.26748         2.98391        0.222643 
        6.28319         2.96546        0.221213 
        6.29893         2.95303        0.219794 
        6.31463         2.93817        0.218391 
        6.33033         2.92216           0.217 
        6.34604         2.90054         0.21562 
        6.36177         2.88811        0.214251 
        6.37747         2.86607        0.212896 
