# k  (h/Mpc)    Pcb(k)  (Mpc/h)^3    Pcb_linear(k) (Mpc/h)^3   ShotnoiseSubtracted = true
      0.0200456         130.656         132.349 
      0.0350414         96.8749         96.2133 
      0.0492313         70.2102         69.9067 
      0.0637834         57.9076         58.1128 
      0.0800726         45.8748         46.1227 
       0.096163         33.7722          33.466 
       0.111083          26.985         26.6934 
       0.126058         23.5836         23.6558 
       0.142273         19.9362         20.0416 
       0.158546         15.8764         15.8287 
        0.17375         13.4337         13.3357 
       0.188953         12.0749         12.0751 
       0.204907         10.5699          10.684 
       0.220756         9.04497         9.03934 
        0.23588         7.87146         7.86344 
         0.2514         7.14392         7.14386 
       0.267535         6.46425         6.46397 
       0.283568         5.70481         5.70035 
       0.299022          5.0868         5.07872 
       0.314451         4.68082          4.6416 
       0.330372         4.26836         4.25815 
       0.346141         3.87586         3.86492 
       0.361624         3.51759         3.51268 
       0.377134           3.229         3.23222 
       0.392932         3.02803         2.99071 
       0.408854         2.75715         2.75686 
       0.424564         2.56692         2.54104 
       0.440253         2.36626         2.35583 
       0.455999         2.19045          2.1948 
       0.471626         2.04226          2.0468 
        0.48727         1.92281         1.90836 
       0.502856         1.79966         1.78399 
       0.518488         1.66905         1.67303 
       0.534347         1.56026         1.56986 
       0.550082         1.48095         1.47474 
       0.565732          1.4041         1.38772 
       0.581496         1.31377         1.30802 
       0.597222         1.23902         1.23493 
       0.612804         1.17035         1.16772 
       0.628434         1.10684         1.10507 
       0.644267          1.0525          1.0465 
       0.660051          0.9987        0.992516 
       0.675724        0.943136         0.94267 
       0.691403        0.896972        0.896206 
       0.707174        0.853389        0.852612 
       0.722871        0.822911        0.812091 
        0.73838        0.773965        0.774637 
       0.754018        0.738073        0.739262 
       0.769845        0.700668        0.705712 
        0.78569        0.674688        0.674216 
       0.801365        0.646719        0.644955 
       0.817031        0.619555        0.617458 
       0.832809        0.590236        0.591398 
       0.848511        0.566961        0.566965 
       0.864097        0.546137        0.544088 
       0.879701        0.526388        0.522457 
       0.895507        0.499751        0.501752 
       0.911279        0.483416        0.482217 
        0.92691        0.467547         0.46389 
       0.942635         0.44528        0.446417 
       0.958396        0.430036        0.429812 
       0.974128        0.414381        0.414085 
       0.989692        0.399519        0.399304 
        1.00528        0.383132        0.385226 
        1.02113        0.373003        0.371608 
        1.03692        0.360438        0.358702 
        1.05264        0.345777        0.346471 
        1.06832        0.334735        0.334831 
        1.08405        0.322408        0.323697 
        1.09979         0.31278        0.313065 
        1.11537        0.300836        0.303018 
        1.13105        0.290337        0.293354 
        1.14679         0.28261        0.284075 
        1.16256        0.274627        0.275181 
        1.17828        0.266167        0.266698 
        1.19395        0.258015        0.258603 
         1.2097        0.249356        0.250804 
        1.22537        0.241053        0.243366 
          1.241        0.234302        0.236253 
        1.25666        0.228468        0.229407 
        1.27241        0.220938        0.222801 
        1.28819        0.214168        0.216445 
        1.30392         0.20901        0.210357 
        1.31957        0.202434         0.20453 
        1.33529         0.19761        0.198904 
        1.35108        0.191062        0.193467 
        1.36674        0.186529        0.188273 
         1.3824        0.181349        0.183276 
        1.39811        0.175644        0.178443 
        1.41389        0.172127        0.173767 
        1.42964        0.167152        0.169267 
        1.44531        0.162485        0.164948 
        1.46101         0.15792        0.160772 
        1.47667        0.154315        0.156753 
        1.49229        0.150411        0.152882 
        1.50793        0.146745        0.149138 
        1.52367        0.142804        0.145496 
        1.53953        0.138893        0.141951 
        1.55526        0.135622        0.138553 
        1.57092        0.133222        0.135281 
        1.58662        0.129631        0.132106 
        1.60235        0.126443        0.129028 
        1.61809        0.123201        0.126046 
        1.63369        0.120223        0.123185 
        1.64941        0.117564        0.120393 
        1.66519        0.115018        0.117678 
        1.68085        0.112074        0.115065 
        1.69652        0.109812        0.112532 
        1.71228        0.106882         0.11006 
        1.72806        0.104962        0.107661 
        1.74368        0.102409        0.105358 
        1.75933        0.100357        0.103117 
        1.77505       0.0983183        0.100932 
        1.79081        0.095755       0.0988056 
         1.8065       0.0939919       0.0967499 
        1.82218       0.0915216       0.0947547 
        1.83797        0.089668       0.0928022 
        1.85367       0.0877481       0.0909156 
        1.86928       0.0855716       0.0890929 
        1.88497       0.0840582       0.0873103 
        1.90073       0.0820529       0.0855699 
        1.91647       0.0809819       0.0838786 
        1.93218       0.0796409       0.0822367 
        1.94787       0.0772653       0.0806412 
        1.96363       0.0758443       0.0790818 
        1.97935       0.0742709       0.0775669 
        1.99499       0.0728603       0.0761003 
        2.01064       0.0713739       0.0746696 
         2.0264        0.070224       0.0732667 
        2.04216        0.068706       0.0719006 
        2.05781       0.0671769        0.070578 
        2.07353       0.0660456       0.0692839 
        2.08928       0.0649213       0.0680196 
        2.10499       0.0635886       0.0667902 
        2.12065       0.0623771       0.0655949 
        2.13633       0.0612454       0.0644279 
        2.15211       0.0602228       0.0632818 
        2.16785       0.0587041       0.0621668 
        2.18349       0.0578081       0.0610857 
        2.19916       0.0566283        0.060028 
        2.21489       0.0555742        0.058992 
        2.23063       0.0547971       0.0579796 
         2.2463       0.0537621       0.0569957 
        2.26194       0.0528304        0.056037 
        2.27765       0.0519657       0.0550955 
        2.29341       0.0507608       0.0541732 
        2.30914       0.0499713       0.0532739 
        2.32486        0.048998       0.0523956 
        2.34061       0.0481539       0.0515356 
        2.35635       0.0474172       0.0506957 
        2.37203       0.0469422       0.0498774 
        2.38768       0.0460873        0.049079 
        2.40339        0.045171       0.0482951 
        2.41914       0.0442852       0.0475265 
        2.43483       0.0437425       0.0467774 
         2.4505        0.042866       0.0460457 
        2.46622       0.0421345       0.0453271 
        2.48195       0.0414462       0.0446238 
        2.49759       0.0407621       0.0439393 
        2.51328       0.0399288       0.0432673 
        2.52906       0.0394504       0.0426051 
        2.54479       0.0388516       0.0419593 
        2.56049        0.038128       0.0413281 
        2.57618       0.0376185       0.0407104 
        2.59189       0.0368287       0.0401044 
        2.60758       0.0364686       0.0395118 
        2.62325       0.0357211       0.0389318 
        2.63898       0.0353024       0.0383615 
        2.65468       0.0346152       0.0378038 
        2.67044       0.0340998       0.0372548 
        2.68618       0.0335478       0.0367179 
        2.70184       0.0332203       0.0361938 
        2.71755       0.0326273       0.0356787 
        2.73329       0.0321566       0.0351727 
        2.74897       0.0316671       0.0346783 
        2.76462       0.0311391       0.0341944 
        2.78034        0.030736       0.0337178 
        2.79607       0.0302592       0.0332497 
        2.81179       0.0297637       0.0327911 
        2.82749       0.0294501       0.0323416 
        2.84321       0.0289534       0.0319001 
        2.85893       0.0285079        0.031467 
        2.87462       0.0281113       0.0310426 
        2.89033       0.0277009       0.0306257 
        2.90605       0.0272993        0.030216 
        2.92176       0.0270143       0.0298141 
        2.93747       0.0265099       0.0294197 
        2.95318       0.0262211       0.0290324 
        2.96891       0.0258011       0.0286518 
        2.98456       0.0253932       0.0282798 
        3.00023       0.0252175       0.0279138 
        3.01596       0.0247061       0.0275531 
        3.03164       0.0244301       0.0271999 
        3.04738        0.024096       0.0268518 
         3.0631       0.0236375       0.0265099 
        3.07883       0.0234669        0.026174 
        3.09456       0.0231422       0.0258439 
        3.11026       0.0227422       0.0255201 
        3.12596        0.022573       0.0252018 
        3.14163       0.0222306       0.0248897 
        3.15734       0.0219956       0.0245821 
        3.17308       0.0217082        0.024279 
        3.18879       0.0213787       0.0239819 
        3.20447       0.0210845       0.0236901 
         3.2202       0.0208306       0.0234023 
         3.2359       0.0205989       0.0231198 
        3.25157       0.0203167       0.0228426 
        3.26729        0.020069       0.0225692 
        3.28304       0.0198741       0.0222996 
        3.29877        0.019619       0.0220349 
        3.31446       0.0193047        0.021775 
        3.33014       0.0191233       0.0215195 
        3.34585       0.0188886       0.0212677 
        3.36158       0.0186384       0.0210196 
        3.37727        0.018392       0.0207762 
        3.39294       0.0181704       0.0205369 
        3.40867       0.0180488       0.0203005 
        3.42439       0.0177999       0.0200679 
        3.44008       0.0176217       0.0198395 
        3.45578       0.0173899       0.0196144 
        3.47153       0.0172206       0.0193923 
        3.48724       0.0169977       0.0191741 
        3.50292       0.0168845       0.0189597 
        3.51859       0.0166813       0.0187487 
        3.53431       0.0164223       0.0185402 
        3.55007       0.0162736       0.0183345 
        3.56577       0.0161033       0.0181326 
        3.58146       0.0159259       0.0179339 
        3.59719       0.0158069       0.0177377 
        3.61292       0.0155869       0.0175445 
        3.62859       0.0154042       0.0173549 
        3.64429       0.0152504       0.0171677 
        3.66003       0.0151552       0.0169827 
        3.67578       0.0149838       0.0168005 
        3.69146       0.0148507       0.0166217 
        3.70712       0.0146944       0.0164458 
        3.72284       0.0145395       0.0162718 
        3.73853       0.0143929       0.0161006 
        3.75422        0.014249       0.0159318 
        3.76993       0.0141299       0.0157653 
        3.78564       0.0139752       0.0156012 
        3.80137        0.013864       0.0154392 
        3.81707       0.0137133       0.0152799 
        3.83279        0.013565       0.0151226 
        3.84853       0.0134654       0.0149673 
        3.86424       0.0133398       0.0148145 
        3.87992        0.013243       0.0146641 
        3.89561       0.0130961       0.0145157 
        3.91134        0.012992       0.0143691 
        3.92704       0.0128438       0.0142247 
        3.94273       0.0127277       0.0140824 
        3.95845       0.0126174       0.0139418 
        3.97418       0.0125319       0.0138031 
        3.98988       0.0123337       0.0136664 
        4.00554       0.0122515        0.013532 
        4.02125        0.012109        0.013399 
        4.03698       0.0119344       0.0132676 
        4.05268       0.0117905       0.0131382 
        4.06839       0.0116463       0.0130105 
         4.0841       0.0114641       0.0128845 
        4.09983       0.0112998         0.01276 
        4.11555       0.0111617       0.0126372 
        4.13124       0.0110085       0.0125163 
        4.14693       0.0108765        0.012397 
        4.16266       0.0107432       0.0122789 
        4.17839        0.010614       0.0121624 
        4.19408       0.0104619       0.0120477 
        4.20977       0.0103308       0.0119344 
        4.22551       0.0102293       0.0118223 
        4.24123       0.0101091       0.0117117 
        4.25691       0.0100287       0.0116029 
        4.27259      0.00989035       0.0114954 
        4.28831      0.00981001       0.0113891 
        4.30404      0.00969713        0.011284 
        4.31974      0.00963994       0.0111804 
        4.33543      0.00953076       0.0110783 
        4.35116      0.00942885       0.0109771 
        4.36688      0.00938581       0.0108772 
        4.38255      0.00932087        0.010779 
        4.39825      0.00927954       0.0106818 
        4.41398      0.00919682       0.0105855 
         4.4297      0.00913791       0.0104906 
        4.44541      0.00905901       0.0103968 
        4.46111      0.00899292       0.0103043 
        4.47683      0.00901075       0.0102128 
        4.49251      0.00893519       0.0101226 
        4.50819      0.00891609       0.0100335 
         4.5239      0.00886417      0.00994537 
        4.53962      0.00886192      0.00985818 
        4.55535      0.00881063      0.00977199 
        4.57106      0.00882655      0.00968696 
        4.58678      0.00879594      0.00960292 
         4.6025      0.00878454      0.00951985 
        4.61821      0.00877018      0.00943779 
        4.63391      0.00878263      0.00935679 
         4.6496      0.00876475      0.00927678 
        4.66532      0.00875718      0.00919758 
        4.68103      0.00878927      0.00911934 
        4.69673       0.0087841      0.00904208 
        4.71241      0.00885016       0.0089658 
        4.72811      0.00883803      0.00889026 
        4.74384      0.00887802      0.00881551 
        4.75955        0.008882      0.00874172 
        4.77525      0.00892645      0.00866882 
        4.79096        0.008987      0.00859666 
        4.80669      0.00903392      0.00852529 
         4.8224      0.00906218      0.00845481 
        4.83809      0.00915156      0.00838519 
        4.85379      0.00921872      0.00831632 
         4.8695      0.00924612      0.00824817 
        4.88521      0.00931435      0.00818081 
        4.90093      0.00937523      0.00811419 
        4.91663      0.00948476      0.00804837 
        4.93234      0.00955787      0.00798321 
        4.94807      0.00960565      0.00791873 
        4.96377      0.00972179      0.00785508 
        4.97943      0.00989943      0.00779227 
        4.99514      0.00993616      0.00772998 
        5.01086       0.0100442      0.00766832 
        5.02654       0.0101447      0.00760749 
        5.04227       0.0102539      0.00754714 
          5.058       0.0104124      0.00748742 
        5.07371       0.0104713      0.00742846 
        5.08942       0.0106882      0.00737013 
        5.10513       0.0107517      0.00731242 
        5.12084       0.0108805      0.00725529 
        5.13656        0.011047      0.00719879 
        5.15225       0.0112265      0.00714298 
        5.16796       0.0114222      0.00708768 
        5.18369       0.0115551      0.00703291 
         5.1994       0.0117329      0.00697882 
        5.21509        0.011882      0.00692535 
        5.23079       0.0120902      0.00687237 
        5.24649       0.0123065      0.00681999 
        5.26217       0.0124496      0.00676819 
        5.27788       0.0126782      0.00671685 
        5.29359       0.0128698      0.00666604 
        5.30933       0.0131354      0.00661568 
        5.32504       0.0133496      0.00656592 
        5.34073       0.0135806      0.00651673 
        5.35646       0.0138652      0.00646794 
        5.37218       0.0140582      0.00641965 
        5.38789       0.0142774      0.00637192 
        5.40357       0.0145849      0.00632474 
        5.41929       0.0148593      0.00627792 
        5.43502       0.0151678      0.00623158 
         5.4507       0.0154281      0.00618581 
        5.46639       0.0156812       0.0061405 
        5.48212       0.0159805      0.00609553 
        5.49786       0.0164471      0.00605096 
        5.51353       0.0167703      0.00600706 
        5.52921       0.0169819      0.00596355 
        5.54495       0.0173874      0.00592034 
        5.56066       0.0178311       0.0058776 
        5.57637       0.0181226      0.00583529 
        5.59207        0.018574      0.00579344 
        5.60778       0.0189176      0.00575198 
        5.62346       0.0192386      0.00571099 
        5.63916       0.0196647      0.00567035 
        5.65487       0.0201081      0.00563009 
         5.6706       0.0205416      0.00559017 
        5.68633       0.0211123      0.00555062 
        5.70203       0.0215592      0.00551154 
        5.71773       0.0220324      0.00547284 
        5.73344       0.0223486      0.00543449 
        5.74916       0.0228876      0.00539648 
        5.76486       0.0235829      0.00535887 
        5.78054        0.024034      0.00532169 
        5.79626       0.0245452      0.00528475 
          5.812       0.0252455      0.00524813 
         5.8277       0.0256615      0.00521196 
        5.84339       0.0263102      0.00517613 
        5.85911       0.0270672      0.00514057 
        5.87484       0.0276752      0.00510534 
        5.89053       0.0283487      0.00507052 
        5.90623       0.0290785      0.00503601 
        5.92195       0.0296434      0.00500176 
        5.93767        0.030451      0.00496784 
        5.95336       0.0311277       0.0049343 
        5.96905       0.0320079      0.00490107 
        5.98476       0.0323988      0.00486811 
        6.00048       0.0337116      0.00483544 
        6.01617       0.0342374      0.00480311 
        6.03185       0.0351011      0.00477111 
        6.04756       0.0360884      0.00473933 
        6.06331       0.0370944      0.00470778 
        6.07903        0.037883      0.00467657 
        6.09473       0.0391801      0.00464568 
        6.11044       0.0401976      0.00461504 
        6.12616       0.0410946      0.00458468 
        6.14186       0.0420486      0.00455462 
        6.15755       0.0430622      0.00452483 
        6.17326       0.0443452      0.00449529 
        6.18898       0.0455158        0.004466 
        6.20467       0.0469347      0.00443702 
        6.22036        0.048186      0.00440829 
         6.2361       0.0493019      0.00437975 
         6.2518       0.0507261       0.0043515 
        6.26748       0.0514995      0.00432357 
        6.28319       0.0536547       0.0042958 
        6.29893       0.0548867      0.00426825 
        6.31463       0.0565288        0.004241 
        6.33033       0.0574728      0.00421398 
        6.34604       0.0594172      0.00418719 
        6.36177       0.0607481       0.0041606 
        6.37747       0.0628368      0.00413429 
