# k  (h/Mpc)    Pcb(k)  (Mpc/h)^3    Pcb_linear(k) (Mpc/h)^3   ShotnoiseSubtracted = true
      0.0200456         20096.2         20560.4 
      0.0350414         14291.3         14946.7 
      0.0492313           10648           10860 
      0.0637834         9204.54         9027.81 
      0.0800726         7265.14         7165.15 
       0.096163         5039.62         5198.94 
       0.111083         4044.44         4146.81 
       0.126058         3726.28         3674.91 
       0.142273          3226.1         3113.46 
       0.158546         2808.01         2458.98 
        0.17375         2245.12         2071.69 
       0.188953         2193.23         1875.87 
       0.204907          2061.2         1659.76 
       0.220756         1783.01         1404.26 
        0.23588         1590.07         1221.58 
         0.2514         1383.34          1109.8 
       0.267535         1380.63         1004.17 
       0.283568         1251.57         885.547 
       0.299022         1182.24         788.976 
       0.314451         1126.51         721.071 
       0.330372         1034.66         661.502 
       0.346141          982.05         600.414 
       0.361624         943.731         545.694 
       0.377134         877.657         502.124 
       0.392932         843.529         464.606 
       0.408854         824.544         428.277 
       0.424564          764.72         394.749 
       0.440253         751.762         365.978 
       0.455999         720.255         340.961 
       0.471626         692.164          317.97 
        0.48727         663.933         296.463 
       0.502856         645.927         277.143 
       0.518488         638.631         259.904 
       0.534347          597.75         243.878 
       0.550082          580.26         229.101 
       0.565732         578.748         215.582 
       0.581496         545.276         203.201 
       0.597222         535.761         191.845 
       0.612804          524.17         181.404 
       0.628434         508.283         171.672 
       0.644267         494.937         162.573 
       0.660051         479.347         154.187 
       0.675724         475.009         146.443 
       0.691403         459.062         139.225 
       0.707174          443.79         132.453 
       0.722871         438.824         126.158 
        0.73838         431.344         120.339 
       0.754018         420.264         114.844 
       0.769845         411.511         109.632 
        0.78569         405.716         104.739 
       0.801365         394.743         100.194 
       0.817031         382.685         95.9219 
       0.832809         380.183         91.8734 
       0.848511         371.081         88.0778 
       0.864097         361.372         84.5238 
       0.879701          356.58         81.1634 
       0.895507         352.752          77.947 
       0.911279         341.602         74.9123 
        0.92691          337.61          72.065 
       0.942635         329.731         69.3508 
       0.958396         322.138         66.7711 
       0.974128         316.913          64.328 
       0.989692         313.819         62.0317 
        1.00528           306.6         59.8447 
        1.02113           304.6         57.7292 
        1.03692         296.022         55.7242 
        1.05264         293.868         53.8241 
        1.06832         286.269         52.0159 
        1.08405         281.866         50.2863 
        1.09979         276.523         48.6346 
        1.11537         272.226         47.0737 
        1.13105         266.578         45.5723 
        1.14679         262.296         44.1309 
        1.16256         257.492         42.7492 
        1.17828         255.299         41.4315 
        1.19395         249.158         40.1739 
         1.2097         247.633         38.9624 
        1.22537         241.852         37.8068 
          1.241         240.575         36.7017 
        1.25666         235.271         35.6383 
        1.27241         232.198         34.6121 
        1.28819         228.939         33.6247 
        1.30392         223.339         32.6788 
        1.31957         223.724         31.7737 
        1.33529          218.75         30.8996 
        1.35108          213.66         30.0551 
        1.36674         212.201         29.2482 
         1.3824         210.471         28.4718 
        1.39811         207.373         27.7211 
        1.41389         203.795         26.9947 
        1.42964         201.564         26.2955 
        1.44531         198.529         25.6247 
        1.46101         195.734         24.9759 
        1.47667         192.338         24.3515 
        1.49229         190.691         23.7502 
        1.50793         186.492         23.1686 
        1.52367         185.105         22.6028 
        1.53953         182.314         22.0521 
        1.55526         178.096         21.5242 
        1.57092         177.196         21.0158 
        1.58662          174.97         20.5226 
        1.60235         171.763         20.0444 
        1.61809         170.762         19.5812 
        1.63369         167.221         19.1368 
        1.64941         163.832          18.703 
        1.66519         163.231         18.2812 
        1.68085         161.126         17.8754 
        1.69652         158.622         17.4818 
        1.71228         155.597         17.0978 
        1.72806         153.965         16.7251 
        1.74368         152.359         16.3673 
        1.75933         149.484         16.0192 
        1.77505         148.296         15.6797 
        1.79081         146.986         15.3494 
         1.8065         144.932         15.0301 
        1.82218         142.475         14.7201 
        1.83797         141.493         14.4168 
        1.85367         139.381         14.1237 
        1.86928         136.937         13.8405 
        1.88497         135.161         13.5636 
        1.90073         133.931         13.2933 
        1.91647         132.197         13.0305 
        1.93218         130.594         12.7754 
        1.94787         128.664         12.5276 
        1.96363          126.74         12.2853 
        1.97935         125.322           12.05 
        1.99499          123.32         11.8222 
        2.01064         122.156         11.5999 
         2.0264         120.392          11.382 
        2.04216          118.96         11.1697 
        2.05781         117.915         10.9643 
        2.07353         116.758         10.7632 
        2.08928         114.241         10.5668 
        2.10499         113.054         10.3758 
        2.12065         111.399         10.1901 
        2.13633         110.815         10.0089 
        2.15211         108.466          9.8308 
        2.16785          106.92         9.65759 
        2.18349         106.168         9.48964 
        2.19916         104.979         9.32533 
        2.21489         103.584         9.16438 
        2.23063         101.933         9.00711 
         2.2463         100.824         8.85425 
        2.26194         99.5993         8.70532 
        2.27765         98.5637         8.55906 
        2.29341          97.574         8.41578 
        2.30914         96.3059         8.27608 
        2.32486         95.3304         8.13963 
        2.34061         94.0488         8.00603 
        2.35635         92.6878         7.87556 
        2.37203         91.4826         7.74844 
        2.38768         90.5909         7.62439 
        2.40339         89.6509         7.50262 
        2.41914         88.4258         7.38322 
        2.43483         87.4989         7.26685 
         2.4505         86.3433         7.15318 
        2.46622          85.151         7.04155 
        2.48195         84.1483          6.9323 
        2.49759         83.0384         6.82595 
        2.51328         82.6832         6.72155 
        2.52906         81.1123         6.61869 
        2.54479         80.3066         6.51835 
        2.56049         79.4796          6.4203 
        2.57618         78.6329         6.32434 
        2.59189         77.6518         6.23021 
        2.60758         77.0061         6.13814 
        2.62325          75.867         6.04804 
        2.63898         74.8177         5.95944 
        2.65468         74.1137          5.8728 
        2.67044          73.268         5.78751 
        2.68618         72.5097         5.70412 
        2.70184         72.0456          5.6227 
        2.71755         71.0323         5.54267 
        2.73329         70.2693         5.46407 
        2.74897         69.3854         5.38725 
        2.76462         68.5804         5.31208 
        2.78034         67.9804         5.23804 
        2.79607         66.8411         5.16533 
        2.81179         66.2929         5.09408 
        2.82749         65.4628         5.02426 
        2.84321          65.003         4.95567 
        2.85893         64.2309         4.88838 
        2.87462         63.3211         4.82246 
        2.89033         62.7035         4.75769 
        2.90605         61.9893         4.69405 
        2.92176         61.4378         4.63161 
        2.93747         61.0228         4.57034 
        2.95318         60.1666         4.51017 
        2.96891         59.6949         4.45105 
        2.98456         59.0142         4.39325 
        3.00023         58.1525         4.33639 
        3.01596         57.6923         4.28037 
        3.03164         56.9118         4.22549 
        3.04738         56.4689         4.17142 
         3.0631         55.8153         4.11831 
        3.07883         55.2357         4.06612 
        3.09456         54.6464         4.01485 
        3.11026         53.9493         3.96453 
        3.12596         53.4315         3.91509 
        3.14163          52.906          3.8666 
        3.15734         52.5124         3.81882 
        3.17308         51.7431         3.77174 
        3.18879         51.4788         3.72557 
        3.20447         50.5649         3.68025 
         3.2202         50.3335         3.63554 
         3.2359         49.7441         3.59165 
        3.25157         49.1822         3.54859 
        3.26729         48.7889         3.50611 
        3.28304         48.2723         3.46424 
        3.29877         47.8301         3.42311 
        3.31446         47.1323         3.38273 
        3.33014         46.8358         3.34304 
        3.34585         46.5942         3.30393 
        3.36158         46.0282         3.26538 
        3.37727         45.5773         3.22757 
        3.39294         45.0992          3.1904 
        3.40867         44.6267         3.15367 
        3.42439         44.0162         3.11755 
        3.44008         43.7345         3.08205 
        3.45578         43.2439         3.04709 
        3.47153         42.8167         3.01259 
        3.48724         42.4593         2.97869 
        3.50292         42.1106         2.94538 
        3.51859         41.6227          2.9126 
        3.53431          41.228         2.88022 
        3.55007         40.7005         2.84825 
        3.56577         40.4407         2.81689 
        3.58146          39.999         2.78602 
        3.59719         39.6572         2.75554 
        3.61292         39.1662         2.72553 
        3.62859          38.921         2.69607 
        3.64429          38.627         2.66699 
        3.66003         38.1861         2.63826 
        3.67578         37.6886         2.60996 
        3.69146         37.4236         2.58218 
        3.70712          37.097         2.55485 
        3.72284         36.6502         2.52782 
        3.73853         36.3574         2.50122 
        3.75422         35.9538           2.475 
        3.76993         35.7957         2.44913 
        3.78564         35.4494         2.42365 
        3.80137          35.067         2.39848 
        3.81707         34.7058         2.37372 
        3.83279         34.5543         2.34929 
        3.84853         34.1363         2.32517 
        3.86424         33.7011         2.30143 
        3.87992         33.5589         2.27806 
        3.89561         33.2059         2.25501 
        3.91134         32.7506         2.23224 
        3.92704         32.6311          2.2098 
        3.94273         32.2187          2.1877 
        3.95845          32.037         2.16585 
        3.97418         31.7055          2.1443 
        3.98988         31.4292         2.12308 
        4.00554         31.0866         2.10219 
        4.02125         30.7954         2.08153 
        4.03698         30.5849         2.06112 
        4.05268         30.3302         2.04102 
        4.06839         30.0153         2.02118 
         4.0841         29.8257          2.0016 
        4.09983         29.4833         1.98226 
        4.11555         29.2269         1.96318 
        4.13124         29.0173         1.94441 
        4.14693         28.6877         1.92586 
        4.16266         28.4428         1.90752 
        4.17839         28.1885         1.88942 
        4.19408         27.9326          1.8716 
        4.20977         27.7086           1.854 
        4.22551         27.4677         1.83659 
        4.24123         27.2956         1.81941 
        4.25691         26.9943         1.80251 
        4.27259         26.8176         1.78581 
        4.28831         26.5049         1.76929 
        4.30404         26.3454         1.75296 
        4.31974         26.0525         1.73688 
        4.33543         25.8317           1.721 
        4.35116         25.7472         1.70529 
        4.36688         25.4438         1.68978 
        4.38255         25.1613         1.67451 
        4.39825         24.9859         1.65941 
        4.41398         24.7312         1.64446 
         4.4297         24.5655         1.62971 
        4.44541         24.3253         1.61514 
        4.46111         24.1751         1.60076 
        4.47683         23.9728         1.58655 
        4.49251         23.7384         1.57254 
        4.50819         23.5338          1.5587 
         4.5239         23.3633         1.54501 
        4.53962         23.1744         1.53146 
        4.55535         22.9793         1.51807 
        4.57106         22.7989         1.50486 
        4.58678         22.6141         1.49181 
         4.6025         22.4555         1.47891 
        4.61821         22.2908         1.46616 
        4.63391         22.0441         1.45357 
         4.6496          21.869         1.44114 
        4.66532         21.7131         1.42884 
        4.68103         21.5028         1.41669 
        4.69673         21.3378         1.40468 
        4.71241         21.2097         1.39283 
        4.72811         20.9993          1.3811 
        4.74384         20.8649         1.36949 
        4.75955         20.6955         1.35802 
        4.77525         20.4967          1.3467 
        4.79096         20.3826         1.33549 
        4.80669         20.1843          1.3244 
         4.8224         20.0174         1.31345 
        4.83809         19.8723         1.30264 
        4.85379          19.625         1.29194 
         4.8695         19.5758         1.28135 
        4.88521         19.4014         1.27089 
        4.90093         19.2186         1.26054 
        4.91663         19.0426         1.25031 
        4.93234          18.956         1.24019 
        4.94807         18.7626         1.23017 
        4.96377         18.6649         1.22028 
        4.97943         18.5263         1.21053 
        4.99514          18.357         1.20085 
        5.01086         18.2205         1.19127 
        5.02654         18.0544         1.18182 
        5.04227         17.9434         1.17245 
          5.058         17.7733         1.16317 
        5.07371         17.6575         1.15401 
        5.08942         17.5352         1.14495 
        5.10513         17.3875         1.13598 
        5.12084         17.2539         1.12711 
        5.13656         17.0788         1.11833 
        5.15225          17.001         1.10966 
        5.16796         16.8923         1.10107 
        5.18369         16.7233         1.09256 
         5.1994         16.6391         1.08416 
        5.21509         16.4782         1.07585 
        5.23079         16.3587         1.06762 
        5.24649         16.2475         1.05948 
        5.26217         16.0928         1.05143 
        5.27788         15.9799         1.04346 
        5.29359         15.8949         1.03557 
        5.30933         15.7308         1.02774 
        5.32504         15.6287         1.02001 
        5.34073         15.5233         1.01237 
        5.35646         15.4205         1.00479 
        5.37218         15.2845        0.997289 
        5.38789         15.1761        0.989875 
        5.40357         15.0783        0.982545 
        5.41929         14.9871        0.975273 
        5.43502         14.8425        0.968073 
         5.4507         14.7552        0.960963 
        5.46639         14.6238        0.953924 
        5.48212         14.5045        0.946938 
        5.49786         14.4072        0.940014 
        5.51353         14.3084        0.933194 
        5.52921         14.2398        0.926434 
        5.54495         14.1335        0.919722 
        5.56066         14.0371        0.913083 
        5.57637         13.9053        0.906511 
        5.59207          13.791        0.900009 
        5.60778         13.7364        0.893568 
        5.62346         13.6332        0.887199 
        5.63916         13.4961        0.880886 
        5.65487         13.4256        0.874632 
         5.6706         13.3063        0.868431 
        5.68633         13.2251        0.862287 
        5.70203         13.1492        0.856216 
        5.71773         13.0437        0.850204 
        5.73344          12.959        0.844246 
        5.74916         12.8705         0.83834 
        5.76486         12.7575        0.832499 
        5.78054         12.6847        0.826722 
        5.79626         12.5874        0.820984 
          5.812          12.502        0.815294 
         5.8277         12.4033        0.809675 
        5.84339          12.335        0.804109 
        5.85911         12.2348        0.798585 
        5.87484         12.1556        0.793113 
        5.89053         12.0596        0.787703 
        5.90623         11.9769        0.782342 
        5.92195         11.8913        0.777021 
        5.93767         11.8132        0.771752 
        5.95336         11.7349        0.766541 
        5.96905         11.6536         0.76138 
        5.98476         11.5858        0.756259 
        6.00048         11.4677        0.751183 
        6.01617         11.4222        0.746161 
        6.03185          11.344        0.741191 
        6.04756         11.2745        0.736254 
        6.06331         11.1814        0.731351 
        6.07903         11.1002        0.726504 
        6.09473         11.0363        0.721704 
        6.11044         10.9599        0.716944 
        6.12616         10.9014        0.712228 
        6.14186         10.8197        0.707558 
        6.15755         10.7443        0.702931 
        6.17326         10.6419        0.698341 
        6.18898         10.6113        0.693791 
        6.20467         10.5247        0.689289 
        6.22036         10.4442        0.684827 
         6.2361         10.3848        0.680392 
         6.2518          10.327        0.676004 
        6.26748         10.2505        0.671665 
        6.28319         10.1847        0.667351 
        6.29893         10.1114        0.663072 
        6.31463         10.0445        0.658837 
        6.33033         9.96618        0.654641 
        6.34604         9.92218        0.650478 
        6.36177         9.84516        0.646347 
        6.37747         9.79764         0.64226 
