# k  (h/Mpc)    Pcb(k)  (Mpc/h)^3    Pcb_linear(k) (Mpc/h)^3   ShotnoiseSubtracted = true
      0.0200456         23877.5         24466.6 
      0.0350414         16916.1         17786.4 
      0.0492313         12616.1         12923.3 
      0.0637834         10948.4           10743 
      0.0800726         8633.24         8526.45 
       0.096163         5978.63         6186.68 
       0.111083         4820.56         4934.66 
       0.126058         4433.66         4373.11 
       0.142273         3841.13         3704.99 
       0.158546         3390.43         2926.16 
        0.17375         2716.88         2465.29 
       0.188953         2660.51         2232.26 
       0.204907         2499.07          1975.1 
       0.220756         2172.13         1671.05 
        0.23588         1948.75         1453.67 
         0.2514         1699.84         1320.65 
       0.267535         1703.52         1194.96 
       0.283568         1545.03         1053.79 
       0.299022          1465.2         938.874 
       0.314451         1396.23         858.067 
       0.330372         1278.91          787.18 
       0.346141         1237.65         714.486 
       0.361624          1189.4          649.37 
       0.377134         1109.85         597.523 
       0.392932         1062.79         552.876 
       0.408854         1046.87         509.645 
       0.424564         965.229         469.747 
       0.440253         947.226          435.51 
       0.455999         921.115          405.74 
       0.471626         888.127         378.381 
        0.48727         851.767         352.788 
       0.502856         825.779         329.797 
       0.518488         820.223         309.283 
       0.534347         769.911         290.212 
       0.550082          754.15         272.628 
       0.565732         747.618         256.541 
       0.581496         708.874         241.807 
       0.597222           693.4         228.294 
       0.612804         683.001         215.869 
       0.628434          664.33         204.288 
       0.644267          647.17          193.46 
       0.660051         630.446         183.481 
       0.675724         622.975         174.266 
       0.691403         603.209         165.677 
       0.707174          583.65         157.618 
       0.722871         575.299         150.127 
        0.73838         564.434         143.203 
       0.754018         553.941         136.663 
       0.769845         544.549         130.461 
        0.78569         534.243         124.639 
       0.801365          520.52         119.229 
       0.817031          508.44         114.146 
       0.832809         503.186         109.328 
       0.848511         492.357         104.812 
       0.864097         476.848         100.582 
       0.879701         470.455         96.5837 
       0.895507          468.73         92.7561 
       0.911279         456.364         89.1449 
        0.92691         449.812         85.7567 
       0.942635         437.898         82.5267 
       0.958396         427.174          79.457 
       0.974128         421.811         76.5497 
       0.989692         419.457         73.8172 
        1.00528         406.437         71.2146 
        1.02113         404.427         68.6972 
        1.03692         393.621         66.3113 
        1.05264         390.024         64.0501 
        1.06832         379.536         61.8984 
        1.08405          374.99         59.8401 
        1.09979         369.266         57.8747 
        1.11537          362.29         56.0173 
        1.13105         356.794         54.2306 
        1.14679          346.87         52.5153 
        1.16256         340.138         50.8712 
        1.17828         339.892         49.3031 
        1.19395         331.851         47.8066 
         1.2097         324.956         46.3648 
        1.22537         319.055         44.9897 
          1.241          314.96         43.6747 
        1.25666         310.898         42.4092 
        1.27241         305.717          41.188 
        1.28819         300.314          40.013 
        1.30392         294.291         38.8875 
        1.31957         292.174         37.8104 
        1.33529         287.815         36.7702 
        1.35108         281.523         35.7652 
        1.36674         276.565         34.8051 
         1.3824         274.501         33.8812 
        1.39811         269.598         32.9878 
        1.41389         266.638         32.1234 
        1.42964         263.202         31.2914 
        1.44531         259.486         30.4931 
        1.46101         254.087          29.721 
        1.47667         251.184          28.978 
        1.49229         248.286         28.2625 
        1.50793         242.011         27.5704 
        1.52367         240.859         26.8971 
        1.53953         236.583         26.2417 
        1.55526         232.821         25.6136 
        1.57092         230.505         25.0086 
        1.58662         227.889         24.4217 
        1.60235         223.768         23.8527 
        1.61809         220.954         23.3015 
        1.63369         218.438         22.7726 
        1.64941         214.133         22.2564 
        1.66519         212.247         21.7544 
        1.68085         209.396         21.2715 
        1.69652         206.271         20.8031 
        1.71228         201.155         20.3462 
        1.72806         199.153         19.9027 
        1.74368         196.226         19.4769 
        1.75933         193.478         19.0627 
        1.77505         191.896         18.6587 
        1.79081         189.522         18.2656 
         1.8065          185.59         17.8856 
        1.82218         183.773         17.5168 
        1.83797         182.514         17.1558 
        1.85367         179.326         16.8071 
        1.86928           176.2         16.4701 
        1.88497         174.173         16.1406 
        1.90073         171.894         15.8188 
        1.91647         170.757         15.5062 
        1.93218         167.926         15.2026 
        1.94787         164.135         14.9077 
        1.96363         162.264         14.6194 
        1.97935         160.961         14.3394 
        1.99499         158.825         14.0682 
        2.01064         156.659         13.8038 
         2.0264         155.347         13.5444 
        2.04216         153.046         13.2919 
        2.05781         150.859         13.0474 
        2.07353         149.409         12.8081 
        2.08928         146.736         12.5744 
        2.10499         145.516         12.3471 
        2.12065         143.149         12.1262 
        2.13633         141.149         11.9104 
        2.15211         139.206         11.6986 
        2.16785         137.981         11.4924 
        2.18349          136.51         11.2926 
        2.19916         134.503          11.097 
        2.21489         133.295         10.9055 
        2.23063         131.043         10.7184 
         2.2463         129.415         10.5365 
        2.26194         127.421         10.3592 
        2.27765          126.29         10.1852 
        2.29341         124.888         10.0147 
        2.30914         123.515         9.84845 
        2.32486         121.603         9.68608 
        2.34061         120.221          9.5271 
        2.35635         118.675         9.37183 
        2.37203         117.569         9.22057 
        2.38768         115.672         9.07295 
        2.40339         114.541         8.92804 
        2.41914         113.056         8.78596 
        2.43483         111.732         8.64747 
         2.4505         110.557         8.51221 
        2.46622         109.232         8.37937 
        2.48195         107.504         8.24936 
        2.49759         106.407         8.12281 
        2.51328         105.573         7.99858 
        2.52906         104.089         7.87617 
        2.54479         103.017         7.75678 
        2.56049         101.451         7.64009 
        2.57618         100.686         7.52591 
        2.59189         99.7322         7.41389 
        2.60758         98.4506         7.30432 
        2.62325          96.887         7.19711 
        2.63898         95.7776         7.09167 
        2.65468         94.7163         6.98857 
        2.67044         93.9964         6.88708 
        2.68618         92.9805         6.78784 
        2.70184         92.1053         6.69095 
        2.71755         90.5546         6.59572 
        2.73329         89.8309         6.50219 
        2.74897         88.8759         6.41078 
        2.76462         87.8086         6.32133 
        2.78034         86.8154         6.23322 
        2.79607         85.5578         6.14669 
        2.81179         84.8423         6.06191 
        2.82749         83.9659         5.97882 
        2.84321         82.8946          5.8972 
        2.85893         82.1085         5.81712 
        2.87462         81.2203         5.73867 
        2.89033         80.1811          5.6616 
        2.90605         79.3259         5.58587 
        2.92176         78.3162         5.51157 
        2.93747         77.6806         5.43866 
        2.95318         76.7152         5.36705 
        2.96891          76.126          5.2967 
        2.98456         75.2141         5.22792 
        3.00023         74.3868         5.16026 
        3.01596         73.3429         5.09359 
        3.03164         72.7938         5.02829 
        3.04738         71.7471         4.96394 
         3.0631         71.0355         4.90074 
        3.07883         70.4954         4.83864 
        3.09456         70.0126         4.77763 
        3.11026         69.0228         4.71775 
        3.12596         68.1591         4.65892 
        3.14163          67.791         4.60122 
        3.15734         66.7212         4.54436 
        3.17308         66.0658         4.48833 
        3.18879         65.5391          4.4334 
        3.20447         64.7247         4.37946 
         3.2202         64.2022         4.32626 
         3.2359         63.3756         4.27403 
        3.25157         62.8834         4.22279 
        3.26729         62.2408         4.17224 
        3.28304         61.7303         4.12241 
        3.29877         60.9976         4.07346 
        3.31446         60.1159         4.02542 
        3.33014          59.708         3.97819 
        3.34585         58.9703         3.93164 
        3.36158         58.5381         3.88577 
        3.37727         58.0722         3.84078 
        3.39294         57.1518         3.79654 
        3.40867         56.7733         3.75284 
        3.42439         56.2804         3.70985 
        3.44008         55.6025         3.66761 
        3.45578         55.0332         3.62601 
        3.47153          54.496         3.58495 
        3.48724         54.1144         3.54461 
        3.50292         53.6608         3.50497 
        3.51859         52.9798         3.46597 
        3.53431         52.6454         3.42743 
        3.55007         52.1031         3.38939 
        3.56577         51.7132         3.35208 
        3.58146         51.1256         3.31534 
        3.59719         50.4939         3.27906 
        3.61292          50.051         3.24335 
        3.62859         49.4904          3.2083 
        3.64429         49.0897          3.1737 
        3.66003         48.7339          3.1395 
        3.67578         48.2173         3.10582 
        3.69146         47.6746         3.07276 
        3.70712         47.2036         3.04025 
        3.72284         46.8565         3.00808 
        3.73853         46.3562         2.97643 
        3.75422          45.872         2.94523 
        3.76993         45.3598         2.91444 
        3.78564         45.0624         2.88411 
        3.80137         44.6355         2.85417 
        3.81707          44.123         2.82471 
        3.83279         43.7838         2.79564 
        3.84853         43.5063         2.76693 
        3.86424         43.0251         2.73868 
        3.87992         42.5251         2.71087 
        3.89561         42.2601         2.68344 
        3.91134         41.8418         2.65634 
        3.92704         41.3501         2.62964 
        3.94273         40.9741         2.60334 
        3.95845         40.7162         2.57734 
        3.97418         40.3499          2.5517 
        3.98988         39.9781         2.52644 
        4.00554         39.6522         2.50159 
        4.02125         39.2412           2.477 
        4.03698         38.8382         2.45271 
        4.05268         38.5361         2.42879 
        4.06839         38.1368         2.40518 
         4.0841         37.8405         2.38189 
        4.09983         37.5765         2.35887 
        4.11555          37.185         2.33617 
        4.13124         36.8896         2.31383 
        4.14693         36.6173         2.29176 
        4.16266         36.2819         2.26993 
        4.17839         35.8928         2.24839 
        4.19408         35.5249         2.22718 
        4.20977          35.305         2.20624 
        4.22551         34.9937         2.18552 
        4.24123         34.7064         2.16508 
        4.25691         34.3851         2.14496 
        4.27259         34.0635         2.12509 
        4.28831         33.8082         2.10543 
        4.30404          33.521         2.08601 
        4.31974         33.2447         2.06687 
        4.33543         32.8738         2.04797 
        4.35116         32.7092         2.02927 
        4.36688         32.3448         2.01082 
        4.38255         32.0592         1.99265 
        4.39825         31.8544         1.97468 
        4.41398         31.5965         1.95689 
         4.4297         31.2821         1.93934 
        4.44541         31.0681           1.922 
        4.46111         30.7518         1.90489 
        4.47683         30.4878         1.88798 
        4.49251         30.2596         1.87131 
        4.50819         30.0354         1.85484 
         4.5239         29.8225         1.83854 
        4.53962         29.5297         1.82243 
        4.55535          29.277         1.80649 
        4.57106         29.0287         1.79077 
        4.58678         28.8395         1.77524 
         4.6025         28.5269         1.75988 
        4.61821         28.3779         1.74471 
        4.63391            28.1         1.72974 
         4.6496         27.8914         1.71495 
        4.66532         27.6623         1.70031 
        4.68103          27.451         1.68584 
        4.69673          27.209         1.67156 
        4.71241         27.0408         1.65746 
        4.72811         26.8085         1.64349 
        4.74384         26.6385         1.62967 
        4.75955         26.3189         1.61603 
        4.77525         26.1952         1.60256 
        4.79096         25.9602         1.58922 
        4.80669         25.7312         1.57602 
         4.8224          25.516         1.56299 
        4.83809         25.3758         1.55012 
        4.85379         25.1928         1.53739 
         4.8695          24.925         1.52479 
        4.88521         24.7388         1.51234 
        4.90093         24.5227         1.50003 
        4.91663         24.3167         1.48786 
        4.93234         24.0857         1.47581 
        4.94807         24.0172         1.46389 
        4.96377         23.8191         1.45213 
        4.97943         23.5701         1.44051 
        4.99514         23.4067           1.429 
        5.01086         23.2535          1.4176 
        5.02654         23.0366         1.40635 
        5.04227         22.8715          1.3952 
          5.058          22.733         1.38416 
        5.07371         22.5204         1.37326 
        5.08942         22.3028         1.36248 
        5.10513         22.1822         1.35181 
        5.12084         22.0609         1.34125 
        5.13656         21.8969          1.3308 
        5.15225         21.6814         1.32048 
        5.16796            21.5         1.31026 
        5.18369         21.3355         1.30014 
         5.1994         21.1637         1.29014 
        5.21509          21.043         1.28025 
        5.23079         20.8578         1.27046 
        5.24649          20.768         1.26077 
        5.26217         20.5697          1.2512 
        5.27788         20.4393         1.24171 
        5.29359         20.2791         1.23231 
        5.30933         20.0615           1.223 
        5.32504         19.9412          1.2138 
        5.34073         19.8529         1.20471 
        5.35646         19.6853         1.19569 
        5.37218         19.5207         1.18676 
        5.38789         19.3878         1.17794 
        5.40357          19.274         1.16922 
        5.41929         19.0447         1.16056 
        5.43502         19.0118           1.152 
         5.4507         18.8017         1.14354 
        5.46639         18.6874         1.13516 
        5.48212         18.5635         1.12685 
        5.49786         18.4064         1.11861 
        5.51353         18.2577         1.11049 
        5.52921         18.1215         1.10245 
        5.54495         18.0122         1.09446 
        5.56066         17.8848         1.08656 
        5.57637         17.7393         1.07874 
        5.59207         17.6083           1.071 
        5.60778          17.447         1.06334 
        5.62346         17.3573         1.05576 
        5.63916         17.2417         1.04825 
        5.65487         17.1495          1.0408 
         5.6706         17.0034         1.03342 
        5.68633         16.8728         1.02611 
        5.70203         16.7218         1.01889 
        5.71773         16.6692         1.01173 
        5.73344         16.5425         1.00464 
        5.74916         16.3881        0.997617 
        5.76486         16.3032        0.990665 
        5.78054         16.1891        0.983791 
        5.79626         16.0469        0.976963 
          5.812         15.9769        0.970192 
         5.8277         15.8082        0.963506 
        5.84339         15.7323        0.956882 
        5.85911         15.6406        0.950308 
        5.87484         15.4975        0.943797 
        5.89053         15.3714        0.937359 
        5.90623         15.2777        0.930979 
        5.92195         15.1855        0.924647 
        5.93767         15.0713        0.918377 
        5.95336         14.9868        0.912176 
        5.96905         14.8573        0.906034 
        5.98476          14.763         0.89994 
        6.00048         14.6632          0.8939 
        6.01617         14.5704        0.887924 
        6.03185         14.4613        0.882009 
        6.04756         14.3454        0.876135 
        6.06331         14.2606        0.870301 
        6.07903         14.1757        0.864532 
        6.09473         14.0842        0.858821 
        6.11044          13.948        0.853157 
        6.12616         13.8603        0.847544 
        6.14186         13.7601        0.841987 
        6.15755         13.6797        0.836481 
        6.17326         13.5913        0.831019 
        6.18898         13.5132        0.825604 
        6.20467         13.4187        0.820246 
        6.22036         13.3158        0.814937 
         6.2361         13.2141         0.80966 
         6.2518         13.1395        0.804438 
        6.26748         13.0468        0.799274 
        6.28319         12.9541        0.794141 
        6.29893         12.8762        0.789049 
        6.31463         12.7671        0.784009 
        6.33033         12.7388        0.779016 
        6.34604         12.6276        0.774062 
        6.36177         12.5422        0.769147 
        6.37747         12.4621        0.764283 
