# k  (h/Mpc)    Pcb(k)  (Mpc/h)^3    Pcb_linear(k) (Mpc/h)^3   ShotnoiseSubtracted = true
      0.0200456         24764.8         25384.9 
      0.0350414         17530.1           18454 
      0.0492313         13076.7         13408.3 
      0.0637834           11358         11146.2 
      0.0800726         8954.35         8846.46 
       0.096163         6199.21         6418.88 
       0.111083         5004.21         5119.86 
       0.126058          4600.3         4537.24 
       0.142273         3986.18         3844.04 
       0.158546         3529.15         3035.99 
        0.17375         2830.29         2557.82 
       0.188953         2772.75         2316.04 
       0.204907         2604.23         2049.23 
       0.220756         2265.64         1733.77 
        0.23588         2035.62         1508.23 
         0.2514         1777.34         1370.21 
       0.267535         1782.12         1239.81 
       0.283568         1616.53         1093.34 
       0.299022         1534.55         974.111 
       0.314451         1461.99         890.272 
       0.330372         1338.25         816.724 
       0.346141          1300.5         741.302 
       0.361624         1249.86         673.742 
       0.377134         1167.36         619.949 
       0.392932         1116.89         573.627 
       0.408854         1101.44         528.773 
       0.424564          1014.6         487.378 
       0.440253         995.292         451.855 
       0.455999         971.034         420.968 
       0.471626         936.272         392.582 
        0.48727         898.381         366.029 
       0.502856         869.769         342.175 
       0.518488         865.611         320.891 
       0.534347         812.697         301.104 
       0.550082         797.651          282.86 
       0.565732          789.36         266.169 
       0.581496         749.812         250.882 
       0.597222         732.645         236.862 
       0.612804         722.622         223.971 
       0.628434         703.149         211.955 
       0.644267         685.164         200.721 
       0.660051         668.792         190.367 
       0.675724          660.34         180.807 
       0.691403          640.14         171.895 
       0.707174         619.278         163.533 
       0.722871         609.545         155.761 
        0.73838         598.359         148.577 
       0.754018         587.867         141.792 
       0.769845         578.151         135.357 
        0.78569         567.684         129.316 
       0.801365         552.695         123.704 
       0.817031         541.108          118.43 
       0.832809         534.902         113.432 
       0.848511         523.535         108.745 
       0.864097         506.812         104.357 
       0.879701         499.939         100.209 
       0.895507         498.537         96.2374 
       0.911279         486.158         92.4906 
        0.92691         479.113         88.9753 
       0.942635         466.096         85.6241 
       0.958396         455.201         82.4391 
       0.974128         449.943         79.4227 
       0.989692         447.389         76.5876 
        1.00528         433.057         73.8874 
        1.02113         430.782         71.2755 
        1.03692         420.319            68.8 
        1.05264         415.545          66.454 
        1.06832         404.918         64.2215 
        1.08405         399.989          62.086 
        1.09979         394.085         60.0468 
        1.11537         387.117         58.1197 
        1.13105         381.244          56.266 
        1.14679         370.513         54.4863 
        1.16256         363.331         52.7804 
        1.17828         362.935         51.1535 
        1.19395         354.877         49.6008 
         1.2097         346.428          48.105 
        1.22537         340.767         46.6782 
          1.241         335.717         45.3139 
        1.25666         332.177         44.0008 
        1.27241         326.269         42.7339 
        1.28819         320.137         41.5148 
        1.30392         314.296          40.347 
        1.31957         311.059         39.2294 
        1.33529         307.479         38.1503 
        1.35108         300.558         37.1075 
        1.36674         295.282         36.1114 
         1.3824         292.566         35.1528 
        1.39811         287.398         34.2259 
        1.41389         284.196          33.329 
        1.42964         280.233         32.4659 
        1.44531         276.872         31.6376 
        1.46101         270.448         30.8365 
        1.47667         267.195         30.0656 
        1.49229         264.151         29.3232 
        1.50793         257.583         28.6051 
        1.52367         256.343         27.9065 
        1.53953         251.407         27.2266 
        1.55526         248.112         26.5749 
        1.57092         245.338         25.9472 
        1.58662         242.482         25.3383 
        1.60235         238.208         24.7479 
        1.61809         234.849          24.176 
        1.63369         232.466         23.6273 
        1.64941         227.931         23.0917 
        1.66519          225.92         22.5709 
        1.68085         223.088         22.0698 
        1.69652         219.736         21.5839 
        1.71228         214.086         21.1098 
        1.72806         211.732         20.6497 
        1.74368         208.705         20.2079 
        1.75933          206.23         19.7782 
        1.77505         204.152          19.359 
        1.79081         201.486         18.9512 
         1.8065         197.064         18.5569 
        1.82218         194.951         18.1742 
        1.83797         194.065         17.7997 
        1.85367          190.61         17.4379 
        1.86928         187.127         17.0883 
        1.88497         185.167         16.7463 
        1.90073         182.512         16.4125 
        1.91647         181.396         16.0881 
        1.93218         178.104         15.7732 
        1.94787         174.442         15.4672 
        1.96363         172.514         15.1681 
        1.97935         170.509         14.8775 
        1.99499         168.688         14.5963 
        2.01064         166.258         14.3218 
         2.0264         165.002         14.0527 
        2.04216         162.572         13.7907 
        2.05781         160.152          13.537 
        2.07353         158.583         13.2888 
        2.08928         155.485         13.0463 
        2.10499         154.451         12.8105 
        2.12065         152.157         12.5813 
        2.13633         149.676         12.3575 
        2.15211         147.839         12.1376 
        2.16785         146.592         11.9238 
        2.18349         144.864         11.7164 
        2.19916         142.805         11.5135 
        2.21489         141.411         11.3148 
        2.23063          139.25         11.1207 
         2.2463         137.324         10.9319 
        2.26194         135.197          10.748 
        2.27765         134.046         10.5675 
        2.29341         132.476         10.3906 
        2.30914         131.098         10.2181 
        2.32486         129.152         10.0496 
        2.34061         127.622         9.88466 
        2.35635         125.966         9.72357 
        2.37203         124.742         9.56663 
        2.38768         122.776         9.41348 
        2.40339         121.547         9.26312 
        2.41914         120.076         9.11571 
        2.43483         118.579         8.97203 
         2.4505          117.38         8.83168 
        2.46622         115.865         8.69386 
        2.48195         113.988         8.55897 
        2.49759         112.941         8.42767 
        2.51328         111.995         8.29878 
        2.52906         110.398         8.17177 
        2.54479         109.079          8.0479 
        2.56049         107.324         7.92683 
        2.57618         106.653         7.80837 
        2.59189         105.719         7.69214 
        2.60758         104.392         7.57847 
        2.62325         102.783         7.46723 
        2.63898         101.595         7.35784 
        2.65468         100.393         7.25087 
        2.67044         99.4712         7.14557 
        2.68618         98.6009          7.0426 
        2.70184         97.6086         6.94208 
        2.71755         96.0403         6.84326 
        2.73329         95.1955         6.74622 
        2.74897         94.1617         6.65138 
        2.76462         93.1707         6.55858 
        2.78034         91.9114         6.46716 
        2.79607         90.7523         6.37739 
        2.81179         90.1352         6.28942 
        2.82749         89.0952         6.20322 
        2.84321         87.8797         6.11853 
        2.85893         87.0159         6.03545 
        2.87462         86.1194         5.95405 
        2.89033         85.0707         5.87409 
        2.90605         84.2009         5.79552 
        2.92176         83.1714         5.71843 
        2.93747         82.3733         5.64278 
        2.95318         81.5897         5.56849 
        2.96891         80.8588         5.49549 
        2.98456         79.7885         5.42413 
        3.00023         78.9627         5.35394 
        3.01596         77.8603         5.28476 
        3.03164          77.218         5.21701 
        3.04738         76.1778         5.15025 
         3.0631         75.4524         5.08468 
        3.07883         74.7029         5.02024 
        3.09456         74.1807         4.95694 
        3.11026         73.2528         4.89482 
        3.12596          72.364         4.83377 
        3.14163         71.8689         4.77391 
        3.15734          70.942         4.71492 
        3.17308         70.1614         4.65678 
        3.18879         69.5855         4.59979 
        3.20447         68.6576         4.54383 
         3.2202         68.1404         4.48863 
         3.2359         67.2496         4.43444 
        3.25157         66.8596         4.38128 
        3.26729         66.0541         4.32883 
        3.28304         65.5558         4.27713 
        3.29877         64.7107         4.22634 
        3.31446         63.9039         4.17649 
        3.33014         63.2544         4.12749 
        3.34585         62.5515          4.0792 
        3.36158         62.1244         4.03161 
        3.37727         61.5844         3.98493 
        3.39294         60.6533         3.93903 
        3.40867         60.2722         3.89369 
        3.42439         59.7425         3.84908 
        3.44008         58.9782         3.80526 
        3.45578         58.4302          3.7621 
        3.47153         57.8181          3.7195 
        3.48724         57.4478         3.67764 
        3.50292         56.9377         3.63652 
        3.51859         56.2044         3.59605 
        3.53431         55.7895         3.55607 
        3.55007         55.3181          3.5166 
        3.56577         54.8633         3.47788 
        3.58146         54.2692         3.43977 
        3.59719         53.6807         3.40213 
        3.61292         53.1701         3.36508 
        3.62859         52.5677         3.32871 
        3.64429         52.2078         3.29281 
        3.66003          51.768         3.25733 
        3.67578         51.1452         3.22239 
        3.69146         50.6878         3.18809 
        3.70712         50.2091         3.15435 
        3.72284         49.7982         3.12097 
        3.73853         49.2669         3.08814 
        3.75422         48.6914         3.05577 
        3.76993         48.2689         3.02383 
        3.78564         47.8801         2.99236 
        3.80137         47.4471         2.96129 
        3.81707         46.9001         2.93072 
        3.83279         46.5384         2.90056 
        3.84853         46.1865         2.87078 
        3.86424         45.7857         2.84147 
        3.87992         45.2801         2.81261 
        3.89561         44.9704         2.78416 
        3.91134         44.5652         2.75604 
        3.92704         44.0102         2.72834 
        3.94273         43.6434         2.70104 
        3.95845         43.3053         2.67407 
        3.97418          42.937         2.64747 
        3.98988         42.4308         2.62126 
        4.00554         42.1847         2.59548 
        4.02125         41.6938         2.56997 
        4.03698         41.3278         2.54476 
        4.05268         40.9563         2.51995 
        4.06839         40.5235         2.49545 
         4.0841         40.2671         2.47128 
        4.09983         40.0325          2.4474 
        4.11555          39.497         2.42385 
        4.13124         39.1637         2.40067 
        4.14693          38.937         2.37777 
        4.16266         38.5732         2.35512 
        4.17839         38.2555         2.33278 
        4.19408         37.7395         2.31077 
        4.20977         37.5324         2.28905 
        4.22551          37.227         2.26754 
        4.24123         36.9115         2.24634 
        4.25691         36.5472         2.22547 
        4.27259         36.1678         2.20485 
        4.28831         36.0038         2.18446 
        4.30404         35.6623          2.1643 
        4.31974         35.3275         2.14444 
        4.33543         34.9907         2.12484 
        4.35116         34.8279         2.10544 
        4.36688         34.4399         2.08628 
        4.38255         34.0921         2.06744 
        4.39825         33.8139         2.04879 
        4.41398         33.5547         2.03033 
         4.4297          33.268         2.01212 
        4.44541         33.0247         1.99414 
        4.46111         32.7262         1.97639 
        4.47683         32.4347         1.95884 
        4.49251          32.177         1.94154 
        4.50819         31.9124         1.92445 
         4.5239         31.7145         1.90755 
        4.53962         31.4123         1.89082 
        4.55535         31.1362         1.87429 
        4.57106         30.8515         1.85798 
        4.58678         30.5845         1.84187 
         4.6025         30.3148         1.82593 
        4.61821         30.0871         1.81019 
        4.63391         29.8445         1.79466 
         4.6496         29.6144         1.77931 
        4.66532         29.4009         1.76412 
        4.68103          29.156         1.74911 
        4.69673         28.8906          1.7343 
        4.71241         28.7027         1.71966 
        4.72811         28.5055         1.70518 
        4.74384         28.2481         1.69084 
        4.75955         27.9317         1.67669 
        4.77525         27.8097          1.6627 
        4.79096         27.5494         1.64886 
        4.80669          27.339         1.63517 
         4.8224         27.0939         1.62165 
        4.83809           26.91          1.6083 
        4.85379         26.7379         1.59509 
         4.8695         26.4689         1.58202 
        4.88521         26.2645          1.5691 
        4.90093         26.0573         1.55632 
        4.91663         25.8145          1.5437 
        4.93234         25.5851          1.5312 
        4.94807         25.4662         1.51883 
        4.96377          25.276         1.50663 
        4.97943         25.0773         1.49458 
        4.99514         24.8332         1.48263 
        5.01086         24.6918          1.4708 
        5.02654         24.4504         1.45914 
        5.04227         24.2594         1.44756 
          5.058         24.1759         1.43611 
        5.07371         23.8888          1.4248 
        5.08942           23.67         1.41361 
        5.10513         23.5272         1.40254 
        5.12084         23.3974         1.39158 
        5.13656         23.2029         1.38075 
        5.15225         23.0021         1.37004 
        5.16796         22.8098         1.35944 
        5.18369         22.6622         1.34893 
         5.1994         22.4683         1.33856 
        5.21509         22.3164          1.3283 
        5.23079         22.0984         1.31814 
        5.24649         21.9916         1.30809 
        5.26217         21.8048         1.29816 
        5.27788         21.6475         1.28831 
        5.29359         21.5096         1.27856 
        5.30933         21.2864          1.2689 
        5.32504         21.1314         1.25936 
        5.34073         21.0255         1.24993 
        5.35646         20.8802         1.24057 
        5.37218         20.7026         1.23131 
        5.38789         20.5547         1.22215 
        5.40357         20.4083          1.2131 
        5.41929         20.2021         1.20412 
        5.43502         20.1406         1.19523 
         5.4507         19.9726         1.18646 
        5.46639          19.814         1.17776 
        5.48212         19.6986         1.16914 
        5.49786         19.5161         1.16059 
        5.51353         19.3679         1.15217 
        5.52921         19.2189         1.14382 
        5.54495         19.0815         1.13554 
        5.56066          18.961         1.12734 
        5.57637         18.8069         1.11923 
        5.59207         18.6754          1.1112 
        5.60778          18.533         1.10325 
        5.62346         18.4144         1.09538 
        5.63916         18.2726         1.08759 
        5.65487         18.1732         1.07987 
         5.6706         18.0106         1.07221 
        5.68633         17.8902         1.06462 
        5.70203         17.7428         1.05713 
        5.71773         17.6339         1.04971 
        5.73344         17.5499         1.04235 
        5.74916         17.3588         1.03506 
        5.76486         17.2619         1.02785 
        5.78054         17.1955         1.02071 
        5.79626         17.0394         1.01363 
          5.812         16.9089          1.0066 
         5.8277          16.791        0.999667 
        5.84339         16.7096        0.992795 
        5.85911         16.5906        0.985974 
        5.87484          16.426        0.979219 
        5.89053         16.3203         0.97254 
        5.90623         16.2065         0.96592 
        5.92195          16.091         0.95935 
        5.93767         15.9932        0.952845 
        5.95336         15.8823        0.946411 
        5.96905         15.7661        0.940039 
        5.98476         15.6622        0.933716 
        6.00048         15.5461         0.92745 
        6.01617         15.4239        0.921249 
        6.03185          15.357        0.915113 
        6.04756         15.1912        0.909017 
        6.06331         15.1156        0.902964 
        6.07903         15.0347        0.896979 
        6.09473         14.9036        0.891054 
        6.11044         14.7932        0.885177 
        6.12616         14.6889        0.879354 
        6.14186          14.601        0.873588 
        6.15755         14.5167        0.867875 
        6.17326         14.4212        0.862209 
        6.18898         14.3097         0.85659 
        6.20467         14.2177        0.851032 
        6.22036         14.1128        0.845523 
         6.2361         14.0084        0.840048 
         6.2518         13.9507         0.83463 
        6.26748         13.8473        0.829272 
        6.28319         13.7237        0.823946 
        6.29893         13.6484        0.818663 
        6.31463         13.5536        0.813434 
        6.33033         13.4823        0.808253 
        6.34604         13.3856        0.803114 
        6.36177         13.2931        0.798014 
        6.37747         13.1918        0.792968 
