# k  (h/Mpc)    Pcb(k)  (Mpc/h)^3    Pcb_linear(k) (Mpc/h)^3   ShotnoiseSubtracted = true
      0.0200456         11156.6         11370.7 
      0.0350414         8019.57         8266.09 
      0.0492313         5953.31         6005.99 
      0.0637834         5089.85         4992.72 
      0.0800726         4027.55          3962.6 
       0.096163         2815.01         2875.21 
       0.111083         2239.47         2293.34 
       0.126058         2062.78         2032.37 
       0.142273         1781.75         1721.86 
       0.158546         1490.36         1359.91 
        0.17375          1196.1         1145.72 
       0.188953         1153.61         1037.43 
       0.204907         1083.14         917.912 
       0.220756         920.522         776.609 
        0.23588          810.37         675.582 
         0.2514         707.842          613.76 
       0.267535         689.256         555.347 
       0.283568         624.819         489.742 
       0.299022          582.34         436.334 
       0.314451         546.678          398.78 
       0.330372         504.248         365.836 
       0.346141         457.871         332.052 
       0.361624         440.169          301.79 
       0.377134         409.487         277.694 
       0.392932         387.943         256.945 
       0.408854         372.275         236.854 
       0.424564          353.85         218.311 
       0.440253         341.686           202.4 
       0.455999         321.498         188.564 
       0.471626         299.931         175.849 
        0.48727          291.09         163.956 
       0.502856         281.387         153.271 
       0.518488         277.988         143.737 
       0.534347         261.628         134.874 
       0.550082         245.943         126.702 
       0.565732          242.11         119.225 
       0.581496         229.702         112.378 
       0.597222         224.212         106.098 
       0.612804         216.207         100.323 
       0.628434          208.72         94.9411 
       0.644267         201.949         89.9091 
       0.660051          199.44         85.2713 
       0.675724         195.016         80.9889 
       0.691403         189.407         76.9969 
       0.707174         181.455         73.2516 
       0.722871         179.858         69.7702 
        0.73838         175.922         66.5524 
       0.754018         170.724         63.5132 
       0.769845         165.725         60.6307 
        0.78569         163.626         57.9248 
       0.801365         158.748         55.4109 
       0.817031         153.555         53.0485 
       0.832809         151.409         50.8095 
       0.848511         147.604         48.7104 
       0.864097         145.124         46.7449 
       0.879701         141.938         44.8865 
       0.895507         138.391         43.1077 
       0.911279         135.644         41.4294 
        0.92691         134.402         39.8547 
       0.942635         131.065         38.3536 
       0.958396          130.78          36.927 
       0.974128         127.064         35.5759 
       0.989692         123.963         34.3059 
        1.00528         121.641         33.0964 
        1.02113         120.886         31.9265 
        1.03692         116.292         30.8176 
        1.05264         115.573         29.7668 
        1.06832         112.992         28.7668 
        1.08405         111.498         27.8102 
        1.09979         110.942         26.8968 
        1.11537         107.248         26.0336 
        1.13105         106.961         25.2033 
        1.14679         105.822         24.4061 
        1.16256         104.258          23.642 
        1.17828         101.642         22.9132 
        1.19395         100.379         22.2177 
         1.2097         98.2463         21.5477 
        1.22537         98.1964         20.9086 
          1.241          95.921         20.2975 
        1.25666         94.0428         19.7093 
        1.27241           92.86         19.1418 
        1.28819         91.4399         18.5957 
        1.30392         90.3216         18.0727 
        1.31957         89.0241         17.5721 
        1.33529         87.4001         17.0887 
        1.35108         86.4802         16.6216 
        1.36674         85.5314         16.1754 
         1.3824         83.9442          15.746 
        1.39811         83.0613         15.3308 
        1.41389         81.8352         14.9291 
        1.42964         80.8039         14.5424 
        1.44531         79.0779         14.1714 
        1.46101         78.1766         13.8126 
        1.47667         77.9463         13.4673 
        1.49229         76.3696         13.1348 
        1.50793         75.8584         12.8131 
        1.52367          74.644         12.5002 
        1.53953         73.5318         12.1956 
        1.55526         72.8559         11.9037 
        1.57092         72.5552         11.6225 
        1.58662         70.9441         11.3498 
        1.60235          70.457         11.0853 
        1.61809         69.4623         10.8292 
        1.63369         68.4627         10.5834 
        1.64941         67.8216         10.3435 
        1.66519         66.4419         10.1102 
        1.68085         66.0191         9.88576 
        1.69652         64.8468         9.66809 
        1.71228         64.5408         9.45575 
        1.72806         63.7602         9.24963 
        1.74368         62.9557         9.05174 
        1.75933         62.1586         8.85925 
        1.77505         61.6122         8.67147 
        1.79081         60.7166         8.48881 
         1.8065         60.1742          8.3122 
        1.82218         59.3163         8.14079 
        1.83797         58.7194         7.97304 
        1.85367         58.0517         7.81095 
        1.86928          57.544         7.65435 
        1.88497          56.738          7.5012 
        1.90073         55.9565         7.35168 
        1.91647         55.6689         7.20637 
        1.93218         54.9281         7.06531 
        1.94787         54.2997         6.92824 
        1.96363         53.5814         6.79426 
        1.97935         53.2053         6.66411 
        1.99499         52.3942         6.53811 
        2.01064         52.2314         6.41519 
         2.0264         50.9448         6.29466 
        2.04216         50.7137         6.17729 
        2.05781         50.0911         6.06366 
        2.07353         49.5469         5.95248 
        2.08928         48.9655         5.84386 
        2.10499         48.5907         5.73823 
        2.12065         47.9731         5.63554 
        2.13633         47.7297         5.53528 
        2.15211         47.3367         5.43681 
        2.16785         46.4375         5.34102 
        2.18349         46.1397         5.24813 
        2.19916         45.6675         5.15727 
        2.21489         45.2138         5.06825 
        2.23063         44.5548         4.98128 
         2.2463         44.1452         4.89674 
        2.26194         43.4362         4.81438 
        2.27765         43.0159         4.73349 
        2.29341         42.5119         4.65425 
        2.30914         42.0206         4.57699 
        2.32486         41.4525         4.50153 
        2.34061         41.1954         4.42764 
        2.35635         40.7326         4.35548 
        2.37203         40.2348         4.28519 
        2.38768         39.8594         4.21658 
        2.40339         39.5847         4.14924 
        2.41914         39.2066         4.08321 
        2.43483         38.5734         4.01885 
         2.4505         38.2929         3.95598 
        2.46622         37.9098         3.89425 
        2.48195         37.5249         3.83383 
        2.49759         37.0874         3.77501 
        2.51328         36.5857         3.71728 
        2.52906         36.3795         3.66039 
        2.54479         35.7872          3.6049 
        2.56049         35.4602         3.55067 
        2.57618         35.1486         3.49761 
        2.59189         34.7907         3.44555 
        2.60758         34.5562         3.39463 
        2.62325         34.0836          3.3448 
        2.63898         33.7621          3.2958 
        2.65468         33.3912         3.24788 
        2.67044          33.023         3.20072 
        2.68618         32.7712          3.1546 
        2.70184         32.3834         3.10957 
        2.71755         32.2076         3.06531 
        2.73329         31.8255         3.02184 
        2.74897         31.4717         2.97936 
        2.76462         31.0537         2.93779 
        2.78034         30.9383         2.89684 
        2.79607         30.5795         2.85663 
        2.81179         30.3115         2.81722 
        2.82749         30.0109         2.77861 
        2.84321         29.5748         2.74068 
        2.85893         29.3172         2.70346 
        2.87462         29.0334           2.667 
        2.89033         28.7665         2.63118 
        2.90605         28.5834         2.59599 
        2.92176         28.3924         2.56146 
        2.93747         28.0043         2.52757 
        2.95318          27.624         2.49429 
        2.96891         27.4421          2.4616 
        2.98456         27.0903         2.42964 
        3.00023         26.8423         2.39819 
        3.01596         26.5752         2.36721 
        3.03164         26.4166         2.33686 
        3.04738         26.1682         2.30695 
         3.0631         25.9053         2.27758 
        3.07883         25.6284         2.24872 
        3.09456         25.3279         2.22036 
        3.11026         25.1132         2.19254 
        3.12596         24.9321         2.16519 
        3.14163          24.666         2.13838 
        3.15734         24.4278         2.11196 
        3.17308         24.1645         2.08592 
        3.18879         24.0046         2.06039 
        3.20447         23.7159         2.03532 
         3.2202         23.5025         2.01059 
         3.2359         23.2322         1.98632 
        3.25157         23.2038         1.96251 
        3.26729         22.8979         1.93901 
        3.28304         22.6688         1.91586 
        3.29877         22.3837         1.89311 
        3.31446         22.1837         1.87078 
        3.33014         21.9807         1.84883 
        3.34585         21.8445          1.8272 
        3.36158         21.5718         1.80588 
        3.37727          21.364         1.78497 
        3.39294         21.2374         1.76441 
        3.40867         21.0168          1.7441 
        3.42439         20.8264         1.72412 
        3.44008         20.6388         1.70449 
        3.45578         20.4605         1.68516 
        3.47153         20.1973         1.66608 
        3.48724         20.0587         1.64733 
        3.50292         19.9191         1.62891 
        3.51859         19.6911         1.61078 
        3.53431         19.5152         1.59287 
        3.55007         19.3129         1.57519 
        3.56577         19.1218         1.55785 
        3.58146         19.0095         1.54078 
        3.59719         18.7781         1.52392 
        3.61292         18.6401         1.50732 
        3.62859         18.4702         1.49103 
        3.64429         18.3252         1.47495 
        3.66003         18.1871         1.45906 
        3.67578         17.9605         1.44341 
        3.69146         17.8767         1.42804 
        3.70712         17.6867         1.41293 
        3.72284          17.596         1.39798 
        3.73853          17.364         1.38327 
        3.75422         17.1665         1.36877 
        3.76993         17.0709         1.35447 
        3.78564         16.9127         1.34037 
        3.80137         16.7427         1.32645 
        3.81707         16.5875         1.31276 
        3.83279         16.4651         1.29925 
        3.84853         16.2966         1.28591 
        3.86424         16.1759         1.27278 
        3.87992         16.0367         1.25986 
        3.89561         15.8519         1.24711 
        3.91134          15.775         1.23451 
        3.92704         15.6213         1.22211 
        3.94273          15.492         1.20988 
        3.95845         15.3192          1.1978 
        3.97418         15.2481         1.18588 
        3.98988          15.068         1.17414 
        4.00554         14.9584         1.16259 
        4.02125         14.8419         1.15117 
        4.03698         14.7575         1.13988 
        4.05268         14.5617         1.12876 
        4.06839         14.4548         1.11779 
         4.0841         14.3563         1.10696 
        4.09983         14.1965         1.09627 
        4.11555         14.0759         1.08572 
        4.13124          13.976         1.07533 
        4.14693         13.8559         1.06508 
        4.16266         13.7386         1.05493 
        4.17839         13.6053         1.04492 
        4.19408         13.4772         1.03507 
        4.20977         13.4258         1.02533 
        4.22551         13.2657          1.0157 
        4.24123         13.1787          1.0062 
        4.25691         13.0779        0.996855 
        4.27259          12.934         0.98762 
        4.28831         12.8064        0.978484 
        4.30404         12.7349        0.969455 
        4.31974         12.6186        0.960559 
        4.33543         12.5334         0.95178 
        4.35116         12.4416         0.94309 
        4.36688         12.2989        0.934511 
        4.38255         12.2009        0.926071 
        4.39825         12.1028        0.917716 
        4.41398         12.0608        0.909448 
         4.4297         11.8999        0.901291 
        4.44541         11.8121        0.893235 
        4.46111         11.7185        0.885284 
        4.47683         11.6463        0.877424 
        4.49251          11.542        0.869675 
        4.50819         11.4666        0.862021 
         4.5239         11.3633        0.854449 
        4.53962         11.2807        0.846958 
        4.55535          11.174        0.839554 
        4.57106         11.0742        0.832248 
        4.58678         10.9776        0.825028 
         4.6025         10.9014        0.817891 
        4.61821         10.8246        0.810841 
        4.63391         10.7306        0.803882 
         4.6496         10.6376        0.797008 
        4.66532         10.5481        0.790204 
        4.68103         10.4815        0.783482 
        4.69673         10.3951        0.776844 
        4.71241         10.2889         0.77029 
        4.72811         10.2172        0.763801 
        4.74384         10.1663        0.757378 
        4.75955         10.0643        0.751039 
        4.77525         9.98264        0.744775 
        4.79096         9.92915        0.738576 
        4.80669         9.84736        0.732444 
         4.8224         9.78099        0.726389 
        4.83809         9.69037        0.720408 
        4.85379         9.61537        0.714491 
         4.8695         9.57845        0.708636 
        4.88521         9.46488        0.702848 
        4.90093         9.39419        0.697125 
        4.91663         9.33613         0.69147 
        4.93234         9.27423        0.685872 
        4.94807         9.18441        0.680332 
        4.96377         9.11154        0.674864 
        4.97943         9.04823        0.669467 
        4.99514         8.99154        0.664116 
        5.01086         8.92857        0.658818 
        5.02654         8.85533        0.653592 
        5.04227         8.79116        0.648408 
          5.058         8.70072        0.643277 
        5.07371         8.66246        0.638211 
        5.08942         8.60023          0.6332 
        5.10513         8.52415        0.628241 
        5.12084         8.45687        0.623333 
        5.13656         8.40006        0.618479 
        5.15225         8.34156        0.613684 
        5.16796         8.28762        0.608933 
        5.18369         8.22877        0.604228 
         5.1994         8.13225         0.59958 
        5.21509         8.10405        0.594986 
        5.23079         8.03831        0.590435 
        5.24649         7.98107        0.585934 
        5.26217         7.92407        0.581484 
        5.27788          7.8627        0.577073 
        5.29359         7.80411        0.572708 
        5.30933         7.73781        0.568381 
        5.32504         7.68891        0.564106 
        5.34073         7.65797         0.55988 
        5.35646          7.5721        0.555689 
        5.37218         7.53557        0.551539 
        5.38789         7.47485        0.547439 
        5.40357         7.42871        0.543385 
        5.41929         7.37249        0.539363 
        5.43502         7.31621        0.535382 
         5.4507         7.27057         0.53145 
        5.46639         7.23968        0.527556 
        5.48212         7.17799        0.523693 
        5.49786         7.14092        0.519864 
        5.51353         7.06644        0.516092 
        5.52921         7.02138        0.512354 
        5.54495         6.98148        0.508641 
        5.56066         6.92813         0.50497 
        5.57637         6.86434        0.501335 
        5.59207         6.83323        0.497739 
        5.60778         6.76734        0.494177 
        5.62346         6.72905        0.490655 
        5.63916         6.68192        0.487164 
        5.65487         6.64601        0.483705 
         5.6706         6.58619        0.480276 
        5.68633         6.54263        0.476878 
        5.70203         6.51265         0.47352 
        5.71773         6.46199        0.470195 
        5.73344         6.41501        0.466901 
        5.74916         6.37793        0.463634 
        5.76486         6.33974        0.460404 
        5.78054         6.29124        0.457209 
        5.79626         6.24299        0.454036 
          5.812         6.21081        0.450889 
         5.8277          6.1686        0.447782 
        5.84339         6.11216        0.444703 
        5.85911         6.08695        0.441648 
        5.87484          6.0385        0.438622 
        5.89053          6.0005         0.43563 
        5.90623         5.96046        0.432665 
        5.92195         5.90161        0.429722 
        5.93767          5.8857        0.426809 
        5.95336         5.83674        0.423927 
        5.96905          5.8108        0.421072 
        5.98476         5.76266         0.41824 
        6.00048         5.73929        0.415433 
        6.01617          5.6905        0.412656 
        6.03185         5.66651        0.409907 
        6.04756         5.61645        0.407177 
        6.06331         5.58298        0.404465 
        6.07903         5.55313        0.401784 
        6.09473         5.50652         0.39913 
        6.11044         5.47199        0.396498 
        6.12616         5.44276        0.393889 
        6.14186         5.40388        0.391307 
        6.15755         5.36697        0.388748 
        6.17326         5.32892         0.38621 
        6.18898          5.2908        0.383693 
        6.20467         5.26756        0.381203 
        6.22036         5.23818        0.378735 
         6.2361          5.1987        0.376283 
         6.2518         5.16803        0.373856 
        6.26748         5.14205        0.371456 
        6.28319          5.0965        0.369071 
        6.29893         5.06829        0.366704 
        6.31463         5.04623        0.364362 
        6.33033         5.00141        0.362041 
        6.34604         4.98712        0.359739 
        6.36177          4.9487        0.357455 
        6.37747         4.91368        0.355195 
