# k  (h/Mpc)    Pcb(k)  (Mpc/h)^3    Pcb_linear(k) (Mpc/h)^3   ShotnoiseSubtracted = true
      0.0200456          4317.9          4375.1 
      0.0350414          3241.7         3180.55 
      0.0492313         2309.84         2310.93 
      0.0637834         1881.77         1921.05 
      0.0800726         1487.31         1524.69 
       0.096163         1134.44          1106.3 
       0.111083         916.001         882.411 
       0.126058         776.988         781.996 
       0.142273         660.576         662.522 
       0.158546         536.968         523.254 
        0.17375         462.438         440.841 
       0.188953         419.236         399.171 
       0.204907          357.14         353.185 
       0.220756         316.462         298.816 
        0.23588         277.922         259.944 
         0.2514         250.354         236.157 
       0.267535         235.674         213.681 
       0.283568         206.018         188.438 
       0.299022         191.165         167.889 
       0.314451         183.061         153.439 
       0.330372          161.06         140.763 
       0.346141          148.16         127.764 
       0.361624         137.964          116.12 
       0.377134         126.047         106.849 
       0.392932         122.494         98.8648 
       0.408854         113.904         91.1343 
       0.424564         108.542         83.9998 
       0.440253          98.712         77.8775 
       0.455999         91.1368          72.554 
       0.471626         87.3094         67.6617 
        0.48727          84.743         63.0853 
       0.502856         78.2015          58.974 
       0.518488         74.9994         55.3057 
       0.534347         70.7457         51.8955 
       0.550082         68.3742         48.7511 
       0.565732         66.1926         45.8744 
       0.581496         61.4334         43.2397 
       0.597222         59.0437         40.8234 
       0.612804         56.8709         38.6015 
       0.628434         55.6678         36.5305 
       0.644267         52.6356         34.5944 
       0.660051          50.501         32.8099 
       0.675724         48.6649         31.1621 
       0.691403         47.8405         29.6261 
       0.707174         46.1349          28.185 
       0.722871         44.7079         26.8455 
        0.73838         42.7036         25.6074 
       0.754018         40.5149          24.438 
       0.769845         39.9211         23.3289 
        0.78569         38.4869         22.2877 
       0.801365          37.414         21.3205 
       0.817031         35.9631         20.4115 
       0.832809         35.3192           19.55 
       0.848511         34.1916         18.7423 
       0.864097         33.3675         17.9861 
       0.879701         32.7572          17.271 
       0.895507         31.5399         16.5866 
       0.911279          30.581         15.9408 
        0.92691         30.0241         15.3349 
       0.942635         29.3832         14.7574 
       0.958396         28.7543         14.2084 
       0.974128         27.9666         13.6885 
       0.989692         26.9022         13.1999 
        1.00528          26.665         12.7345 
        1.02113         25.9222         12.2844 
        1.03692         25.4583         11.8577 
        1.05264         24.9267         11.4534 
        1.06832         24.4708         11.0686 
        1.08405         23.7687         10.7006 
        1.09979         23.4632         10.3491 
        1.11537         22.7393          10.017 
        1.13105         22.3925         9.69747 
        1.14679         21.8388         9.39074 
        1.16256         21.5239         9.09674 
        1.17828         21.1837         8.81633 
        1.19395          20.806         8.54873 
         1.2097         20.3535         8.29092 
        1.22537         19.9937         8.04502 
          1.241         19.5997         7.80987 
        1.25666         19.3527         7.58357 
        1.27241         19.0253          7.3652 
        1.28819         18.3076          7.1551 
        1.30392         18.5129         6.95383 
        1.31957         18.0181         6.76121 
        1.33529         17.6919         6.57522 
        1.35108         17.5112          6.3955 
        1.36674         17.1683         6.22381 
         1.3824          16.856          6.0586 
        1.39811         16.5424         5.89885 
        1.41389         16.3498         5.74427 
        1.42964         16.1444         5.59551 
        1.44531         15.8927         5.45275 
        1.46101         15.6748         5.31469 
        1.47667         15.4338         5.18183 
        1.49229         15.0944         5.05388 
        1.50793         14.9768         4.93011 
        1.52367         14.7967         4.80971 
        1.53953         14.5634         4.69253 
        1.55526         14.2933         4.58019 
        1.57092         14.2656         4.47201 
        1.58662         14.0357         4.36707 
        1.60235         13.8144         4.26531 
        1.61809         13.6591         4.16675 
        1.63369         13.4326         4.07218 
        1.64941         13.2897         3.97987 
        1.66519         13.1038         3.89011 
        1.68085         12.8537         3.80375 
        1.69652         12.8755            3.72 
        1.71228         12.6251         3.63829 
        1.72806         12.4406         3.55899 
        1.74368         12.3241         3.48284 
        1.75933         12.2116         3.40878 
        1.77505         12.0297         3.33653 
        1.79081         11.8976         3.26624 
         1.8065         11.8179         3.19829 
        1.82218         11.6999         3.13234 
        1.83797         11.5559         3.06779 
        1.85367         11.4415         3.00542 
        1.86928         11.2899         2.94517 
        1.88497         11.1815         2.88624 
        1.90073         11.0157         2.82871 
        1.91647         10.7735          2.7728 
        1.93218         10.7855         2.71852 
        1.94787         10.5883         2.66578 
        1.96363         10.5382         2.61423 
        1.97935         10.4392         2.56415 
        1.99499         10.3043         2.51567 
        2.01064         10.1977         2.46837 
         2.0264         10.0539           2.422 
        2.04216         10.0846         2.37684 
        2.05781         9.95181         2.33312 
        2.07353         9.82227         2.29034 
        2.08928         9.68774         2.24854 
        2.10499         9.59298          2.2079 
        2.12065         9.54363         2.16839 
        2.13633         9.41508         2.12981 
        2.15211         9.34076         2.09193 
        2.16785         9.20374         2.05507 
        2.18349         9.15329         2.01933 
        2.19916         9.05551         1.98436 
        2.21489         8.98779         1.95011 
        2.23063         8.93761         1.91665 
         2.2463         8.77897         1.88412 
        2.26194         8.71139         1.85243 
        2.27765         8.62464         1.82131 
        2.29341         8.50469         1.79082 
        2.30914         8.50697         1.76109 
        2.32486         8.40241         1.73206 
        2.34061         8.35087         1.70363 
        2.35635         8.25007         1.67586 
        2.37203         8.16136         1.64881 
        2.38768         8.08592         1.62242 
        2.40339         8.03988          1.5965 
        2.41914         7.95936          1.5711 
        2.43483         7.92857         1.54633 
         2.4505         7.84075         1.52215 
        2.46622         7.73885         1.49839 
        2.48195         7.73964         1.47514 
        2.49759         7.59216         1.45251 
        2.51328         7.57349          1.4303 
        2.52906          7.4874         1.40841 
        2.54479         7.41915         1.38706 
        2.56049         7.35864         1.36619 
        2.57618         7.31907         1.34578 
        2.59189         7.31775         1.32574 
        2.60758         7.19512         1.30615 
        2.62325         7.12342         1.28698 
        2.63898         7.13263         1.26813 
        2.65468         7.02466         1.24969 
        2.67044         6.97928         1.23154 
        2.68618         6.89858          1.2138 
        2.70184         6.88745         1.19647 
        2.71755         6.80277         1.17944 
        2.73329         6.72436         1.16272 
        2.74897         6.69717         1.14637 
        2.76462         6.66488         1.13037 
        2.78034         6.59919         1.11462 
        2.79607         6.56133         1.09915 
        2.81179         6.49389         1.08399 
        2.82749         6.43117         1.06913 
        2.84321          6.3973         1.05453 
        2.85893         6.35558         1.04021 
        2.87462         6.31442         1.02618 
        2.89033         6.24658          1.0124 
        2.90605         6.21568        0.998861 
        2.92176         6.14858        0.985574 
        2.93747         6.10874        0.972536 
        2.95318         6.05362        0.959731 
        2.96891         6.00949        0.947151 
        2.98456         5.97151        0.934852 
        3.00023         5.94883        0.922754 
        3.01596         5.85754        0.910832 
        3.03164         5.83685        0.899155 
        3.04738         5.80197        0.887648 
         3.0631         5.76318        0.876347 
        3.07883         5.71526        0.865241 
        3.09456         5.64392        0.854331 
        3.11026         5.62894        0.843625 
        3.12596         5.58492        0.833103 
        3.14163         5.55875        0.822786 
        3.15734          5.5069        0.812619 
        3.17308         5.49597        0.802599 
        3.18879         5.43684        0.792776 
        3.20447         5.40014        0.783131 
         3.2202         5.35157        0.773617 
         3.2359         5.31412        0.764278 
        3.25157         5.28818        0.755116 
        3.26729         5.25409        0.746075 
        3.28304         5.21229        0.737165 
        3.29877          5.1856        0.728413 
        3.31446         5.16258        0.719821 
        3.33014         5.09963        0.711376 
        3.34585          5.0769        0.703053 
        3.36158         5.03528        0.694851 
        3.37727         5.00459        0.686805 
        3.39294         4.97305        0.678894 
        3.40867         4.94611        0.671079 
        3.42439         4.88953        0.663392 
        3.44008         4.86785        0.655839 
        3.45578         4.83381        0.648399 
        3.47153         4.79562        0.641058 
        3.48724         4.77012        0.633843 
        3.50292         4.73622        0.626756 
        3.51859         4.70436        0.619781 
        3.53431         4.67783         0.61289 
        3.55007          4.6503        0.606088 
        3.56577         4.59764        0.599415 
        3.58146         4.58033        0.592846 
        3.59719         4.55694        0.586359 
        3.61292         4.52781        0.579973 
        3.62859         4.49992        0.573705 
        3.64429         4.46646        0.567518 
        3.66003         4.44449        0.561403 
        3.67578         4.41974         0.55538 
        3.69146         4.38208        0.549469 
        3.70712         4.36978        0.543654 
        3.72284         4.33456        0.537902 
        3.73853          4.2973        0.532243 
        3.75422         4.26694        0.526663 
        3.76993         4.25684        0.521158 
        3.78564         4.22219        0.515735 
        3.80137         4.18909        0.510379 
        3.81707         4.16338        0.505111 
        3.83279         4.14124        0.499913 
        3.84853         4.10171         0.49478 
        3.86424          4.0857        0.489729 
        3.87992          4.0643        0.484755 
        3.89561         4.03655        0.479851 
        3.91134         4.00735        0.475004 
        3.92704          3.9738         0.47023 
        3.94273         3.96114        0.465526 
        3.95845         3.92686        0.460878 
        3.97418         3.90764        0.456293 
        3.98988         3.88445        0.451775 
        4.00554         3.85648        0.447332 
        4.02125         3.82282        0.442935 
        4.03698         3.80375        0.438591 
        4.05268         3.77569        0.434315 
        4.06839         3.75545        0.430092 
         4.0841         3.72791        0.425927 
        4.09983         3.70817        0.421811 
        4.11555         3.68159        0.417752 
        4.13124         3.65985        0.413756 
        4.14693         3.64334         0.40981 
        4.16266         3.61233        0.405906 
        4.17839         3.59011        0.402055 
        4.19408         3.57229        0.398263 
        4.20977         3.55122        0.394518 
        4.22551         3.51953        0.390812 
        4.24123         3.49395        0.387158 
        4.25691         3.47874         0.38356 
        4.27259          3.4544        0.380007 
        4.28831         3.42522        0.376492 
        4.30404         3.41918        0.373018 
        4.31974         3.38936        0.369595 
        4.33543          3.3715        0.366217 
        4.35116         3.35223        0.362873 
        4.36688         3.33197        0.359572 
        4.38255         3.31533        0.356325 
        4.39825         3.29246         0.35311 
        4.41398         3.27343        0.349929 
         4.4297         3.25611         0.34679 
        4.44541         3.23294        0.343691 
        4.46111          3.2033        0.340631 
        4.47683         3.18725        0.337607 
        4.49251         3.17334        0.334625 
        4.50819         3.15126         0.33168 
         4.5239          3.1321        0.328767 
        4.53962         3.10788        0.325885 
        4.55535         3.09625        0.323036 
        4.57106         3.07606        0.320225 
        4.58678         3.05622        0.317446 
         4.6025         3.04603        0.314701 
        4.61821         3.02591        0.311988 
        4.63391          3.0005         0.30931 
         4.6496          2.9858        0.306665 
        4.66532          2.9741        0.304047 
        4.68103         2.95072        0.301461 
        4.69673         2.93887        0.298907 
        4.71241         2.92105        0.296385 
        4.72811         2.90073        0.293888 
        4.74384         2.89244        0.291417 
        4.75955         2.86479        0.288978 
        4.77525          2.8509        0.286568 
        4.79096         2.83682        0.284182 
        4.80669          2.8208        0.281823 
         4.8224         2.80492        0.279493 
        4.83809         2.79559        0.277192 
        4.85379         2.77471        0.274915 
         4.8695          2.7593        0.272662 
        4.88521         2.73773        0.270435 
        4.90093         2.72953        0.268233 
        4.91663         2.71588        0.266057 
        4.93234         2.69977        0.263903 
        4.94807         2.68306        0.261772 
        4.96377         2.66884        0.259668 
        4.97943         2.65964        0.257591 
        4.99514         2.63694        0.255532 
        5.01086         2.62311        0.253494 
        5.02654         2.60884        0.251483 
        5.04227         2.59735        0.249488 
          5.058          2.5873        0.247514 
        5.07371         2.57195        0.245565 
        5.08942         2.55281        0.243637 
        5.10513         2.54254        0.241729 
        5.12084         2.52658         0.23984 
        5.13656         2.51396        0.237973 
        5.15225         2.49677        0.236128 
        5.16796         2.48706          0.2343 
        5.18369         2.47106        0.232489 
         5.1994         2.45869        0.230701 
        5.21509         2.44692        0.228933 
        5.23079         2.44098        0.227182 
        5.24649         2.42308         0.22545 
        5.26217         2.40858        0.223738 
        5.27788         2.39764        0.222041 
        5.29359         2.38912        0.220361 
        5.30933         2.37456        0.218696 
        5.32504          2.3628        0.217052 
        5.34073         2.34693        0.215425 
        5.35646         2.33524        0.213813 
        5.37218         2.32675        0.212216 
        5.38789         2.30949        0.210638 
        5.40357         2.30179        0.209079 
        5.41929         2.29178        0.207531 
        5.43502         2.27981        0.205999 
         5.4507          2.2643        0.204486 
        5.46639         2.25102        0.202988 
        5.48212         2.24298        0.201502 
        5.49786         2.23092        0.200028 
        5.51353         2.22124        0.198577 
        5.52921         2.20661        0.197139 
        5.54495         2.19763         0.19571 
        5.56066         2.18761        0.194298 
        5.57637         2.17389        0.192899 
        5.59207         2.16571        0.191515 
        5.60778         2.16021        0.190145 
        5.62346         2.14272         0.18879 
        5.63916         2.13053        0.187446 
        5.65487         2.11971        0.186115 
         5.6706         2.11436        0.184796 
        5.68633         2.10131        0.183489 
        5.70203         2.09248        0.182197 
        5.71773         2.08004        0.180917 
        5.73344         2.07126         0.17965 
        5.74916         2.06111        0.178393 
        5.76486         2.05163         0.17715 
        5.78054         2.04143        0.175921 
        5.79626          2.0319          0.1747 
          5.812          2.0176        0.173489 
         5.8277         2.01057        0.172293 
        5.84339         2.00326        0.171109 
        5.85911         1.99162        0.169933 
        5.87484         1.98251        0.168769 
        5.89053         1.97691        0.167618 
        5.90623         1.96785        0.166477 
        5.92195         1.95226        0.165345 
        5.93767         1.94983        0.164223 
        5.95336         1.93771        0.163114 
        5.96905         1.93176        0.162016 
        5.98476          1.9183        0.160927 
        6.00048         1.90742        0.159846 
        6.01617         1.90328        0.158778 
        6.03185         1.89363         0.15772 
        6.04756          1.8857         0.15667 
        6.06331         1.87713        0.155626 
        6.07903           1.867        0.154595 
        6.09473         1.85813        0.153574 
        6.11044         1.85463        0.152561 
        6.12616         1.84369        0.151557 
        6.14186         1.83454        0.150563 
        6.15755         1.82265        0.149579 
        6.17326         1.81532        0.148602 
        6.18898         1.81119        0.147634 
        6.20467          1.8013        0.146676 
        6.22036         1.79414        0.145726 
         6.2361         1.78692        0.144783 
         6.2518         1.77889        0.143849 
        6.26748         1.77239        0.142925 
        6.28319         1.76396        0.142008 
        6.29893         1.75279        0.141097 
        6.31463         1.74692        0.140196 
        6.33033         1.73917        0.139303 
        6.34604         1.73174        0.138417 
        6.36177         1.72706        0.137538 
        6.37747         1.71844        0.136668 
