# k  (h/Mpc)    Pcb(k)  (Mpc/h)^3    Pcb_linear(k) (Mpc/h)^3   ShotnoiseSubtracted = true
      0.0200456         4306.47          4375.1 
      0.0350414         3130.86         3180.55 
      0.0492313         2310.13         2310.93 
      0.0637834         1950.27         1921.05 
      0.0800726         1545.83         1524.69 
       0.096163         1094.65          1106.3 
       0.111083         868.214         882.411 
       0.126058         790.965         781.996 
       0.142273         679.049         662.522 
       0.158546         548.169         523.254 
        0.17375          446.91         440.841 
       0.188953         419.832         399.171 
       0.204907         389.915         353.185 
       0.220756         325.786         298.816 
        0.23588         284.398         259.944 
         0.2514         252.298         236.157 
       0.267535          236.23         213.681 
       0.283568         212.733         188.438 
       0.299022         194.535         167.889 
       0.314451         175.954         153.439 
       0.330372         163.505         140.763 
       0.346141         147.579         127.764 
       0.361624         138.701          116.12 
       0.377134         130.537         106.849 
       0.392932         117.291         98.8648 
       0.408854         112.793         91.1343 
       0.424564         107.561         83.9998 
       0.440253         99.8313         77.8775 
       0.455999         93.9848          72.554 
       0.471626         87.2253         67.6617 
        0.48727         84.1656         63.0853 
       0.502856         79.7318          58.974 
       0.518488         76.6402         55.3057 
       0.534347         73.5995         51.8955 
       0.550082         67.6438         48.7511 
       0.565732         64.0865         45.8744 
       0.581496         62.1231         43.2397 
       0.597222         60.0943         40.8234 
       0.612804         56.5514         38.6015 
       0.628434         54.9846         36.5305 
       0.644267         53.4126         34.5944 
       0.660051         51.2555         32.8099 
       0.675724         48.8457         31.1621 
       0.691403         47.3655         29.6261 
       0.707174         45.9455          28.185 
       0.722871         44.2665         26.8455 
        0.73838         42.9832         25.6074 
       0.754018         41.0085          24.438 
       0.769845         40.0146         23.3289 
        0.78569         38.8439         22.2877 
       0.801365         37.4466         21.3205 
       0.817031         36.5941         20.4115 
       0.832809         35.9064           19.55 
       0.848511         33.8675         18.7423 
       0.864097         33.2699         17.9861 
       0.879701         32.6076          17.271 
       0.895507         32.0036         16.5866 
       0.911279         30.9642         15.9408 
        0.92691         30.2305         15.3349 
       0.942635         29.1125         14.7574 
       0.958396         28.7535         14.2084 
       0.974128         27.8773         13.6885 
       0.989692         27.5541         13.1999 
        1.00528         26.9152         12.7345 
        1.02113         25.9163         12.2844 
        1.03692         25.4129         11.8577 
        1.05264         24.9901         11.4534 
        1.06832         24.3764         11.0686 
        1.08405         23.8437         10.7006 
        1.09979         23.3643         10.3491 
        1.11537          22.843          10.017 
        1.13105         22.5828         9.69747 
        1.14679         22.2659         9.39074 
        1.16256         21.4771         9.09674 
        1.17828         21.3687         8.81633 
        1.19395         20.7395         8.54873 
         1.2097         20.5844         8.29092 
        1.22537         20.0993         8.04502 
          1.241         19.7514         7.80987 
        1.25666          19.246         7.58357 
        1.27241         18.9375          7.3652 
        1.28819         18.5393          7.1551 
        1.30392         18.3953         6.95383 
        1.31957         18.1835         6.76121 
        1.33529         17.8949         6.57522 
        1.35108         17.4741          6.3955 
        1.36674         17.2497         6.22381 
         1.3824         16.8819          6.0586 
        1.39811         16.6491         5.89885 
        1.41389         16.4872         5.74427 
        1.42964         16.2298         5.59551 
        1.44531         16.0961         5.45275 
        1.46101         15.6369         5.31469 
        1.47667         15.4676         5.18183 
        1.49229         15.2883         5.05388 
        1.50793         15.0771         4.93011 
        1.52367         14.8652         4.80971 
        1.53953         14.6777         4.69253 
        1.55526         14.4371         4.58019 
        1.57092         14.2159         4.47201 
        1.58662         14.0886         4.36707 
        1.60235         13.8685         4.26531 
        1.61809         13.7093         4.16675 
        1.63369         13.5241         4.07218 
        1.64941         13.2821         3.97987 
        1.66519         13.2121         3.89011 
        1.68085         13.0041         3.80375 
        1.69652          12.834            3.72 
        1.71228         12.6699         3.63829 
        1.72806         12.5908         3.55899 
        1.74368         12.3773         3.48284 
        1.75933         12.2468         3.40878 
        1.77505         12.0978         3.33653 
        1.79081         11.9091         3.26624 
         1.8065         11.8411         3.19829 
        1.82218         11.6207         3.13234 
        1.83797         11.5241         3.06779 
        1.85367         11.3728         3.00542 
        1.86928         11.3513         2.94517 
        1.88497         11.1063         2.88624 
        1.90073         11.0864         2.82871 
        1.91647         10.9548          2.7728 
        1.93218         10.8555         2.71852 
        1.94787         10.6985         2.66578 
        1.96363          10.626         2.61423 
        1.97935         10.4579         2.56415 
        1.99499         10.3222         2.51567 
        2.01064         10.2336         2.46837 
         2.0264         10.1476           2.422 
        2.04216         10.0276         2.37684 
        2.05781         9.88399         2.33312 
        2.07353         9.83511         2.29034 
        2.08928         9.72755         2.24854 
        2.10499         9.67325          2.2079 
        2.12065         9.51628         2.16839 
        2.13633         9.49994         2.12981 
        2.15211         9.34572         2.09193 
        2.16785         9.29924         2.05507 
        2.18349         9.22835         2.01933 
        2.19916         9.11278         1.98436 
        2.21489         9.01707         1.95011 
        2.23063         8.93215         1.91665 
         2.2463         8.82493         1.88412 
        2.26194         8.74466         1.85243 
        2.27765         8.71265         1.82131 
        2.29341         8.61213         1.79082 
        2.30914         8.48624         1.76109 
        2.32486         8.42668         1.73206 
        2.34061         8.36294         1.70363 
        2.35635         8.31726         1.67586 
        2.37203         8.23302         1.64881 
        2.38768         8.10485         1.62242 
        2.40339         8.07267          1.5965 
        2.41914         7.96051          1.5711 
        2.43483         7.94668         1.54633 
         2.4505         7.87465         1.52215 
        2.46622         7.79333         1.49839 
        2.48195         7.72076         1.47514 
        2.49759         7.67433         1.45251 
        2.51328         7.58716          1.4303 
        2.52906         7.55171         1.40841 
        2.54479         7.46992         1.38706 
        2.56049          7.4264         1.36619 
        2.57618         7.37153         1.34578 
        2.59189         7.26539         1.32574 
        2.60758         7.25412         1.30615 
        2.62325         7.17593         1.28698 
        2.63898         7.07856         1.26813 
        2.65468         7.01679         1.24969 
        2.67044         6.98686         1.23154 
        2.68618         6.93379          1.2138 
        2.70184         6.87642         1.19647 
        2.71755         6.80613         1.17944 
        2.73329         6.76364         1.16272 
        2.74897         6.72323         1.14637 
        2.76462         6.68416         1.13037 
        2.78034         6.59973         1.11462 
        2.79607         6.55586         1.09915 
        2.81179         6.52276         1.08399 
        2.82749         6.45645         1.06913 
        2.84321         6.45595         1.05453 
        2.85893         6.38418         1.04021 
        2.87462         6.30495         1.02618 
        2.89033         6.26116          1.0124 
        2.90605         6.21345        0.998861 
        2.92176         6.15871        0.985574 
        2.93747         6.11765        0.972536 
        2.95318         6.09823        0.959731 
        2.96891         6.02774        0.947151 
        2.98456          5.9838        0.934852 
        3.00023         5.92478        0.922754 
        3.01596         5.89568        0.910832 
        3.03164          5.8675        0.899155 
        3.04738         5.83142        0.887648 
         3.0631         5.76708        0.876347 
        3.07883         5.72192        0.865241 
        3.09456         5.68316        0.854331 
        3.11026         5.66033        0.843625 
        3.12596         5.61598        0.833103 
        3.14163         5.55575        0.822786 
        3.15734         5.52092        0.812619 
        3.17308          5.4897        0.802599 
        3.18879         5.43696        0.792776 
        3.20447         5.42439        0.783131 
         3.2202         5.35344        0.773617 
         3.2359         5.34283        0.764278 
        3.25157         5.28639        0.755116 
        3.26729         5.27642        0.746075 
        3.28304         5.22157        0.737165 
        3.29877         5.17557        0.728413 
        3.31446         5.14196        0.719821 
        3.33014         5.11824        0.711376 
        3.34585         5.08284        0.703053 
        3.36158         5.04904        0.694851 
        3.37727         5.01623        0.686805 
        3.39294         4.99693        0.678894 
        3.40867         4.93738        0.671079 
        3.42439          4.9206        0.663392 
        3.44008         4.87658        0.655839 
        3.45578         4.83894        0.648399 
        3.47153          4.8122        0.641058 
        3.48724         4.78593        0.633843 
        3.50292          4.7525        0.626756 
        3.51859         4.71816        0.619781 
        3.53431         4.67087         0.61289 
        3.55007         4.66097        0.606088 
        3.56577         4.63546        0.599415 
        3.58146         4.60722        0.592846 
        3.59719         4.57173        0.586359 
        3.61292         4.54754        0.579973 
        3.62859          4.5019        0.573705 
        3.64429         4.47645        0.567518 
        3.66003         4.45416        0.561403 
        3.67578         4.42346         0.55538 
        3.69146         4.37432        0.549469 
        3.70712         4.36628        0.543654 
        3.72284         4.33826        0.537902 
        3.73853         4.31321        0.532243 
        3.75422         4.27997        0.526663 
        3.76993         4.25214        0.521158 
        3.78564         4.22477        0.515735 
        3.80137         4.20716        0.510379 
        3.81707         4.17429        0.505111 
        3.83279         4.14474        0.499913 
        3.84853         4.10611         0.49478 
        3.86424         4.08691        0.489729 
        3.87992         4.06379        0.484755 
        3.89561         4.05205        0.479851 
        3.91134         4.00793        0.475004 
        3.92704         3.98217         0.47023 
        3.94273          3.9641        0.465526 
        3.95845         3.94245        0.460878 
        3.97418         3.91501        0.456293 
        3.98988         3.89705        0.451775 
        4.00554         3.86629        0.447332 
        4.02125         3.83224        0.442935 
        4.03698         3.80672        0.438591 
        4.05268         3.77699        0.434315 
        4.06839         3.77004        0.430092 
         4.0841         3.73192        0.425927 
        4.09983         3.70873        0.421811 
        4.11555         3.68174        0.417752 
        4.13124         3.66118        0.413756 
        4.14693         3.63558         0.40981 
        4.16266         3.61989        0.405906 
        4.17839         3.59481        0.402055 
        4.19408         3.56075        0.398263 
        4.20977         3.54677        0.394518 
        4.22551          3.5156        0.390812 
        4.24123         3.49922        0.387158 
        4.25691          3.4764         0.38356 
        4.27259         3.46725        0.380007 
        4.28831         3.43204        0.376492 
        4.30404         3.41185        0.373018 
        4.31974         3.39322        0.369595 
        4.33543         3.36315        0.366217 
        4.35116         3.34098        0.362873 
        4.36688         3.33104        0.359572 
        4.38255         3.30228        0.356325 
        4.39825         3.29186         0.35311 
        4.41398         3.27817        0.349929 
         4.4297         3.25117         0.34679 
        4.44541         3.23112        0.343691 
        4.46111         3.21519        0.340631 
        4.47683         3.18131        0.337607 
        4.49251         3.17002        0.334625 
        4.50819         3.15191         0.33168 
         4.5239         3.13645        0.328767 
        4.53962         3.11748        0.325885 
        4.55535         3.10068        0.323036 
        4.57106          3.0804        0.320225 
        4.58678         3.05884        0.317446 
         4.6025         3.04312        0.314701 
        4.61821         3.02983        0.311988 
        4.63391         3.01401         0.30931 
         4.6496         2.99627        0.306665 
        4.66532         2.96253        0.304047 
        4.68103         2.95151        0.301461 
        4.69673         2.93449        0.298907 
        4.71241         2.91299        0.296385 
        4.72811         2.90318        0.293888 
        4.74384         2.88962        0.291417 
        4.75955         2.87486        0.288978 
        4.77525         2.85909        0.286568 
        4.79096          2.8333        0.284182 
        4.80669         2.82274        0.281823 
         4.8224         2.81617        0.279493 
        4.83809         2.79112        0.277192 
        4.85379         2.77934        0.274915 
         4.8695          2.7652        0.272662 
        4.88521         2.74717        0.270435 
        4.90093         2.72944        0.268233 
        4.91663         2.71541        0.266057 
        4.93234         2.69858        0.263903 
        4.94807         2.68696        0.261772 
        4.96377         2.66788        0.259668 
        4.97943         2.65639        0.257591 
        4.99514         2.63576        0.255532 
        5.01086         2.61959        0.253494 
        5.02654          2.6091        0.251483 
        5.04227         2.59912        0.249488 
          5.058         2.58809        0.247514 
        5.07371         2.56727        0.245565 
        5.08942         2.55632        0.243637 
        5.10513         2.54111        0.241729 
        5.12084         2.52856         0.23984 
        5.13656          2.5168        0.237973 
        5.15225         2.49798        0.236128 
        5.16796         2.48055          0.2343 
        5.18369         2.47098        0.232489 
         5.1994          2.4633        0.230701 
        5.21509          2.4478        0.228933 
        5.23079         2.43474        0.227182 
        5.24649         2.42048         0.22545 
        5.26217         2.41371        0.223738 
        5.27788         2.38915        0.222041 
        5.29359          2.3815        0.220361 
        5.30933         2.37359        0.218696 
        5.32504         2.35476        0.217052 
        5.34073         2.34298        0.215425 
        5.35646         2.33229        0.213813 
        5.37218         2.31552        0.212216 
        5.38789         2.31244        0.210638 
        5.40357         2.29844        0.209079 
        5.41929         2.28596        0.207531 
        5.43502          2.2734        0.205999 
         5.4507          2.2629        0.204486 
        5.46639         2.25152        0.202988 
        5.48212         2.24247        0.201502 
        5.49786         2.23273        0.200028 
        5.51353         2.21312        0.198577 
        5.52921         2.20655        0.197139 
        5.54495         2.19688         0.19571 
        5.56066          2.1879        0.194298 
        5.57637         2.17466        0.192899 
        5.59207         2.16506        0.191515 
        5.60778         2.15824        0.190145 
        5.62346         2.14516         0.18879 
        5.63916         2.12859        0.187446 
        5.65487         2.12118        0.186115 
         5.6706          2.1122        0.184796 
        5.68633         2.09982        0.183489 
        5.70203         2.09021        0.182197 
        5.71773         2.08284        0.180917 
        5.73344         2.07073         0.17965 
        5.74916         2.05851        0.178393 
        5.76486          2.0544         0.17715 
        5.78054          2.0456        0.175921 
        5.79626         2.03216          0.1747 
          5.812         2.02088        0.173489 
         5.8277          2.0099        0.172293 
        5.84339         2.00239        0.171109 
        5.85911         1.99449        0.169933 
        5.87484         1.98564        0.168769 
        5.89053         1.97482        0.167618 
        5.90623         1.96596        0.166477 
        5.92195          1.9569        0.165345 
        5.93767         1.94914        0.164223 
        5.95336         1.93637        0.163114 
        5.96905         1.93047        0.162016 
        5.98476         1.91755        0.160927 
        6.00048         1.90909        0.159846 
        6.01617          1.9041        0.158778 
        6.03185         1.89538         0.15772 
        6.04756         1.88425         0.15667 
        6.06331         1.87573        0.155626 
        6.07903         1.86665        0.154595 
        6.09473         1.86446        0.153574 
        6.11044         1.85252        0.152561 
        6.12616         1.84271        0.151557 
        6.14186         1.83653        0.150563 
        6.15755         1.82678        0.149579 
        6.17326         1.81849        0.148602 
        6.18898         1.81159        0.147634 
        6.20467         1.80385        0.146676 
        6.22036         1.79448        0.145726 
         6.2361         1.78557        0.144783 
         6.2518         1.77738        0.143849 
        6.26748         1.77105        0.142925 
        6.28319         1.76471        0.142008 
        6.29893         1.76047        0.141097 
        6.31463          1.7485        0.140196 
        6.33033         1.73719        0.139303 
        6.34604         1.73153        0.138417 
        6.36177         1.72753        0.137538 
        6.37747         1.71857        0.136668 
