# k  (h/Mpc)    Pcb(k)  (Mpc/h)^3    Pcb_linear(k) (Mpc/h)^3   ShotnoiseSubtracted = true
      0.0200456         8522.95         8676.12 
      0.0350414          6150.1         6307.25 
      0.0492313         4557.53         4582.73 
      0.0637834         3880.35         3809.58 
      0.0800726         3072.79         3023.57 
       0.096163         2155.86         2193.86 
       0.111083         1712.17         1749.88 
       0.126058         1573.32         1550.75 
       0.142273            1357         1313.83 
       0.158546         1120.08         1037.65 
        0.17375         902.711         874.218 
       0.188953         864.162         791.584 
       0.204907         809.665         700.391 
       0.220756         683.429         592.573 
        0.23588         599.498         515.487 
         0.2514         526.139         468.315 
       0.267535         505.865         423.745 
       0.283568         458.203         373.686 
       0.299022         424.508         332.935 
       0.314451         393.828          304.28 
       0.330372         364.057         279.142 
       0.346141         328.278         253.364 
       0.361624         314.345         230.273 
       0.377134         293.814         211.888 
       0.392932         273.584         196.056 
       0.408854         262.236         180.726 
       0.424564         250.809         166.577 
       0.440253         238.803         154.436 
       0.455999          224.69          143.88 
       0.471626         208.156         134.178 
        0.48727         202.225         125.102 
       0.502856         194.559         116.949 
       0.518488         190.854         109.675 
       0.534347         180.981         102.912 
       0.550082          168.55         96.6767 
       0.565732         164.087          90.972 
       0.581496         156.599         85.7472 
       0.597222         151.978         80.9555 
       0.612804           145.5         76.5494 
       0.628434         141.793         72.4426 
       0.644267         136.924          68.603 
       0.660051         134.693         65.0643 
       0.675724         130.862         61.7967 
       0.691403         126.858         58.7507 
       0.707174         121.645         55.8929 
       0.722871         120.214         53.2365 
        0.73838         117.726         50.7812 
       0.754018         112.744         48.4622 
       0.769845         110.418         46.2629 
        0.78569          107.91         44.1981 
       0.801365         104.821           42.28 
       0.817031         101.125         40.4774 
       0.832809         99.8864          38.769 
       0.848511         96.7083         37.1673 
       0.864097         94.2285         35.6676 
       0.879701         92.9375         34.2496 
       0.895507         90.8449         32.8923 
       0.911279         89.4477         31.6117 
        0.92691         87.4729         30.4102 
       0.942635         85.0628         29.2648 
       0.958396         84.7159         28.1763 
       0.974128         82.4547         27.1453 
       0.989692         80.4856         26.1763 
        1.00528         78.8682         25.2534 
        1.02113         77.7319         24.3607 
        1.03692          75.247         23.5147 
        1.05264         75.1068         22.7128 
        1.06832          73.038         21.9498 
        1.08405         72.1444         21.2199 
        1.09979         71.5894          20.523 
        1.11537         68.9525         19.8643 
        1.13105         69.3235         19.2308 
        1.14679         67.9073         18.6225 
        1.16256         66.8775         18.0395 
        1.17828         65.1034         17.4834 
        1.19395         64.6145         16.9527 
         1.2097         63.0011         16.4415 
        1.22537          63.103         15.9538 
          1.241         61.4557         15.4875 
        1.25666         60.2909         15.0387 
        1.27241         59.7385         14.6057 
        1.28819         58.5555          14.189 
        1.30392         57.7386         13.7899 
        1.31957         57.1928          13.408 
        1.33529         56.2135         13.0391 
        1.35108         55.9325         12.6827 
        1.36674         55.0857         12.3422 
         1.3824         53.7841         12.0146 
        1.39811         53.5098         11.6978 
        1.41389         52.6417         11.3913 
        1.42964         51.9544         11.0963 
        1.44531         51.1304         10.8132 
        1.46101         50.2555         10.5394 
        1.47667         50.1756         10.2759 
        1.49229         49.4843         10.0222 
        1.50793         48.7442         9.77675 
        1.52367          47.994         9.53798 
        1.53953          47.631          9.3056 
        1.55526         46.9289         9.08284 
        1.57092         46.5545         8.86831 
        1.58662         45.9241         8.66021 
        1.60235         45.4134          8.4584 
        1.61809         44.6949         8.26294 
        1.63369         44.0187         8.07541 
        1.64941         43.4884         7.89236 
        1.66519          42.903         7.71435 
        1.68085          42.597          7.5431 
        1.69652         41.9729         7.37701 
        1.71228         41.7348         7.21499 
        1.72806         41.2119         7.05771 
        1.74368         40.5788         6.90672 
        1.75933         40.1672         6.75984 
        1.77505         39.8415         6.61656 
        1.79081         39.2407         6.47719 
         1.8065         38.8407         6.34243 
        1.82218          38.439         6.21164 
        1.83797         37.8977         6.08364 
        1.85367         37.3682         5.95996 
        1.86928         37.1395         5.84047 
        1.88497         36.7567         5.72361 
        1.90073         36.3927         5.60953 
        1.91647         35.9571         5.49865 
        1.93218          35.601         5.39102 
        1.94787         35.1793         5.28643 
        1.96363         34.8634          5.1842 
        1.97935         34.4097         5.08489 
        1.99499         34.0356         4.98875 
        2.01064         33.7839         4.89496 
         2.0264         33.2611         4.80299 
        2.04216         32.8701         4.71343 
        2.05781          32.499         4.62673 
        2.07353         32.2275          4.5419 
        2.08928         32.1544         4.45902 
        2.10499         31.7054         4.37842 
        2.12065         31.2556         4.30007 
        2.13633         31.1265         4.22357 
        2.15211         30.5615         4.14843 
        2.16785         30.1941         4.07534 
        2.18349         30.0656         4.00447 
        2.19916          29.797         3.93513 
        2.21489         29.3322         3.86721 
        2.23063         29.1323         3.80085 
         2.2463         28.8449         3.73634 
        2.26194         28.5895          3.6735 
        2.27765         28.2964         3.61178 
        2.29341         28.0099         3.55132 
        2.30914         27.8195         3.49236 
        2.32486         27.3882         3.43479 
        2.34061          27.249         3.37841 
        2.35635         26.9452         3.32335 
        2.37203         26.7397         3.26971 
        2.38768         26.3793         3.21737 
        2.40339         26.2942         3.16598 
        2.41914         25.9653         3.11559 
        2.43483          25.642         3.06649 
         2.4505         25.4248         3.01852 
        2.46622         25.1952         2.97141 
        2.48195          24.948         2.92531 
        2.49759         24.7212         2.88043 
        2.51328         24.4294         2.83638 
        2.52906         24.3006         2.79297 
        2.54479          23.963         2.75063 
        2.56049         23.6948         2.70926 
        2.57618         23.4556         2.66877 
        2.59189         23.3593         2.62904 
        2.60758         23.1442         2.59019 
        2.62325         22.8273         2.55217 
        2.63898         22.7773         2.51478 
        2.65468         22.4361         2.47822 
        2.67044         22.2667         2.44223 
        2.68618         21.9813         2.40704 
        2.70184         21.8555         2.37268 
        2.71755         21.6896         2.33891 
        2.73329         21.4357         2.30574 
        2.74897         21.1646         2.27333 
        2.76462         21.1274         2.24161 
        2.78034         20.9077         2.21036 
        2.79607         20.6897         2.17968 
        2.81179         20.5252         2.14962 
        2.82749         20.3277         2.12015 
        2.84321         20.1863         2.09121 
        2.85893         19.9291         2.06281 
        2.87462         19.7355         2.03499 
        2.89033         19.6369         2.00766 
        2.90605         19.4992         1.98081 
        2.92176         19.2045         1.95446 
        2.93747         19.1448         1.92861 
        2.95318         18.8815         1.90321 
        2.96891         18.7562         1.87827 
        2.98456         18.5644         1.85388 
        3.00023         18.3915         1.82988 
        3.01596         18.2982         1.80624 
        3.03164         18.1203         1.78309 
        3.04738         17.9039         1.76027 
         3.0631         17.7468         1.73786 
        3.07883         17.6069         1.71583 
        3.09456         17.4671          1.6942 
        3.11026         17.3285         1.67297 
        3.12596         17.1452          1.6521 
        3.14163         17.0486         1.63164 
        3.15734         16.8278         1.61148 
        3.17308         16.7072         1.59161 
        3.18879         16.5548         1.57213 
        3.20447         16.4212           1.553 
         3.2202         16.2512         1.53414 
         3.2359          16.129         1.51562 
        3.25157         16.0201         1.49745 
        3.26729         15.9149         1.47952 
        3.28304         15.7202         1.46185 
        3.29877         15.5386         1.44449 
        3.31446         15.4296         1.42745 
        3.33014         15.3092         1.41071 
        3.34585         15.1192          1.3942 
        3.36158          15.044         1.37794 
        3.37727         14.8772         1.36198 
        3.39294         14.7287         1.34629 
        3.40867         14.6444          1.3308 
        3.42439         14.4944         1.31555 
        3.44008         14.4117         1.30057 
        3.45578         14.2716         1.28582 
        3.47153         14.1799         1.27126 
        3.48724          14.056         1.25695 
        3.50292         13.8975          1.2429 
        3.51859         13.8344         1.22907 
        3.53431         13.7187          1.2154 
        3.55007         13.5923         1.20191 
        3.56577         13.4813         1.18868 
        3.58146         13.3839         1.17565 
        3.59719         13.2209         1.16279 
        3.61292         13.1422         1.15013 
        3.62859         13.0062          1.1377 
        3.64429         12.9074         1.12543 
        3.66003         12.8171          1.1133 
        3.67578         12.7455         1.10136 
        3.69146         12.6028         1.08963 
        3.70712         12.4871          1.0781 
        3.72284         12.4061          1.0667 
        3.73853         12.2544         1.05547 
        3.75422         12.1907         1.04441 
        3.76993         12.1132         1.03349 
        3.78564         11.9663         1.02274 
        3.80137         11.8847         1.01212 
        3.81707         11.7874         1.00167 
        3.83279         11.6697        0.991362 
        3.84853         11.6048        0.981182 
        3.86424         11.4444        0.971166 
        3.87992         11.4099        0.961303 
        3.89561          11.315        0.951577 
        3.91134         11.2431        0.941966 
        3.92704         11.1044        0.932499 
        3.94273         11.0321        0.923171 
        3.95845          10.963        0.913953 
        3.97418         10.8776        0.904859 
        3.98988         10.7591        0.895902 
        4.00554         10.7129         0.88709 
        4.02125         10.5602        0.878371 
        4.03698         10.5317        0.869756 
        4.05268         10.4233        0.861276 
        4.06839         10.3445        0.852902 
         4.0841         10.2586        0.844643 
        4.09983         10.1779        0.836481 
        4.11555         10.0887         0.82843 
        4.13124         10.0072        0.820508 
        4.14693         9.93932        0.812682 
        4.16266         9.86678         0.80494 
        4.17839          9.7688        0.797303 
        4.19408          9.7105        0.789783 
        4.20977         9.61814        0.782357 
        4.22551         9.56881        0.775008 
        4.24123         9.49114        0.767761 
        4.25691         9.41396        0.760627 
        4.27259          9.3102         0.75358 
        4.28831         9.25923        0.746609 
        4.30404         9.18233         0.73972 
        4.31974         9.13218        0.732932 
        4.33543         9.03052        0.726233 
        4.35116         8.96811        0.719602 
        4.36688         8.89862        0.713056 
        4.38255         8.83294        0.706616 
        4.39825         8.76055        0.700242 
        4.41398          8.7001        0.693933 
         4.4297         8.63038        0.687709 
        4.44541         8.57143        0.681562 
        4.46111         8.50507        0.675495 
        4.47683         8.44693        0.669498 
        4.49251         8.36668        0.663585 
        4.50819         8.29838        0.657745 
         4.5239         8.25731        0.651967 
        4.53962         8.19344        0.646252 
        4.55535         8.11249        0.640602 
        4.57106         8.05233        0.635027 
        4.58678         7.98274        0.629518 
         4.6025         7.91651        0.624073 
        4.61821         7.88225        0.618693 
        4.63391         7.83623        0.613383 
         4.6496          7.7625        0.608138 
        4.66532         7.70028        0.602946 
        4.68103         7.62922        0.597817 
        4.69673         7.58549        0.592753 
        4.71241          7.5328        0.587752 
        4.72811         7.46079          0.5828 
        4.74384         7.41981        0.577899 
        4.75955         7.36502        0.573062 
        4.77525         7.30381        0.568283 
        4.79096         7.25789        0.563553 
        4.80669          7.2008        0.558874 
         4.8224         7.15275        0.554254 
        4.83809         7.07456         0.54969 
        4.85379         7.02442        0.545176 
         4.8695         6.98578        0.540708 
        4.88521         6.94201        0.536292 
        4.90093         6.88125        0.531925 
        4.91663         6.82296         0.52761 
        4.93234         6.78518        0.523339 
        4.94807         6.72756        0.519112 
        4.96377         6.69096        0.514939 
        4.97943         6.64312        0.510821 
        4.99514         6.58595        0.506738 
        5.01086         6.53812        0.502696 
        5.02654         6.49087        0.498708 
        5.04227         6.44783        0.494752 
          5.058         6.41682        0.490837 
        5.07371         6.37036        0.486972 
        5.08942         6.31437        0.483148 
        5.10513         6.26822        0.479365 
        5.12084         6.21903         0.47562 
        5.13656         6.17957        0.471916 
        5.15225         6.14365        0.468258 
        5.16796          6.0998        0.464632 
        5.18369         6.05281        0.461042 
         5.1994         6.01091        0.457496 
        5.21509         5.96382         0.45399 
        5.23079         5.92615        0.450517 
        5.24649         5.89453        0.447083 
        5.26217         5.84963        0.443688 
        5.27788         5.80279        0.440322 
        5.29359         5.76314        0.436991 
        5.30933          5.7324         0.43369 
        5.32504         5.68997        0.430428 
        5.34073         5.64538        0.427203 
        5.35646         5.60677        0.424005 
        5.37218         5.56156        0.420839 
        5.38789         5.54399        0.417711 
        5.40357         5.49409        0.414617 
        5.41929         5.46274        0.411548 
        5.43502         5.41944         0.40851 
         5.4507         5.38447         0.40551 
        5.46639          5.3366         0.40254 
        5.48212         5.29415        0.399592 
        5.49786         5.28476         0.39667 
        5.51353         5.23041        0.393792 
        5.52921         5.20494         0.39094 
        5.54495         5.16639        0.388107 
        5.56066         5.13274        0.385305 
        5.57637          5.0999        0.382532 
        5.59207         5.05819        0.379788 
        5.60778         5.03085         0.37707 
        5.62346         4.99923        0.374383 
        5.63916          4.9658        0.371719 
        5.65487         4.92183         0.36908 
         5.6706         4.90472        0.366463 
        5.68633         4.86483        0.363871 
        5.70203         4.83199        0.361308 
        5.71773         4.80635        0.358772 
        5.73344         4.77021        0.356258 
        5.74916         4.74723        0.353765 
        5.76486         4.70957          0.3513 
        5.78054         4.67872        0.348863 
        5.79626         4.64108        0.346441 
          5.812          4.6197         0.34404 
         5.8277         4.57895        0.341669 
        5.84339         4.56767         0.33932 
        5.85911         4.54351        0.336989 
        5.87484         4.49976         0.33468 
        5.89053          4.4785        0.332397 
        5.90623         4.45285        0.330135 
        5.92195         4.41132         0.32789 
        5.93767         4.38648        0.325666 
        5.95336          4.3662        0.323467 
        5.96905         4.33367        0.321289 
        5.98476         4.30838        0.319128 
        6.00048         4.27139        0.316987 
        6.01617         4.25492        0.314867 
        6.03185         4.22431         0.31277 
        6.04756          4.2003        0.310687 
        6.06331         4.17482        0.308618 
        6.07903         4.14724        0.306572 
        6.09473         4.11698        0.304547 
        6.11044         4.09121        0.302538 
        6.12616         4.08119        0.300548 
        6.14186         4.04478        0.298578 
        6.15755         4.02449        0.296625 
        6.17326         4.00355        0.294688 
        6.18898         3.97505        0.292768 
        6.20467         3.95046        0.290868 
        6.22036         3.93046        0.288985 
         6.2361         3.90066        0.287114 
         6.2518         3.88586        0.285262 
        6.26748         3.85794        0.283431 
        6.28319         3.83283        0.281611 
        6.29893         3.80799        0.279805 
        6.31463         3.78935        0.278018 
        6.33033         3.76014        0.276247 
        6.34604         3.73849        0.274491 
        6.36177         3.71538        0.272748 
        6.37747         3.69892        0.271023 
