# k  (h/Mpc)    Pcb(k)  (Mpc/h)^3    Pcb_linear(k) (Mpc/h)^3   ShotnoiseSubtracted = true
      0.0200456         359.995         364.632 
      0.0350414         267.397         265.075 
      0.0492313         193.379         192.598 
      0.0637834         159.178         160.105 
      0.0800726         126.071         127.072 
       0.096163         93.2439         92.2016 
       0.111083         74.6038         73.5423 
       0.126058         64.9091         65.1735 
       0.142273         54.8497         55.2163 
       0.158546         43.7803         43.6093 
        0.17375         37.1464         36.7408 
       0.188953          33.356          33.268 
       0.204907         29.0257         29.4354 
       0.220756         24.9762         24.9041 
        0.23588         21.7435         21.6644 
         0.2514         19.7373         19.6819 
       0.267535         17.9029         17.8087 
       0.283568         15.7869         15.7049 
       0.299022         14.1074         13.9923 
       0.314451         13.0452          12.788 
       0.330372         11.8542         11.7315 
       0.346141         10.7686         10.6482 
       0.361624         9.77248         9.67771 
       0.377134         8.96292         8.90502 
       0.392932         8.47548         8.23964 
       0.408854         7.67614         7.59536 
       0.424564          7.1996         7.00075 
       0.440253            6.61         6.49051 
       0.455999         6.09375         6.04683 
       0.471626         5.68927          5.6391 
        0.48727         5.39766         5.25769 
       0.502856         5.05442         4.91504 
       0.518488         4.66455         4.60932 
       0.534347         4.35675          4.3251 
       0.550082         4.15524         4.06304 
       0.565732         3.95334         3.82328 
       0.581496         3.69843          3.6037 
       0.597222         3.48598         3.40232 
       0.612804         3.28734         3.21715 
       0.628434         3.12523         3.04455 
       0.644267         2.97363         2.88318 
       0.660051         2.81948         2.73446 
       0.675724         2.65759         2.59713 
       0.691403         2.53616         2.46912 
       0.707174         2.41153         2.34901 
       0.722871         2.34263         2.23737 
        0.73838         2.18826         2.13418 
       0.754018         2.08924         2.03672 
       0.769845         1.97739         1.94429 
        0.78569         1.91572         1.85752 
       0.801365         1.83507          1.7769 
       0.817031         1.76309         1.70115 
       0.832809         1.67301         1.62935 
       0.848511         1.61314         1.56203 
       0.864097         1.55522           1.499 
       0.879701         1.50347         1.43941 
       0.895507         1.42551         1.38237 
       0.911279         1.38147         1.32855 
        0.92691         1.33978         1.27805 
       0.942635         1.27041         1.22991 
       0.958396         1.22906         1.18417 
       0.974128         1.18708         1.14084 
       0.989692         1.14285         1.10011 
        1.00528         1.09864         1.06133 
        1.02113         1.07113         1.02381 
        1.03692         1.03849        0.988252 
        1.05264        0.991664        0.954554 
        1.06832        0.963068        0.922486 
        1.08405        0.925429        0.891812 
        1.09979        0.901449        0.862519 
        1.11537        0.867622        0.834838 
        1.13105        0.834623        0.808212 
        1.14679        0.815492        0.782648 
        1.16256        0.790649        0.758145 
        1.17828        0.769793        0.734775 
        1.19395        0.744706        0.712473 
         1.2097        0.720151        0.690986 
        1.22537        0.695996        0.670492 
          1.241        0.678043        0.650894 
        1.25666         0.66327        0.632034 
        1.27241         0.64105        0.613835 
        1.28819          0.6201        0.596324 
        1.30392        0.605327        0.579549 
        1.31957        0.588016        0.563497 
        1.33529         0.57072        0.547995 
        1.35108        0.554904        0.533017 
        1.36674        0.539285        0.518708 
         1.3824        0.528983        0.504939 
        1.39811        0.511451        0.491625 
        1.41389        0.500245        0.478742 
        1.42964        0.486748        0.466344 
        1.44531        0.473334        0.454446 
        1.46101        0.459346        0.442939 
        1.47667         0.44989        0.431866 
        1.49229        0.436484        0.421203 
        1.50793        0.427878        0.410888 
        1.52367        0.414927        0.400853 
        1.53953        0.404699        0.391087 
        1.55526        0.396121        0.381725 
        1.57092        0.390206        0.372709 
        1.58662        0.380211        0.363963 
        1.60235        0.370393        0.355482 
        1.61809        0.360138        0.347267 
        1.63369        0.350854        0.339385 
        1.64941        0.344531        0.331693 
        1.66519        0.337638        0.324211 
        1.68085        0.327904        0.317014 
        1.69652        0.321292        0.310034 
        1.71228         0.31334        0.303225 
        1.72806        0.307609        0.296615 
        1.74368        0.300438        0.290269 
        1.75933         0.29461        0.284096 
        1.77505         0.28892        0.278074 
        1.79081        0.280235        0.272217 
         1.8065        0.276599        0.266554 
        1.82218        0.268741        0.261057 
        1.83797        0.261976        0.255677 
        1.85367        0.258479         0.25048 
        1.86928        0.252188        0.245458 
        1.88497        0.246524        0.240547 
        1.90073        0.242116        0.235752 
        1.91647        0.237771        0.231092 
        1.93218        0.233823        0.226569 
        1.94787        0.227555        0.222173 
        1.96363         0.22347        0.217877 
        1.97935        0.218792        0.213703 
        1.99499        0.214355        0.209662 
        2.01064        0.210588        0.205721 
         2.0264        0.206466        0.201855 
        2.04216         0.20155        0.198092 
        2.05781        0.198261        0.194448 
        2.07353         0.19485        0.190883 
        2.08928        0.191626        0.187399 
        2.10499        0.186935        0.184012 
        2.12065        0.183926        0.180719 
        2.13633        0.180688        0.177504 
        2.15211        0.177529        0.174346 
        2.16785        0.173768        0.171274 
        2.18349        0.171021        0.168296 
        2.19916        0.167071        0.165382 
        2.21489        0.164009        0.162527 
        2.23063        0.161354        0.159738 
         2.2463        0.158818        0.157028 
        2.26194        0.156176        0.154386 
        2.27765        0.153004        0.151792 
        2.29341        0.150204        0.149251 
        2.30914        0.147286        0.146774 
        2.32486        0.144854        0.144354 
        2.34061         0.14239        0.141985 
        2.35635        0.140043        0.139671 
        2.37203        0.138793        0.137416 
        2.38768        0.135587        0.135216 
        2.40339        0.133365        0.133057 
        2.41914        0.131025        0.130939 
        2.43483         0.12901        0.128875 
         2.4505        0.126534        0.126859 
        2.46622        0.124635         0.12488 
        2.48195        0.122538        0.122942 
        2.49759        0.120992        0.121056 
        2.51328        0.117754        0.119205 
        2.52906         0.11659         0.11738 
        2.54479         0.11469        0.115601 
        2.56049        0.112459        0.113862 
        2.57618        0.111486         0.11216 
        2.59189        0.109048        0.110491 
        2.60758         0.10789        0.108858 
        2.62325        0.105827         0.10726 
        2.63898        0.104655        0.105689 
        2.65468        0.102419        0.104152 
        2.67044         0.10102         0.10264 
        2.68618       0.0993605        0.101161 
        2.70184       0.0982592       0.0997168 
        2.71755       0.0963799       0.0982975 
        2.73329       0.0951397       0.0969036 
        2.74897       0.0936661       0.0955413 
        2.76462        0.092038       0.0942082 
        2.78034       0.0908584       0.0928951 
        2.79607        0.089751       0.0916056 
        2.81179       0.0878399        0.090342 
        2.82749       0.0869722       0.0891038 
        2.84321       0.0856361       0.0878873 
        2.85893       0.0840994        0.086694 
        2.87462       0.0833908       0.0855248 
        2.89033       0.0817696       0.0843761 
        2.90605       0.0809074       0.0832476 
        2.92176       0.0798907       0.0821402 
        2.93747       0.0784631       0.0810536 
        2.95318       0.0776998       0.0799864 
        2.96891       0.0765265        0.078938 
        2.98456       0.0755082       0.0779129 
        3.00023       0.0746002       0.0769046 
        3.01596       0.0731349        0.075911 
        3.03164       0.0721505       0.0749378 
        3.04738       0.0713723       0.0739788 
         3.0631       0.0701348       0.0730369 
        3.07883       0.0693645       0.0721114 
        3.09456       0.0685733       0.0712021 
        3.11026       0.0674136       0.0703098 
        3.12596       0.0668613       0.0694329 
        3.14163       0.0657969        0.068573 
        3.15734       0.0651802       0.0677257 
        3.17308       0.0641535       0.0668906 
        3.18879       0.0633613       0.0660719 
        3.20447        0.062387       0.0652681 
         3.2202       0.0617569       0.0644752 
         3.2359       0.0610676       0.0636969 
        3.25157       0.0602641       0.0629332 
        3.26729        0.059435       0.0621798 
        3.28304       0.0589667       0.0614372 
        3.29877       0.0579725       0.0607077 
        3.31446       0.0572347       0.0599917 
        3.33014       0.0568249       0.0592878 
        3.34585       0.0558683       0.0585942 
        3.36158       0.0552884       0.0579106 
        3.37727       0.0545742         0.05724 
        3.39294       0.0541045       0.0565807 
        3.40867       0.0534625       0.0559294 
        3.42439        0.052858       0.0552887 
        3.44008        0.052338       0.0546593 
        3.45578       0.0518358       0.0540392 
        3.47153       0.0512713       0.0534274 
        3.48724        0.050589       0.0528261 
        3.50292       0.0501936       0.0522355 
        3.51859       0.0495255       0.0516541 
        3.53431       0.0489906       0.0510798 
        3.55007       0.0485255       0.0505129 
        3.56577       0.0480263       0.0499568 
        3.58146       0.0475315       0.0494092 
        3.59719       0.0469643       0.0488687 
        3.61292       0.0463893       0.0483364 
        3.62859       0.0459875        0.047814 
        3.64429       0.0455795       0.0472983 
        3.66003       0.0452539       0.0467887 
        3.67578       0.0448287       0.0462868 
        3.69146        0.044403       0.0457941 
        3.70712       0.0439266       0.0453095 
        3.72284       0.0433609       0.0448301 
        3.73853       0.0432149       0.0443584 
        3.75422       0.0425696       0.0438934 
        3.76993       0.0422531       0.0434347 
        3.78564       0.0419193       0.0429826 
        3.80137       0.0416068       0.0425363 
        3.81707       0.0410246       0.0420972 
        3.83279       0.0407094        0.041664 
        3.84853       0.0403453       0.0412362 
        3.86424       0.0401532       0.0408152 
        3.87992        0.039783       0.0404007 
        3.89561       0.0392434        0.039992 
        3.91134       0.0389561       0.0395881 
        3.92704       0.0385474       0.0391902 
        3.94273       0.0382173       0.0387981 
        3.95845       0.0379115       0.0384107 
        3.97418       0.0375493       0.0380286 
        3.98988       0.0370567       0.0376521 
        4.00554       0.0368283       0.0372818 
        4.02125       0.0364309       0.0369153 
        4.03698       0.0358251       0.0365533 
        4.05268       0.0355378       0.0361969 
        4.06839       0.0349557        0.035845 
         4.0841       0.0343769       0.0354978 
        4.09983       0.0338797       0.0351548 
        4.11555       0.0334329       0.0348165 
        4.13124       0.0329322       0.0344835 
        4.14693       0.0325531       0.0341546 
        4.16266       0.0319989       0.0338292 
        4.17839       0.0316939       0.0335083 
        4.19408       0.0312583       0.0331923 
        4.20977       0.0308778       0.0328801 
        4.22551       0.0305172       0.0325713 
        4.24123       0.0301121       0.0322667 
        4.25691       0.0298244       0.0319669 
        4.27259         0.02952       0.0316708 
        4.28831       0.0292228       0.0313778 
        4.30404       0.0288985       0.0310882 
        4.31974       0.0285821        0.030803 
        4.33543       0.0283024       0.0305214 
        4.35116       0.0280568       0.0302428 
        4.36688        0.027821       0.0299677 
        4.38255       0.0275617        0.029697 
        4.39825       0.0274184       0.0294291 
        4.41398       0.0271693        0.029164 
         4.4297       0.0270458       0.0289024 
        4.44541       0.0268459        0.028644 
        4.46111       0.0266245       0.0283891 
        4.47683        0.026529        0.028137 
        4.49251       0.0263881       0.0278885 
        4.50819       0.0262439       0.0276431 
         4.5239       0.0261434       0.0274003 
        4.53962        0.026102         0.02716 
        4.55535       0.0259921       0.0269226 
        4.57106       0.0259333       0.0266883 
        4.58678       0.0258663       0.0264568 
         4.6025        0.025703       0.0262279 
        4.61821       0.0257816       0.0260018 
        4.63391        0.025699       0.0257787 
         4.6496       0.0256293       0.0255583 
        4.66532       0.0256565       0.0253401 
        4.68103       0.0257926       0.0251245 
        4.69673       0.0257378       0.0249116 
        4.71241       0.0257615       0.0247015 
        4.72811       0.0257323       0.0244934 
        4.74384       0.0257788       0.0242874 
        4.75955       0.0259153       0.0240841 
        4.77525       0.0259895       0.0238833 
        4.79096       0.0260725       0.0236845 
        4.80669       0.0261917       0.0234878 
         4.8224       0.0263494       0.0232936 
        4.83809       0.0263524       0.0231019 
        4.85379       0.0266126       0.0229121 
         4.8695       0.0267219       0.0227244 
        4.88521       0.0269457       0.0225388 
        4.90093       0.0270763       0.0223552 
        4.91663       0.0273141       0.0221739 
        4.93234       0.0274049       0.0219944 
        4.94807       0.0277235       0.0218167 
        4.96377       0.0278622       0.0216414 
        4.97943       0.0282658       0.0214683 
        4.99514       0.0283393       0.0212967 
        5.01086       0.0287105       0.0211268 
        5.02654       0.0289348       0.0209592 
        5.04227       0.0292614        0.020793 
          5.058       0.0295626       0.0206284 
        5.07371       0.0298479        0.020466 
        5.08942       0.0302068       0.0203053 
        5.10513       0.0305487       0.0201463 
        5.12084       0.0309577       0.0199889 
        5.13656       0.0314623       0.0198332 
        5.15225       0.0317263       0.0196795 
        5.16796       0.0322046       0.0195271 
        5.18369       0.0326357       0.0193762 
         5.1994        0.033025       0.0192272 
        5.21509       0.0336781       0.0190799 
        5.23079       0.0339136       0.0189339 
        5.24649       0.0345526       0.0187896 
        5.26217       0.0349849       0.0186469 
        5.27788       0.0356958       0.0185054 
        5.29359       0.0362076       0.0183655 
        5.30933       0.0367449       0.0182267 
        5.32504       0.0373293       0.0180896 
        5.34073       0.0379181       0.0179541 
        5.35646       0.0384644       0.0178197 
        5.37218       0.0392061       0.0176866 
        5.38789       0.0398145       0.0175551 
        5.40357        0.040654       0.0174251 
        5.41929        0.041541       0.0172962 
        5.43502       0.0421674       0.0171685 
         5.4507       0.0428772       0.0170424 
        5.46639       0.0435522       0.0169175 
        5.48212       0.0444137       0.0167937 
        5.49786       0.0454547       0.0166709 
        5.51353       0.0464917       0.0165499 
        5.52921       0.0469728         0.01643 
        5.54495       0.0479868        0.016311 
        5.56066       0.0491232       0.0161932 
        5.57637       0.0501845       0.0160767 
        5.59207       0.0509867       0.0159614 
        5.60778       0.0518602       0.0158472 
        5.62346       0.0529413       0.0157342 
        5.63916       0.0542997       0.0156223 
        5.65487       0.0552067       0.0155113 
         5.6706       0.0561481       0.0154014 
        5.68633       0.0572651       0.0152924 
        5.70203       0.0586151       0.0151847 
        5.71773       0.0602437       0.0150781 
        5.73344       0.0616727       0.0149725 
        5.74916       0.0630457       0.0148677 
        5.76486       0.0643994       0.0147641 
        5.78054       0.0662484       0.0146617 
        5.79626       0.0670624       0.0145599 
          5.812       0.0689861        0.014459 
         5.8277       0.0700796       0.0143593 
        5.84339       0.0719071       0.0142606 
        5.85911       0.0732923       0.0141627 
        5.87484       0.0748982       0.0140656 
        5.89053       0.0772276       0.0139697 
        5.90623       0.0787124       0.0138746 
        5.92195       0.0804203       0.0137802 
        5.93767       0.0825977       0.0136868 
        5.95336       0.0839357       0.0135944 
        5.96905        0.086386       0.0135028 
        5.98476       0.0879453        0.013412 
        6.00048       0.0902676        0.013322 
        6.01617       0.0928234       0.0132329 
        6.03185       0.0945729       0.0131448 
        6.04756        0.096836       0.0130572 
        6.06331       0.0997384       0.0129703 
        6.07903        0.101324       0.0128843 
        6.09473         0.10358       0.0127992 
        6.11044        0.106733       0.0127148 
        6.12616        0.109282       0.0126311 
        6.14186        0.111484       0.0125483 
        6.15755        0.114544       0.0124663 
        6.17326        0.117101       0.0123849 
        6.18898        0.120838       0.0123042 
        6.20467        0.122889       0.0122243 
        6.22036        0.127211       0.0121452 
         6.2361        0.128876       0.0120666 
         6.2518        0.132807       0.0119887 
        6.26748        0.134924       0.0119118 
        6.28319        0.138764       0.0118353 
        6.29893        0.142585       0.0117594 
        6.31463        0.145754       0.0116843 
        6.33033        0.148937       0.0116099 
        6.34604        0.153314        0.011536 
        6.36177        0.157146       0.0114628 
        6.37747        0.160197       0.0113903 
