# k  (h/Mpc)    Pcb(k)  (Mpc/h)^3    Pcb_linear(k) (Mpc/h)^3   ShotnoiseSubtracted = true
      0.0200456         9855.61         9998.52 
      0.0350414         7451.17         7268.59 
      0.0492313         5242.88         5281.22 
      0.0637834         4247.55         4390.23 
      0.0800726         3348.65         3484.42 
       0.096163         2611.46         2528.25 
       0.111083          2119.7         2016.59 
       0.126058         1772.39         1787.11 
       0.142273         1523.33         1514.08 
       0.158546         1249.26          1195.8 
        0.17375         1088.72         1007.46 
       0.188953         1003.49         912.236 
       0.204907          855.71         807.143 
       0.220756         765.613         682.892 
        0.23588         678.852         594.057 
         0.2514         607.888         539.694 
       0.267535          587.28         488.331 
       0.283568         512.194         430.642 
       0.299022         486.438          383.68 
       0.314451         485.783         350.657 
       0.330372         417.925         321.689 
       0.346141         387.293         291.982 
       0.361624         368.569         265.371 
       0.377134         341.942         244.183 
       0.392932          332.55         225.938 
       0.408854         315.447         208.271 
       0.424564         303.528         191.967 
       0.440253         273.918         177.975 
       0.455999         260.924         165.809 
       0.471626         259.024         154.629 
        0.48727          246.94          144.17 
       0.502856         225.608         134.775 
       0.518488         225.823         126.391 
       0.534347         209.847         118.598 
       0.550082         204.831         111.412 
       0.565732         202.654         104.838 
       0.581496         189.167         98.8166 
       0.597222         184.816         93.2946 
       0.612804         179.178         88.2169 
       0.628434         173.424         83.4841 
       0.644267          165.16         79.0593 
       0.660051         161.217         74.9812 
       0.675724         159.491         71.2156 
       0.691403         155.319         67.7053 
       0.707174         149.957          64.412 
       0.722871         147.548         61.3507 
        0.73838         145.464         58.5212 
       0.754018         136.687         55.8488 
       0.769845         136.454         53.3142 
        0.78569         132.807         50.9347 
       0.801365          128.76         48.7242 
       0.817031         125.136         46.6469 
       0.832809         123.014         44.6781 
       0.848511         120.102         42.8323 
       0.864097          118.01          41.104 
       0.879701         116.298         39.4698 
       0.895507         112.575         37.9057 
       0.911279         110.181         36.4299 
        0.92691         107.689         35.0453 
       0.942635         105.489         33.7253 
       0.958396         104.532         32.4709 
       0.974128         102.211         31.2828 
       0.989692         99.9153         30.1661 
        1.00528         98.4402         29.1025 
        1.02113          95.865         28.0738 
        1.03692         95.6388         27.0987 
        1.05264          94.307         26.1747 
        1.06832         91.1923         25.2954 
        1.08405         90.4746         24.4542 
        1.09979         89.6988          23.651 
        1.11537         87.2422          22.892 
        1.13105          86.102         22.1619 
        1.14679         84.7204         21.4609 
        1.16256         83.0074          20.789 
        1.17828         82.3086         20.1482 
        1.19395         80.0624         19.5366 
         1.2097         80.0733         18.9474 
        1.22537         78.1336         18.3855 
          1.241         77.9245         17.8481 
        1.25666         75.1682         17.3309 
        1.27241         74.8497         16.8319 
        1.28819         74.2578         16.3517 
        1.30392         72.7351         15.8917 
        1.31957          72.177         15.4516 
        1.33529         71.1212         15.0265 
        1.35108         70.5235         14.6158 
        1.36674         69.3536         14.2234 
         1.3824           68.62         13.8459 
        1.39811           67.07         13.4808 
        1.41389         66.1063         13.1275 
        1.42964         65.4573         12.7875 
        1.44531         64.7939         12.4613 
        1.46101         64.1578         12.1458 
        1.47667         63.1347         11.8421 
        1.49229         62.3604         11.5497 
        1.50793         61.6472         11.2669 
        1.52367         61.1495         10.9917 
        1.53953         60.1377         10.7239 
        1.55526         59.1706         10.4672 
        1.57092         59.0046           10.22 
        1.58662         58.1268         9.98018 
        1.60235         57.3427         9.74762 
        1.61809         56.3572         9.52236 
        1.63369         55.7268         9.30624 
        1.64941         55.4278          9.0953 
        1.66519         54.1445         8.89015 
        1.68085         53.9124          8.6928 
        1.69652         52.7733          8.5014 
        1.71228         52.5664         8.31468 
        1.72806           51.93         8.13344 
        1.74368         51.2159         7.95942 
        1.75933         50.8637         7.79016 
        1.77505         50.3379         7.62504 
        1.79081         49.6351         7.46443 
         1.8065         49.1639         7.30913 
        1.82218         47.8796          7.1584 
        1.83797         47.6063          7.0109 
        1.85367          47.271         6.86837 
        1.86928         46.9251         6.73067 
        1.88497         46.0341           6.596 
        1.90073         45.4754         6.46452 
        1.91647         45.3349         6.33675 
        1.93218         45.0617         6.21271 
        1.94787         44.2637         6.09217 
        1.96363         43.5678         5.97437 
        1.97935         43.2643         5.85992 
        1.99499         42.7398         5.74912 
        2.01064         42.1789         5.64104 
         2.0264         42.0405         5.53505 
        2.04216         41.4061         5.43185 
        2.05781         40.9173         5.33193 
        2.07353         40.2785         5.23417 
        2.08928         40.2522         5.13865 
        2.10499          39.827         5.04578 
        2.12065         39.2708         4.95548 
        2.13633         39.0716         4.86731 
        2.15211         38.4089         4.78073 
        2.16785         37.8504         4.69649 
        2.18349         37.5396         4.61482 
        2.19916          37.172         4.53492 
        2.21489         36.9398         4.45664 
        2.23063         36.4646         4.38017 
         2.2463         36.2246         4.30583 
        2.26194         35.6845         4.23341 
        2.27765         35.2971         4.16228 
        2.29341         34.9158          4.0926 
        2.30914         34.5878         4.02466 
        2.32486         34.0741         3.95831 
        2.34061         33.8901         3.89334 
        2.35635         33.5718         3.82989 
        2.37203          33.267         3.76807 
        2.38768         32.9755         3.70775 
        2.40339         32.7183         3.64853 
        2.41914         32.3445         3.59047 
        2.43483         32.0495         3.53387 
         2.4505         31.6971         3.47859 
        2.46622         31.3084         3.42431 
        2.48195          31.146         3.37118 
        2.49759         30.6422         3.31946 
        2.51328         30.3672          3.2687 
        2.52906          30.205         3.21867 
        2.54479         29.8514         3.16988 
        2.56049         29.7128          3.1222 
        2.57618         29.2982         3.07553 
        2.59189         28.9855         3.02976 
        2.60758         28.7174         2.98498 
        2.62325         28.4601         2.94117 
        2.63898         28.3018         2.89808 
        2.65468         27.8679         2.85595 
        2.67044         27.6745         2.81447 
        2.68618          27.421         2.77392 
        2.70184         27.0877         2.73432 
        2.71755         26.8634          2.6954 
        2.73329         26.5841         2.65718 
        2.74897         26.3347         2.61983 
        2.76462         26.1476         2.58327 
        2.78034         25.7989         2.54726 
        2.79607          25.591          2.5119 
        2.81179         25.3656         2.47726 
        2.82749         25.1136          2.4433 
        2.84321         24.8717         2.40995 
        2.85893         24.6925         2.37722 
        2.87462         24.4647         2.34516 
        2.89033         24.2245         2.31367 
        2.90605         23.9541         2.28272 
        2.92176         23.7146         2.25236 
        2.93747          23.533         2.22256 
        2.95318         23.4242          2.1933 
        2.96891         23.1014         2.16455 
        2.98456         22.9198         2.13644 
        3.00023         22.6049         2.10879 
        3.01596         22.3143         2.08155 
        3.03164           22.21         2.05486 
        3.04738         22.0637         2.02856 
         3.0631         21.8415         2.00274 
        3.07883         21.5862         1.97736 
        3.09456         21.3912         1.95242 
        3.11026         21.1552         1.92796 
        3.12596         20.9347         1.90391 
        3.14163         20.7917         1.88033 
        3.15734         20.6425          1.8571 
        3.17308         20.4058          1.8342 
        3.18879         20.2314         1.81175 
        3.20447         20.1226         1.78971 
         3.2202          19.845         1.76797 
         3.2359         19.6517         1.74662 
        3.25157         19.4796         1.72568 
        3.26729         19.3545         1.70502 
        3.28304         19.1889         1.68466 
        3.29877         19.0315         1.66466 
        3.31446          18.839         1.64502 
        3.33014         18.6096         1.62572 
        3.34585         18.5584          1.6067 
        3.36158         18.2845         1.58796 
        3.37727         18.1784         1.56957 
        3.39294         18.0228         1.55149 
        3.40867         17.8581         1.53363 
        3.42439         17.6496         1.51606 
        3.44008         17.4959         1.49881 
        3.45578         17.3466          1.4818 
        3.47153         17.2244         1.46503 
        3.48724          17.079         1.44854 
        3.50292         16.9258         1.43234 
        3.51859         16.7825          1.4164 
        3.53431         16.6161         1.40065 
        3.55007         16.4582         1.38511 
        3.56577         16.3691         1.36986 
        3.58146         16.1797         1.35484 
        3.59719         16.0533         1.34002 
        3.61292         15.9219         1.32543 
        3.62859         15.7221          1.3111 
        3.64429         15.6205         1.29696 
        3.66003         15.5302         1.28299 
        3.67578          15.438         1.26922 
        3.69146         15.2456         1.25571 
        3.70712         15.1169         1.24243 
        3.72284          14.965         1.22928 
        3.73853         14.8954         1.21635 
        3.75422         14.6694          1.2036 
        3.76993         14.5912         1.19102 
        3.78564         14.4715         1.17862 
        3.80137         14.3348         1.16638 
        3.81707         14.1783         1.15434 
        3.83279         14.1376         1.14246 
        3.84853         13.9788         1.13073 
        3.86424          13.828         1.11919 
        3.87992         13.7686         1.10782 
        3.89561         13.6204         1.09661 
        3.91134         13.5352         1.08554 
        3.92704         13.4048         1.07463 
        3.94273         13.2994         1.06388 
        3.95845         13.1913         1.05326 
        3.97418         13.0489         1.04278 
        3.98988         12.9706         1.03245 
        4.00554          12.843          1.0223 
        4.02125         12.7459         1.01225 
        4.03698         12.6745         1.00232 
        4.05268         12.5335        0.992549 
        4.06839         12.4087          0.9829 
         4.0841         12.3352        0.973381 
        4.09983         12.2013        0.963976 
        4.11555         12.1187        0.954698 
        4.13124         12.0047        0.945568 
        4.14693         11.9282        0.936549 
        4.16266         11.8175        0.927627 
        4.17839          11.714        0.918827 
        4.19408         11.6512         0.91016 
        4.20977         11.5368        0.901602 
        4.22551         11.4528        0.893133 
        4.24123         11.3713        0.884782 
        4.25691         11.2494         0.87656 
        4.27259         11.1564         0.86844 
        4.28831         11.0975        0.860406 
        4.30404         10.9865        0.852466 
        4.31974         10.9109        0.844644 
        4.33543         10.7811        0.836924 
        4.35116         10.7475        0.829283 
        4.36688         10.6298        0.821739 
        4.38255         10.5299        0.814317 
        4.39825         10.4712        0.806971 
        4.41398         10.3977        0.799701 
         4.4297         10.2914        0.792528 
        4.44541         10.2373        0.785445 
        4.46111         10.1336        0.778453 
        4.47683         10.0414        0.771541 
        4.49251         9.96891        0.764727 
        4.50819         9.89575        0.757997 
         4.5239         9.83943        0.751339 
        4.53962          9.7389        0.744752 
        4.55535         9.67323        0.738241 
        4.57106         9.61532        0.731817 
        4.58678         9.53176        0.725468 
         4.6025         9.46448        0.719193 
        4.61821         9.39409        0.712993 
        4.63391         9.29411        0.706874 
         4.6496         9.22018        0.700829 
        4.66532         9.17754        0.694846 
        4.68103         9.07038        0.688935 
        4.69673         9.01683        0.683099 
        4.71241         8.94931        0.677336 
        4.72811         8.87463        0.671629 
        4.74384         8.83438        0.665982 
        4.75955          8.7468        0.660407 
        4.77525         8.68161          0.6549 
        4.79096         8.62253        0.649449 
        4.80669         8.54197        0.644057 
         4.8224         8.48673        0.638732 
        4.83809         8.42354        0.633473 
        4.85379         8.37461         0.62827 
         4.8695          8.3003        0.623121 
        4.88521         8.22093        0.618033 
        4.90093         8.19361           0.613 
        4.91663         8.10864        0.608027 
        4.93234         8.05824        0.603105 
        4.94807         8.00141        0.598234 
        4.96377         7.93662        0.593425 
        4.97943         7.87251         0.58868 
        4.99514         7.82426        0.583974 
        5.01086         7.76731        0.579316 
        5.02654         7.70257         0.57472 
        5.04227         7.63402        0.570161 
          5.058         7.59333        0.565649 
        5.07371          7.5565        0.561195 
        5.08942         7.46201        0.556788 
        5.10513         7.41478        0.552428 
        5.12084         7.35819        0.548113 
        5.13656         7.31562        0.543844 
        5.15225         7.26224        0.539628 
        5.16796         7.20764         0.53545 
        5.18369         7.16346        0.531313 
         5.1994         7.12046        0.527226 
        5.21509         7.05887        0.523186 
        5.23079         6.98701        0.519184 
        5.24649         6.96292        0.515227 
        5.26217         6.91442        0.511314 
        5.27788         6.85999        0.507435 
        5.29359         6.81282        0.503597 
        5.30933         6.74537        0.499792 
        5.32504         6.71845        0.496033 
        5.34073         6.66289        0.492317 
        5.35646         6.62962        0.488631 
        5.37218         6.58186        0.484983 
        5.38789          6.5284        0.481377 
        5.40357         6.47943        0.477812 
        5.41929         6.45137        0.474276 
        5.43502         6.39488        0.470775 
         5.4507         6.34834        0.467317 
        5.46639         6.29944        0.463894 
        5.48212         6.25557        0.460497 
        5.49786         6.21728         0.45713 
        5.51353         6.18258        0.453813 
        5.52921         6.13312        0.450526 
        5.54495         6.08999        0.447261 
        5.56066         6.05423        0.444033 
        5.57637         6.00809        0.440837 
        5.59207         5.95278        0.437675 
        5.60778          5.9403        0.434543 
        5.62346         5.88863        0.431446 
        5.63916         5.84861        0.428376 
        5.65487         5.79871        0.425334 
         5.6706         5.77103        0.422318 
        5.68633         5.73186        0.419331 
        5.70203         5.69444        0.416378 
        5.71773         5.65375        0.413455 
        5.73344         5.62439        0.410558 
        5.74916         5.57909        0.407686 
        5.76486          5.5488        0.404845 
        5.78054         5.49901        0.402036 
        5.79626         5.47336        0.399245 
          5.812         5.43087        0.396478 
         5.8277         5.39562        0.393746 
        5.84339         5.36108        0.391039 
        5.85911         5.32406        0.388352 
        5.87484         5.29508        0.385692 
        5.89053         5.24635        0.383061 
        5.90623         5.22664        0.380453 
        5.92195         5.19713        0.377866 
        5.93767         5.14686        0.375304 
        5.95336         5.11784        0.372769 
        5.96905         5.08101         0.37026 
        5.98476         5.05751        0.367769 
        6.00048         5.02283        0.365301 
        6.01617         4.99091        0.362859 
        6.03185         4.96719        0.360442 
        6.04756         4.93631        0.358041 
        6.06331         4.88997        0.355657 
        6.07903         4.86041        0.353299 
        6.09473         4.83191        0.350965 
        6.11044         4.79354        0.348651 
        6.12616         4.76749        0.346357 
        6.14186         4.73642        0.344086 
        6.15755         4.70758        0.341836 
        6.17326         4.68219        0.339604 
        6.18898         4.65912        0.337391 
        6.20467         4.62223        0.335202 
        6.22036         4.59596        0.333032 
         6.2361         4.56109        0.330875 
         6.2518         4.53717        0.328741 
        6.26748         4.51138        0.326631 
        6.28319         4.48309        0.324533 
        6.29893         4.44823        0.322452 
        6.31463         4.43103        0.320393 
        6.33033         4.39984        0.318352 
        6.34604         4.37106        0.316328 
        6.36177         4.34702        0.314319 
        6.37747         4.32213        0.312332 
