# k  (h/Mpc)    Pcb(k)  (Mpc/h)^3    Pcb_linear(k) (Mpc/h)^3   ShotnoiseSubtracted = true
      0.0200456         14970.3           15283 
      0.0350414         10707.9         11110.2 
      0.0492313         7963.83         8072.48 
      0.0637834         6843.86         6710.58 
      0.0800726         5409.48         5326.02 
       0.096163         3765.79         3864.49 
       0.111083         3005.68         3082.42 
       0.126058         2771.77         2731.65 
       0.142273         2397.24         2314.31 
       0.158546         2041.69         1827.82 
        0.17375         1633.13         1539.94 
       0.188953         1586.42         1394.38 
       0.204907         1491.09         1233.74 
       0.220756          1278.4         1043.82 
        0.23588         1131.57         908.031 
         0.2514         984.751         824.937 
       0.267535         971.852         746.426 
       0.283568         881.157         658.248 
       0.299022         826.977         586.465 
       0.314451         784.302         535.989 
       0.330372         722.228          491.71 
       0.346141         666.809         446.302 
       0.361624         641.182         405.627 
       0.377134         595.099         373.241 
       0.392932         571.119         345.352 
       0.408854         551.284         318.348 
       0.424564         518.021         293.426 
       0.440253         506.983          272.04 
       0.455999         478.712         253.444 
       0.471626         453.054         236.354 
        0.48727         437.514         220.368 
       0.502856         424.709         206.007 
       0.518488         420.476         193.193 
       0.534347         392.972          181.28 
       0.550082         375.034         170.296 
       0.565732         373.543         160.247 
       0.581496          351.65         151.044 
       0.597222         346.035         142.603 
       0.612804         335.706         134.842 
       0.628434         322.969         127.608 
       0.644267          313.84         120.844 
       0.660051         306.911         114.611 
       0.675724         302.364         108.855 
       0.691403         293.182         103.489 
       0.707174         282.613         98.4554 
       0.722871         279.097         93.7762 
        0.73838         274.725         89.4512 
       0.754018         267.237         85.3663 
       0.769845         258.316         81.4921 
        0.78569         258.059         77.8551 
       0.801365         248.975         74.4762 
       0.817031         241.388          71.301 
       0.832809          239.33         68.2917 
       0.848511         232.769         65.4703 
       0.864097         229.608         62.8285 
       0.879701         225.739         60.3307 
       0.895507         220.258         57.9398 
       0.911279         213.301         55.6841 
        0.92691         213.339         53.5676 
       0.942635         207.856         51.5501 
       0.958396         205.938         49.6326 
       0.974128         201.526         47.8165 
       0.989692         196.933         46.1097 
        1.00528         194.524          44.484 
        1.02113         192.824         42.9115 
        1.03692         187.668         41.4211 
        1.05264         183.941         40.0087 
        1.06832         180.779         38.6646 
        1.08405         177.757          37.379 
        1.09979         176.158         36.1512 
        1.11537         171.786          34.991 
        1.13105         169.008          33.875 
        1.14679         169.027         32.8035 
        1.16256         165.861         31.7765 
        1.17828         162.454          30.797 
        1.19395         160.015         29.8622 
         1.2097         159.206         28.9616 
        1.22537         155.773         28.1027 
          1.241         153.999         27.2813 
        1.25666         151.238         26.4908 
        1.27241          148.62          25.728 
        1.28819         147.019          24.994 
        1.30392         144.582         24.2909 
        1.31957           143.8         23.6181 
        1.33529         139.826         22.9684 
        1.35108         138.974         22.3406 
        1.36674         137.594         21.7409 
         1.3824         134.995         21.1638 
        1.39811         134.544         20.6057 
        1.41389         131.831         20.0658 
        1.42964         129.106         19.5461 
        1.44531         127.054         19.0474 
        1.46101         125.721         18.5651 
        1.47667         123.976          18.101 
        1.49229         122.351         17.6541 
        1.50793         121.374         17.2218 
        1.52367         119.895         16.8012 
        1.53953         117.382         16.3918 
        1.55526         116.257         15.9994 
        1.57092         114.844         15.6215 
        1.58662         112.949          15.255 
        1.60235         112.212         14.8995 
        1.61809         110.079         14.5552 
        1.63369         109.061         14.2248 
        1.64941         108.058         13.9024 
        1.66519         105.949         13.5888 
        1.68085         105.334         13.2872 
        1.69652         102.683         12.9946 
        1.71228         102.775         12.7092 
        1.72806         101.366         12.4322 
        1.74368         100.082         12.1662 
        1.75933         98.6351         11.9075 
        1.77505         97.4835         11.6551 
        1.79081         96.1825         11.4096 
         1.8065         94.9872         11.1722 
        1.82218         93.2733         10.9418 
        1.83797         92.0529         10.7163 
        1.85367         91.2241         10.4985 
        1.86928         90.4417          10.288 
        1.88497         88.6747         10.0822 
        1.90073          88.268         9.88119 
        1.91647         86.9394         9.68588 
        1.93218         85.8194         9.49628 
        1.94787         85.0712         9.31205 
        1.96363         83.6508         9.13198 
        1.97935         82.6581         8.95704 
        1.99499         81.8902         8.78769 
        2.01064         80.9722         8.62247 
         2.0264         79.4871         8.46047 
        2.04216         78.7413         8.30272 
        2.05781         77.7656         8.14999 
        2.07353         76.3688         8.00056 
        2.08928         75.4568         7.85456 
        2.10499         74.6496          7.7126 
        2.12065         74.2924         7.57458 
        2.13633         73.2978         7.43982 
        2.15211         72.3902         7.30747 
        2.16785         71.4003         7.17871 
        2.18349         70.5335         7.05387 
        2.19916         69.7653         6.93174 
        2.21489         68.9106          6.8121 
        2.23063         68.2293          6.6952 
         2.2463         67.3301         6.58157 
        2.26194          66.969         6.47087 
        2.27765         66.0132         6.36215 
        2.29341         65.1099         6.25565 
        2.30914         64.1848          6.1518 
        2.32486          63.443         6.05038 
        2.34061         62.7793         5.95107 
        2.35635         62.1389         5.85409 
        2.37203          61.153          5.7596 
        2.38768         60.5318         5.66739 
        2.40339         59.8477         5.57687 
        2.41914         59.3107         5.48812 
        2.43483         58.9939         5.40162 
         2.4505         58.1439         5.31712 
        2.46622         57.4641         5.23415 
        2.48195         56.7425         5.15294 
        2.49759         55.8966         5.07389 
        2.51328         55.3973         4.99629 
        2.52906         54.9747         4.91982 
        2.54479         54.2648         4.84525 
        2.56049          53.514         4.77236 
        2.57618         53.0937         4.70103 
        2.59189         52.4004         4.63106 
        2.60758         52.0759         4.56262 
        2.62325         51.3697         4.49565 
        2.63898         50.8784         4.42979 
        2.65468         50.3897         4.36539 
        2.67044         49.5888         4.30199 
        2.68618          49.266            4.24 
        2.70184         48.5513         4.17948 
        2.71755         48.3849         4.11999 
        2.73329         47.4839         4.06157 
        2.74897         47.0782         4.00447 
        2.76462         46.5521          3.9486 
        2.78034         46.2105         3.89356 
        2.79607         45.5097         3.83951 
        2.81179         45.0726         3.78655 
        2.82749         44.4737         3.73465 
        2.84321         44.1324         3.68367 
        2.85893         43.5977         3.63365 
        2.87462         43.0803         3.58464 
        2.89033         42.6315          3.5365 
        2.90605          42.225          3.4892 
        2.92176         41.8118         3.44279 
        2.93747         41.3809         3.39724 
        2.95318         40.8822         3.35251 
        2.96891         40.3239         3.30857 
        2.98456         40.1576          3.2656 
        3.00023         39.6326         3.22334 
        3.01596         39.3194          3.1817 
        3.03164         38.7573         3.14091 
        3.04738         38.5459         3.10071 
         3.0631         38.0312         3.06123 
        3.07883         37.6765         3.02244 
        3.09456         37.2491         2.98433 
        3.11026         36.7848         2.94693 
        3.12596         36.5977         2.91018 
        3.14163         36.1231         2.87414 
        3.15734         35.5512         2.83862 
        3.17308         35.4981         2.80362 
        3.18879         35.2348         2.76931 
        3.20447         34.6867         2.73562 
         3.2202         34.2492         2.70238 
         3.2359          33.969         2.66976 
        3.25157         33.6241         2.63775 
        3.26729         33.3195         2.60617 
        3.28304         32.9062         2.57505 
        3.29877         32.6854         2.54447 
        3.31446         32.4118         2.51446 
        3.33014         32.0118         2.48496 
        3.34585         31.7572         2.45589 
        3.36158         31.4335         2.42724 
        3.37727         31.0857         2.39913 
        3.39294         30.7852          2.3715 
        3.40867         30.5001          2.3442 
        3.42439         30.2148         2.31734 
        3.44008         30.0845         2.29096 
        3.45578         29.5273         2.26497 
        3.47153         29.2884         2.23933 
        3.48724         29.0621         2.21413 
        3.50292         28.7557         2.18937 
        3.51859         28.5104         2.16501 
        3.53431          28.281         2.14094 
        3.55007         28.0016         2.11717 
        3.56577         27.7291         2.09386 
        3.58146         27.4862         2.07091 
        3.59719         27.1588         2.04826 
        3.61292         26.9542         2.02595 
        3.62859         26.6658         2.00405 
        3.64429         26.3359         1.98244 
        3.66003         26.1084         1.96108 
        3.67578         25.9419         1.94004 
        3.69146         25.7225         1.91939 
        3.70712         25.4499         1.89908 
        3.72284         25.3156         1.87899 
        3.73853         25.0338         1.85922 
        3.75422         24.7591         1.83973 
        3.76993         24.6143          1.8205 
        3.78564          24.305         1.80155 
        3.80137         24.1402         1.78285 
        3.81707         23.9293         1.76444 
        3.83279         23.6798         1.74629 
        3.84853         23.3563         1.72835 
        3.86424         23.1685         1.71071 
        3.87992         22.9867         1.69334 
        3.89561         22.7847          1.6762 
        3.91134         22.6032         1.65927 
        3.92704         22.3968          1.6426 
        3.94273         22.1611         1.62617 
        3.95845         21.9298         1.60993 
        3.97418         21.8102         1.59391 
        3.98988          21.574         1.57813 
        4.00554         21.3892         1.56261 
        4.02125          21.267         1.54725 
        4.03698         20.9922         1.53208 
        4.05268         20.8308         1.51714 
        4.06839         20.6174         1.50239 
         4.0841         20.5077         1.48784 
        4.09983         20.3287         1.47346 
        4.11555         20.1535         1.45928 
        4.13124         19.8599         1.44532 
        4.14693         19.7055         1.43154 
        4.16266         19.5562          1.4179 
        4.17839         19.3777         1.40445 
        4.19408          19.179          1.3912 
        4.20977         19.1051         1.37812 
        4.22551         18.8991         1.36518 
        4.24123         18.7327         1.35241 
        4.25691         18.5859         1.33984 
        4.27259         18.4198         1.32743 
        4.28831         18.2428         1.31515 
        4.30404         18.0681         1.30302 
        4.31974         17.9301         1.29106 
        4.33543         17.8109         1.27926 
        4.35116         17.6682         1.26758 
        4.36688          17.478         1.25605 
        4.38255         17.3514         1.24471 
        4.39825         17.2443         1.23348 
        4.41398         17.0345         1.22236 
         4.4297         16.9078          1.2114 
        4.44541         16.8024         1.20057 
        4.46111         16.6353         1.18989 
        4.47683         16.4946         1.17932 
        4.49251         16.3886         1.16891 
        4.50819         16.2247         1.15862 
         4.5239         16.1252         1.14844 
        4.53962         15.9501         1.13837 
        4.55535          15.834         1.12842 
        4.57106         15.6829          1.1186 
        4.58678         15.6045          1.1089 
         4.6025          15.449         1.09931 
        4.61821         15.3253         1.08983 
        4.63391         15.2007         1.08048 
         4.6496         15.0679         1.07124 
        4.66532         14.9245         1.06209 
        4.68103         14.8068         1.05306 
        4.69673         14.7444         1.04413 
        4.71241         14.6124         1.03533 
        4.72811         14.4606          1.0266 
        4.74384          14.371         1.01797 
        4.75955         14.2552         1.00945 
        4.77525         14.1595         1.00103 
        4.79096          14.021        0.992699 
        4.80669         13.9146        0.984458 
         4.8224         13.7838        0.976319 
        4.83809         13.6859         0.96828 
        4.85379         13.5555        0.960328 
         4.8695         13.5143        0.952457 
        4.88521         13.3768        0.944679 
        4.90093         13.2692        0.936986 
        4.91663         13.1939        0.929386 
        4.93234         13.0491        0.921862 
        4.94807         12.9641        0.914416 
        4.96377         12.8347        0.907066 
        4.97943         12.7682        0.899812 
        4.99514         12.6375        0.892619 
        5.01086         12.5828        0.885499 
        5.02654         12.4407        0.878475 
        5.04227         12.3803        0.871506 
          5.058         12.2769         0.86461 
        5.07371         12.1871        0.857802 
        5.08942         12.0781        0.851066 
        5.10513         12.0091        0.844401 
        5.12084         11.8945        0.837805 
        5.13656         11.8178         0.83128 
        5.15225         11.7015        0.824836 
        5.16796         11.6582         0.81845 
        5.18369         11.5344        0.812125 
         5.1994         11.4702        0.805879 
        5.21509         11.3706        0.799704 
        5.23079          11.299        0.793587 
        5.24649         11.2104        0.787538 
        5.26217         11.1115        0.781556 
        5.27788         11.0286        0.775628 
        5.29359         10.9826        0.769761 
        5.30933          10.884        0.763945 
        5.32504         10.8258        0.758199 
        5.34073         10.7249        0.752519 
        5.35646         10.6504        0.746886 
        5.37218         10.5628        0.741309 
        5.38789         10.4918        0.735798 
        5.40357         10.4161        0.730349 
        5.41929         10.3378        0.724943 
        5.43502         10.2912        0.719591 
         5.4507         10.1867        0.714306 
        5.46639         10.1308        0.709074 
        5.48212         10.0786        0.703881 
        5.49786         9.97155        0.698735 
        5.51353         9.91563        0.693665 
        5.52921         9.82959         0.68864 
        5.54495         9.75221        0.683651 
        5.56066          9.6842        0.678716 
        5.57637         9.60586        0.673831 
        5.59207         9.56372        0.668998 
        5.60778         9.48264         0.66421 
        5.62346         9.43395        0.659476 
        5.63916         9.34802        0.654784 
        5.65487         9.28929        0.650134 
         5.6706         9.22773        0.645525 
        5.68633         9.15473        0.640958 
        5.70203          9.1093        0.636445 
        5.71773         9.04202        0.631976 
        5.73344         8.96715        0.627548 
        5.74916         8.90945        0.623158 
        5.76486         8.84104        0.618816 
        5.78054          8.7855        0.614522 
        5.79626         8.72271        0.610257 
          5.812         8.66374        0.606028 
         5.8277         8.59564        0.601851 
        5.84339         8.54856        0.597713 
        5.85911         8.48631        0.593607 
        5.87484         8.41449         0.58954 
        5.89053         8.36528        0.585519 
        5.90623         8.29766        0.581533 
        5.92195         8.25632        0.577578 
        5.93767         8.20004        0.573661 
        5.95336         8.14198        0.569788 
        5.96905         8.08315        0.565951 
        5.98476         8.04256        0.562145 
        6.00048         7.98139        0.558372 
        6.01617         7.94003        0.554639 
        6.03185         7.87444        0.550944 
        6.04756          7.8144        0.547275 
        6.06331          7.7722        0.543631 
        6.07903         7.71842        0.540027 
        6.09473         7.66293         0.53646 
        6.11044         7.62277        0.532922 
        6.12616         7.55863        0.529416 
        6.14186         7.49926        0.525945 
        6.15755           7.448        0.522505 
        6.17326         7.41859        0.519094 
        6.18898          7.3603        0.515711 
        6.20467         7.31286        0.512364 
        6.22036         7.26391        0.509048 
         6.2361         7.21112        0.505752 
         6.2518         7.17361         0.50249 
        6.26748         7.11417        0.499264 
        6.28319         7.07477        0.496058 
        6.29893         7.03175        0.492877 
        6.31463         6.98678        0.489729 
        6.33033         6.94668         0.48661 
        6.34604         6.90029        0.483515 
        6.36177         6.84423        0.480445 
        6.37747         6.81187        0.477407 
