# k  (h/Mpc)    Pcb(k)  (Mpc/h)^3    Pcb_linear(k) (Mpc/h)^3   ShotnoiseSubtracted = true
      0.0200456           12797         11114.5 
      0.0350414         8859.34          7939.8 
      0.0492313         6084.02          5752.8 
      0.0637834         4668.15          4791.2 
      0.0800726         3573.61          3758.1 
       0.096163         2627.99         2702.71 
       0.111083         2311.01         2174.95 
       0.126058         1993.97         1935.06 
       0.142273         1631.97         1616.12 
       0.158546          1385.9          1268.9 
        0.17375         1154.88          1081.4 
       0.188953         1057.44         982.367 
       0.204907         887.798         859.133 
       0.220756         842.946         722.834 
        0.23588         732.789         634.126 
         0.2514          663.08         578.628 
       0.267535         618.569         519.529 
       0.283568         563.217         455.842 
       0.299022         499.546         408.119 
       0.314451         491.439         374.385 
       0.330372         444.372         342.104 
       0.346141         423.317         309.302 
       0.361624         385.155          281.63 
       0.377134         365.217          259.83 
       0.392932         346.993         240.094 
       0.408854         332.912         220.752 
       0.424564         305.224          203.52 
       0.440253         300.202          188.97 
       0.455999         279.655         176.009 
       0.471626         276.442         163.906 
        0.48727         252.308         152.768 
       0.502856         245.417         142.907 
       0.518488         239.127         134.024 
       0.534347         221.538         125.686 
       0.550082         219.517          118.02 
       0.565732         210.027         111.079 
       0.581496         201.902         104.704 
       0.597222         192.715         98.8287 
       0.612804         188.987         93.4224 
       0.628434         183.627         88.4052 
       0.644267         177.363         83.7217 
       0.660051         172.794         79.3959 
       0.675724         164.359            75.4 
       0.691403         162.924         71.6756 
       0.707174         155.524         68.1817 
       0.722871         150.647         64.9346 
        0.73838         147.531         61.9338 
       0.754018         145.067         59.1001 
       0.769845         140.898          56.413 
        0.78569         137.919         53.8909 
       0.801365         132.946         51.5484 
       0.817031         131.344         49.3474 
       0.832809         126.342         47.2617 
       0.848511         125.059         45.3065 
       0.864097          121.22         43.4759 
       0.879701         119.096         41.7452 
       0.895507         115.825         40.0888 
       0.911279         112.769         38.5261 
        0.92691         111.111         37.0601 
       0.942635         109.344         35.6626 
       0.958396         106.991         34.3345 
       0.974128         104.557         33.0767 
       0.989692         102.408         31.8946 
        1.00528         101.162         30.7688 
        1.02113         97.9906         29.6799 
        1.03692         96.3594         28.6479 
        1.05264         94.8479           27.67 
        1.06832         93.3139         26.7394 
        1.08405         92.1553         25.8493 
        1.09979         89.1842         24.9993 
        1.11537         87.6689         24.1962 
        1.13105         85.9666         23.4236 
        1.14679         84.9465          22.682 
        1.16256         83.4122         21.9712 
        1.17828         81.9424         21.2932 
        1.19395         80.7987         20.6463 
         1.2097         78.7106         20.0231 
        1.22537         77.3898         19.4287 
          1.241         76.1951         18.8603 
        1.25666         74.9456         18.3133 
        1.27241         73.9449         17.7855 
        1.28819         71.9537         17.2777 
        1.30392         71.7432         16.7913 
        1.31957         71.1601         16.3258 
        1.33529         69.0199         15.8764 
        1.35108         68.4816         15.4421 
        1.36674         66.7855         15.0272 
         1.3824         66.0358          14.628 
        1.39811         64.9278          14.242 
        1.41389         63.7784         13.8685 
        1.42964          62.896         13.5091 
        1.44531         61.6029         13.1642 
        1.46101         61.0089         12.8307 
        1.47667         59.8974         12.5097 
        1.49229         59.1141         12.2006 
        1.50793         58.2294         11.9016 
        1.52367         56.8549         11.6107 
        1.53953         56.6791         11.3277 
        1.55526         55.8744         11.0563 
        1.57092         54.6524          10.795 
        1.58662         54.3145         10.5415 
        1.60235         52.6575         10.2957 
        1.61809         52.3957         10.0577 
        1.63369         51.7929         9.82925 
        1.64941         50.6976         9.60632 
        1.66519         49.8404         9.38951 
        1.68085          49.464         9.18095 
        1.69652         48.8155         8.97868 
        1.71228         48.1752         8.78136 
        1.72806         47.5726         8.58984 
        1.74368         46.7794         8.40596 
        1.75933         46.3274          8.2271 
        1.77505         45.5973         8.05263 
        1.79081         44.8194         7.88291 
         1.8065         44.3029         7.71883 
        1.82218          43.857         7.55956 
        1.83797         43.3393         7.40371 
        1.85367         42.3441         7.25313 
        1.86928         42.0224         7.10764 
        1.88497         41.3989         6.96536 
        1.90073         41.0606         6.82645 
        1.91647         40.3056         6.69146 
        1.93218         39.6137         6.56042 
        1.94787         39.5284         6.43308 
        1.96363         38.7713         6.30863 
        1.97935         38.3676         6.18773 
        1.99499         37.6509         6.07068 
        2.01064         37.1932          5.9565 
         2.0264          36.917         5.84455 
        2.04216         36.3453         5.73553 
        2.05781         35.8801         5.62998 
        2.07353         35.3429         5.52671 
        2.08928         34.9812         5.42582 
        2.10499          34.528         5.32772 
        2.12065         34.1043         5.23234 
        2.13633          33.662         5.13921 
        2.15211          33.192         5.04776 
        2.16785         32.6892         4.95879 
        2.18349         32.6289         4.87252 
        2.19916         31.9684         4.78813 
        2.21489         31.5659         4.70546 
        2.23063         31.1644         4.62468 
         2.2463          30.829         4.54617 
        2.26194         30.3646         4.46968 
        2.27765         30.1109         4.39456 
        2.29341         29.6828         4.32097 
        2.30914         29.3034         4.24922 
        2.32486         28.9958         4.17914 
        2.34061         28.5827         4.11052 
        2.35635         28.2081         4.04351 
        2.37203         27.8423         3.97823 
        2.38768         27.5861         3.91452 
        2.40339         27.4038         3.85198 
        2.41914         27.0699         3.79067 
        2.43483         26.6619          3.7309 
         2.4505         26.2285         3.67252 
        2.46622          26.038          3.6152 
        2.48195         25.6908         3.55909 
        2.49759         25.4368         3.50448 
        2.51328         25.0815         3.45087 
        2.52906         24.8582         3.39804 
        2.54479          24.501         3.34652 
        2.56049         24.1243         3.29616 
        2.57618         23.9042         3.24689 
        2.59189         23.7242         3.19855 
        2.60758         23.4748         3.15127 
        2.62325         23.1692           3.105 
        2.63898          22.945         3.05951 
        2.65468         22.6276         3.01502 
        2.67044         22.3344         2.97122 
        2.68618         22.1019          2.9284 
        2.70184         21.9109         2.88659 
        2.71755         21.7164          2.8455 
        2.73329         21.2658         2.80514 
        2.74897         21.1533         2.76569 
        2.76462         20.8627          2.7271 
        2.78034         20.7063         2.68908 
        2.79607         20.4675         2.65174 
        2.81179         20.2638         2.61516 
        2.82749         19.9539         2.57931 
        2.84321         19.7898         2.54409 
        2.85893         19.5708         2.50954 
        2.87462         19.3409         2.47569 
        2.89033         19.0832         2.44244 
        2.90605         18.9668         2.40976 
        2.92176         18.7106          2.3777 
        2.93747         18.4671         2.34624 
        2.95318         18.3056         2.31535 
        2.96891          18.154         2.28499 
        2.98456         17.9703         2.25532 
        3.00023         17.7741         2.22613 
        3.01596          17.503         2.19736 
        3.03164         17.3591         2.16919 
        3.04738         17.1921         2.14143 
         3.0631         16.9828         2.11416 
        3.07883         16.7932         2.08736 
        3.09456          16.632         2.06104 
        3.11026         16.4348         2.03521 
        3.12596         16.2692         2.00982 
        3.14163         16.0894         1.98493 
        3.15734         15.9047          1.9604 
        3.17308         15.7685         1.93623 
        3.18879         15.6198         1.91253 
        3.20447         15.4371         1.88926 
         3.2202         15.2582          1.8663 
         3.2359         15.1877         1.84377 
        3.25157         14.9361         1.82167 
        3.26729         14.7862         1.79986 
        3.28304         14.6696         1.77836 
        3.29877         14.5495         1.75724 
        3.31446         14.3766         1.73652 
        3.33014         14.2591         1.71614 
        3.34585         14.1041         1.69606 
        3.36158         13.9564         1.67627 
        3.37727         13.8241         1.65686 
        3.39294         13.6425         1.63778 
        3.40867         13.5313         1.61892 
        3.42439         13.3736         1.60038 
        3.44008         13.2364         1.58216 
        3.45578         13.1109         1.56421 
        3.47153         12.9558          1.5465 
        3.48724         12.8772         1.52909 
        3.50292         12.7251         1.51199 
        3.51859         12.6241         1.49517 
        3.53431         12.4822         1.47854 
        3.55007         12.3294         1.46213 
        3.56577         12.2411         1.44603 
        3.58146          12.109         1.43018 
        3.59719          11.993         1.41454 
        3.61292         11.9018         1.39913 
        3.62859         11.7575         1.38401 
        3.64429         11.6456         1.36908 
        3.66003         11.5322         1.35433 
        3.67578         11.4367          1.3398 
        3.69146         11.3641         1.32554 
        3.70712         11.2164         1.31151 
        3.72284         11.0962         1.29764 
        3.73853         11.0022         1.28398 
        3.75422         10.9241         1.27052 
        3.76993         10.7975         1.25725 
        3.78564         10.6558         1.24416 
        3.80137         10.6013         1.23124 
        3.81707         10.4923         1.21853 
        3.83279         10.3855         1.20599 
        3.84853         10.2919         1.19361 
        3.86424         10.1677         1.18142 
        3.87992         10.1436         1.16943 
        3.89561         9.99399          1.1576 
        3.91134         9.92879          1.1459 
        3.92704         9.82165         1.13439 
        3.94273         9.69728         1.12304 
        3.95845         9.64334         1.11183 
        3.97418         9.56476         1.10077 
        3.98988         9.45197         1.08987 
        4.00554         9.36235         1.07915 
        4.02125          9.3132         1.06854 
        4.03698         9.17833         1.05806 
        4.05268         9.12849         1.04775 
        4.06839         9.05522         1.03756 
         4.0841         8.96073         1.02751 
        4.09983          8.8516         1.01759 
        4.11555         8.78264         1.00779 
        4.13124         8.72632        0.998155 
        4.14693         8.66637        0.988635 
        4.16266         8.58217        0.979218 
        4.17839         8.48615        0.969929 
        4.19408         8.42444        0.960781 
        4.20977         8.34616        0.951747 
        4.22551         8.26909        0.942808 
        4.24123         8.20783        0.933993 
        4.25691         8.13121        0.925314 
        4.27259         8.06346        0.916743 
        4.28831         8.00083        0.908263 
        4.30404         7.90315        0.899882 
        4.31974         7.85448        0.891626 
        4.33543         7.78658        0.883477 
        4.35116         7.69737        0.875411 
        4.36688         7.63052        0.867448 
        4.38255         7.56681        0.859615 
        4.39825         7.52823        0.851861 
        4.41398         7.45293        0.844187 
         4.4297         7.40657        0.836615 
        4.44541         7.33664        0.829138 
        4.46111         7.25948        0.821758 
        4.47683         7.21617        0.814463 
        4.49251          7.1393        0.807271 
        4.50819          7.0931        0.800167 
         4.5239         7.01381        0.793139 
        4.53962         6.95624        0.786186 
        4.55535         6.90646        0.779314 
        4.57106          6.8683        0.772533 
        4.58678         6.78512        0.765832 
         4.6025         6.74971        0.759208 
        4.61821         6.66866        0.752664 
        4.63391         6.64189        0.746205 
         4.6496         6.58405        0.739825 
        4.66532         6.52448         0.73351 
        4.68103          6.4666        0.727271 
        4.69673         6.42785         0.72111 
        4.71241         6.35991        0.715027 
        4.72811         6.32199        0.709004 
        4.74384         6.26566        0.703043 
        4.75955         6.21475        0.697159 
        4.77525         6.15958        0.691346 
        4.79096         6.11036        0.685592 
        4.80669         6.06267        0.679901 
         4.8224         6.01576         0.67428 
        4.83809         5.96997        0.668729 
        4.85379         5.91944        0.663238 
         4.8695         5.87691        0.657803 
        4.88521         5.81792        0.652432 
        4.90093         5.77592         0.64712 
        4.91663          5.7392        0.641871 
        4.93234         5.67965        0.636675 
        4.94807         5.66868        0.631534 
        4.96377         5.60401        0.626458 
        4.97943         5.56073        0.621449 
        4.99514         5.53083        0.616482 
        5.01086         5.47062        0.611566 
        5.02654         5.42896        0.606715 
        5.04227         5.39262        0.601903 
          5.058         5.35971        0.597141 
        5.07371         5.30908        0.592439 
        5.08942         5.26951        0.587788 
        5.10513         5.21499        0.583186 
        5.12084         5.18321        0.578631 
        5.13656         5.14362        0.574125 
        5.15225           5.114        0.569675 
        5.16796         5.06855        0.565265 
        5.18369         5.03876        0.560898 
         5.1994         4.98678        0.556585 
        5.21509         4.96752        0.552321 
        5.23079         4.92234        0.548096 
        5.24649         4.88539        0.543919 
        5.26217         4.84884        0.539789 
        5.27788         4.80955        0.535695 
        5.29359          4.7653        0.531643 
        5.30933          4.7391        0.527628 
        5.32504         4.70683         0.52366 
        5.34073         4.67051        0.519738 
        5.35646         4.63178        0.515847 
        5.37218         4.59615        0.511996 
        5.38789         4.58165        0.508191 
        5.40357         4.54471        0.504428 
        5.41929          4.5009        0.500695 
        5.43502         4.46943           0.497 
         5.4507          4.4454         0.49335 
        5.46639         4.40694        0.489737 
        5.48212         4.37772        0.486151 
        5.49786         4.34796        0.482597 
        5.51353           4.308        0.479096 
        5.52921         4.29444        0.475627 
        5.54495         4.24875        0.472181 
        5.56066         4.22633        0.468773 
        5.57637         4.19011          0.4654 
        5.59207         4.16849        0.462062 
        5.60778         4.14153        0.458757 
        5.62346         4.11571        0.455487 
        5.63916         4.06856        0.452247 
        5.65487          4.0502        0.449037 
         5.6706         4.02881        0.445854 
        5.68633         3.99428          0.4427 
        5.70203         3.96755        0.439584 
        5.71773         3.94418        0.436498 
        5.73344         3.91668         0.43344 
        5.74916         3.89181        0.430408 
        5.76486           3.856         0.42741 
        5.78054         3.83986        0.424445 
        5.79626         3.81345        0.421499 
          5.812         3.78197        0.418579 
         5.8277         3.75995        0.415695 
        5.84339          3.7361        0.412838 
        5.85911         3.71364        0.410002 
        5.87484         3.68637        0.407193 
        5.89053         3.65807        0.404417 
        5.90623         3.63152        0.401664 
        5.92195         3.61359        0.398933 
        5.93767          3.5863        0.396229 
        5.95336         3.56633        0.393554 
        5.96905         3.54194        0.390904 
        5.98476         3.51941        0.388276 
        6.00048         3.50408        0.385671 
        6.01617         3.46803        0.383093 
        6.03185         3.44672        0.380541 
        6.04756         3.43029        0.378007 
        6.06331         3.40709        0.375491 
        6.07903         3.38672        0.373003 
        6.09473          3.3581        0.370539 
        6.11044         3.34377        0.368096 
        6.12616         3.32247        0.365675 
        6.14186         3.30853        0.363278 
        6.15755          3.2782        0.360903 
        6.17326         3.25591        0.358547 
        6.18898         3.23062        0.356211 
        6.20467         3.21385          0.3539 
        6.22036         3.19957         0.35161 
         6.2361         3.17613        0.349333 
         6.2518         3.15999        0.347081 
        6.26748          3.1342        0.344854 
        6.28319         3.11999        0.342639 
        6.29893          3.0973        0.340443 
        6.31463          3.0805        0.338269 
        6.33033         3.06399        0.336115 
        6.34604          3.0399        0.333978 
        6.36177         3.02649        0.331858 
        6.37747         3.00573         0.32976 
