# k  (h/Mpc)    Pcb(k)  (Mpc/h)^3    Pcb_linear(k) (Mpc/h)^3   ShotnoiseSubtracted = true
      0.0200456         20100.3           17472 
      0.0350414         13781.4         12481.4 
      0.0492313         9455.28         9043.44 
      0.0637834         7346.59          7531.8 
      0.0800726         5543.42         5907.76 
       0.096163         4127.23         4248.68 
       0.111083         3649.66         3419.04 
       0.126058         3157.95         3041.93 
       0.142273         2635.73         2540.55 
       0.158546            2244         1994.73 
        0.17375         1881.97         1699.97 
       0.188953         1713.14         1544.29 
       0.204907         1467.75         1350.56 
       0.220756         1390.76          1136.3 
        0.23588         1230.94         996.851 
         0.2514         1113.73         909.608 
       0.267535         1048.26         816.703 
       0.283568         968.171         716.588 
       0.299022         874.305         641.566 
       0.314451         847.219         588.535 
       0.330372         776.481          537.79 
       0.346141         742.887         486.225 
       0.361624         695.375         442.725 
       0.377134         660.216         408.454 
       0.392932          612.23         377.429 
       0.408854         599.573         347.024 
       0.424564          551.29         319.936 
       0.440253         554.016         297.062 
       0.455999         518.567         276.687 
       0.471626         514.929         257.661 
        0.48727         479.774         240.152 
       0.502856         465.279         224.651 
       0.518488         450.029         210.686 
       0.534347         427.633         197.579 
       0.550082         423.121         185.529 
       0.565732         404.828         174.616 
       0.581496         393.978         164.595 
       0.597222         377.691         155.359 
       0.612804         371.269         146.861 
       0.628434         364.504         138.974 
       0.644267         347.301         131.611 
       0.660051          340.71         124.811 
       0.675724          330.37         118.529 
       0.691403         324.256         112.675 
       0.707174         313.901         107.182 
       0.722871         307.823         102.078 
        0.73838         298.082         97.3604 
       0.754018          292.04         92.9058 
       0.769845         284.859         88.6817 
        0.78569         278.178          84.717 
       0.801365         269.386         81.0345 
       0.817031         265.786         77.5745 
       0.832809         260.708         74.2957 
       0.848511         254.349         71.2221 
       0.864097         249.208         68.3444 
       0.879701         245.279         65.6238 
       0.895507         238.989         63.0199 
       0.911279         230.818         60.5634 
        0.92691          229.71         58.2587 
       0.942635         224.166         56.0618 
       0.958396         219.874         53.9741 
       0.974128         216.138         51.9969 
       0.989692         212.214         50.1386 
        1.00528         208.129         48.3688 
        1.02113         204.305          46.657 
        1.03692         199.493         45.0348 
        1.05264         196.545         43.4974 
        1.06832         193.036         42.0345 
        1.08405         189.647         40.6352 
        1.09979         185.673         39.2991 
        1.11537             183         38.0365 
        1.13105         180.446         36.8221 
        1.14679         177.603         35.6563 
        1.16256         174.102         34.5388 
        1.17828         172.403         33.4731 
        1.19395         168.844         32.4561 
         1.2097         166.093         31.4764 
        1.22537          163.46          30.542 
          1.241         159.558         29.6485 
        1.25666         158.532         28.7886 
        1.27241         155.609          27.959 
        1.28819         151.592         27.1607 
        1.30392         149.635         26.3961 
        1.31957         147.667         25.6643 
        1.33529         145.295         24.9578 
        1.35108         142.266         24.2751 
        1.36674         140.665         23.6229 
         1.3824         139.275         22.9953 
        1.39811         136.347         22.3886 
        1.41389         133.979         21.8014 
        1.42964         131.725         21.2364 
        1.44531         129.056         20.6942 
        1.46101         128.361         20.1699 
        1.47667         125.777         19.6653 
        1.49229         123.578         19.1794 
        1.50793          123.74         18.7094 
        1.52367         120.483         18.2522 
        1.53953         117.995         17.8072 
        1.55526         116.364         17.3806 
        1.57092         114.996         16.9698 
        1.58662         113.207         16.5714 
        1.60235         111.478          16.185 
        1.61809         109.644         15.8107 
        1.63369         108.541         15.4517 
        1.64941         106.632         15.1012 
        1.66519         104.208         14.7604 
        1.68085         103.245         14.4325 
        1.69652         102.293         14.1145 
        1.71228         101.017         13.8044 
        1.72806         99.2145         13.5033 
        1.74368         97.6232         13.2142 
        1.75933         95.7009         12.9331 
        1.77505         94.4412         12.6588 
        1.79081         93.4531          12.392 
         1.8065           91.75         12.1341 
        1.82218         90.4693         11.8837 
        1.83797         89.4221         11.6387 
        1.85367         88.3463          11.402 
        1.86928         87.0032         11.1733 
        1.88497         85.6732         10.9496 
        1.90073         84.8792         10.7312 
        1.91647         83.1149          10.519 
        1.93218         82.4073          10.313 
        1.94787         81.2563         10.1129 
        1.96363         80.2966         9.91721 
        1.97935         79.0456         9.72716 
        1.99499         78.1659         9.54316 
        2.01064         76.9753         9.36367 
         2.0264         75.9644         9.18767 
        2.04216          74.943         9.01629 
        2.05781         73.7616         8.85037 
        2.07353          72.526         8.68804 
        2.08928         71.9188         8.52943 
        2.10499         71.2091         8.37521 
        2.12065         69.8121         8.22527 
        2.13633         69.0304         8.07888 
        2.15211         67.9666         7.93511 
        2.16785         67.2242         7.79525 
        2.18349         66.1699         7.65964 
        2.19916         65.5184         7.52697 
        2.21489         64.7292         7.39701 
        2.23063         63.5409         7.27004 
         2.2463         63.1393         7.14661 
        2.26194          62.165         7.02637 
        2.27765         61.1957         6.90828 
        2.29341         60.6615         6.79259 
        2.30914         59.6846          6.6798 
        2.32486         58.8937         6.56964 
        2.34061         58.1142         6.46178 
        2.35635         57.8292         6.35643 
        2.37203         56.7038         6.25381 
        2.38768         56.1252         6.15366 
        2.40339          55.271         6.05535 
        2.41914         54.8688         5.95895 
        2.43483          54.044           5.865 
         2.4505          53.503         5.77323 
        2.46622         52.7626         5.68312 
        2.48195         52.2553         5.59492 
        2.49759         51.4289         5.50906 
        2.51328         50.9065         5.42479 
        2.52906         50.1273         5.34174 
        2.54479         49.5992         5.26075 
        2.56049         49.0411         5.18159 
        2.57618         48.3334         5.10413 
        2.59189         47.7356         5.02814 
        2.60758         47.0083         4.95382 
        2.62325         46.4523         4.88109 
        2.63898         46.0395         4.80957 
        2.65468         45.5435         4.73963 
        2.67044         44.8934         4.67078 
        2.68618         44.3174         4.60346 
        2.70184         43.7789         4.53774 
        2.71755         43.3749         4.47314 
        2.73329         42.8616          4.4097 
        2.74897         42.2054         4.34769 
        2.76462         41.8328         4.28702 
        2.78034         41.4164         4.22725 
        2.79607         40.7766         4.16856 
        2.81179         40.4412         4.11105 
        2.82749         39.9011         4.05469 
        2.84321         39.4235         3.99933 
        2.85893         38.8326         3.94502 
        2.87462         38.6338         3.89181 
        2.89033         38.0433         3.83953 
        2.90605         37.5791         3.78816 
        2.92176         37.1319         3.73777 
        2.93747          36.806         3.68831 
        2.95318         36.4464         3.63975 
        2.96891         35.9312         3.59203 
        2.98456         35.5612         3.54538 
        3.00023         35.1992         3.49949 
        3.01596         34.7896         3.45427 
        3.03164         34.3822         3.40998 
        3.04738         33.9304         3.36634 
         3.0631         33.7177         3.32347 
        3.07883         33.3994         3.28135 
        3.09456         32.8412         3.23997 
        3.11026         32.4502         3.19936 
        3.12596         32.2878         3.15946 
        3.14163         31.8155         3.12033 
        3.15734         31.5126         3.08177 
        3.17308         31.0226         3.04376 
        3.18879         30.7034         3.00651 
        3.20447         30.4343         2.96993 
         3.2202         30.0672         2.93385 
         3.2359         29.7036         2.89843 
        3.25157         29.4642         2.86367 
        3.26729         29.1861         2.82939 
        3.28304         28.7976          2.7956 
        3.29877          28.514          2.7624 
        3.31446         28.1425         2.72982 
        3.33014         27.8812         2.69779 
        3.34585         27.5759         2.66622 
        3.36158         27.2385         2.63511 
        3.37727          26.955          2.6046 
        3.39294         26.6879          2.5746 
        3.40867         26.4295         2.54496 
        3.42439         26.1424          2.5158 
        3.44008         25.8624         2.48716 
        3.45578         25.5319         2.45894 
        3.47153         25.2762          2.4311 
        3.48724         25.0504         2.40374 
        3.50292         24.8475         2.37687 
        3.51859         24.5289         2.35041 
        3.53431         24.2844         2.32428 
        3.55007         23.9838         2.29848 
        3.56577         23.7946         2.27318 
        3.58146         23.5104         2.24826 
        3.59719          23.319         2.22366 
        3.61292         23.1444         2.19944 
        3.62859         22.9041         2.17567 
        3.64429         22.6334         2.15221 
        3.66003         22.3437         2.12902 
        3.67578         22.2239         2.10618 
        3.69146          21.918         2.08376 
        3.70712         21.7638         2.06171 
        3.72284         21.5484         2.03989 
        3.73853         21.2861         2.01843 
        3.75422         21.0594         1.99727 
        3.76993         20.8554          1.9764 
        3.78564         20.6974         1.95583 
        3.80137         20.4874         1.93552 
        3.81707           20.21         1.91554 
        3.83279         20.0916         1.89583 
        3.84853         19.9038         1.87636 
        3.86424         19.7096         1.85721 
        3.87992         19.4799         1.83835 
        3.89561          19.273         1.81975 
        3.91134         19.0446         1.80137 
        3.92704         18.9582         1.78327 
        3.94273         18.7146         1.76543 
        3.95845         18.5424          1.7478 
        3.97418         18.3637         1.73041 
        3.98988         18.2766         1.71328 
        4.00554         18.0077         1.69643 
        4.02125           17.84         1.67976 
        4.03698         17.6575         1.66328 
        4.05268         17.5287         1.64707 
        4.06839         17.3572         1.63105 
         4.0841         17.2264         1.61526 
        4.09983         17.0208         1.59965 
        4.11555         16.8455         1.58426 
        4.13124         16.7439         1.56911 
        4.14693         16.6101         1.55414 
        4.16266         16.4071         1.53934 
        4.17839         16.2458         1.52474 
        4.19408         16.0883         1.51035 
        4.20977         15.9468         1.49615 
        4.22551         15.7999          1.4821 
        4.24123         15.6681         1.46824 
        4.25691         15.5496          1.4546 
        4.27259         15.3811         1.44113 
        4.28831         15.2051          1.4278 
        4.30404         15.0577         1.41462 
        4.31974         14.9186         1.40164 
        4.33543         14.7962         1.38883 
        4.35116         14.6489         1.37615 
        4.36688         14.5274         1.36364 
        4.38255         14.4224         1.35132 
        4.39825         14.3221         1.33913 
        4.41398         14.1451         1.32707 
         4.4297         14.0515         1.31517 
        4.44541          13.926         1.30341 
        4.46111         13.7986         1.29181 
        4.47683         13.6597         1.28034 
        4.49251         13.5548         1.26904 
        4.50819         13.4146         1.25787 
         4.5239         13.3027         1.24682 
        4.53962         13.1893         1.23589 
        4.55535         13.0713         1.22509 
        4.57106         12.9509         1.21443 
        4.58678         12.8464         1.20389 
         4.6025         12.7326         1.19348 
        4.61821         12.6353         1.18319 
        4.63391         12.4927         1.17304 
         4.6496         12.4131         1.16301 
        4.66532         12.3046         1.15308 
        4.68103         12.1937         1.14328 
        4.69673         12.0706         1.13359 
        4.71241         11.9854         1.12403 
        4.72811         11.8668         1.11456 
        4.74384          11.777         1.10519 
        4.75955         11.6652         1.09594 
        4.77525         11.5847          1.0868 
        4.79096         11.4668         1.07776 
        4.80669         11.3901         1.06881 
         4.8224         11.2624         1.05997 
        4.83809         11.1945         1.05125 
        4.85379         11.0803         1.04261 
         4.8695         11.0187         1.03407 
        4.88521         10.9285         1.02563 
        4.90093         10.8345         1.01728 
        4.91663         10.7494         1.00903 
        4.93234         10.6721         1.00086 
        4.94807         10.5787        0.992776 
        4.96377         10.4777        0.984797 
        4.97943         10.3995        0.976923 
        4.99514         10.3039        0.969115 
        5.01086         10.2484        0.961386 
        5.02654         10.1567        0.953761 
        5.04227          10.055        0.946196 
          5.058         10.0002         0.93871 
        5.07371         9.90046        0.931319 
        5.08942         9.82207        0.924007 
        5.10513         9.74472        0.916773 
        5.12084         9.66213        0.909612 
        5.13656          9.6048        0.902529 
        5.15225         9.51473        0.895534 
        5.16796         9.44015        0.888601 
        5.18369         9.33649        0.881736 
         5.1994         9.26896        0.874956 
        5.21509         9.23264        0.868252 
        5.23079         9.13591        0.861612 
        5.24649         9.06364        0.855045 
        5.26217         8.99438        0.848552 
        5.27788         8.91664        0.842117 
        5.29359          8.8754        0.835748 
        5.30933         8.78496        0.829435 
        5.32504         8.71871        0.823198 
        5.34073         8.65555        0.817031 
        5.35646         8.58881        0.810916 
        5.37218         8.51807        0.804862 
        5.38789         8.44243        0.798879 
        5.40357         8.39618        0.792965 
        5.41929         8.33827        0.787097 
        5.43502         8.26237        0.781287 
         5.4507         8.18848         0.77555 
        5.46639         8.14283         0.76987 
        5.48212         8.07819        0.764233 
        5.49786          8.0138        0.758646 
        5.51353          7.9431        0.753143 
        5.52921         7.90519        0.747689 
        5.54495         7.84596        0.742272 
        5.56066         7.78766        0.736915 
        5.57637         7.72897        0.731612 
        5.59207         7.66004        0.726366 
        5.60778          7.5952        0.721169 
        5.62346         7.55178         0.71603 
        5.63916         7.49453        0.710936 
        5.65487         7.42819        0.705889 
         5.6706           7.378        0.700885 
        5.68633         7.32877        0.695928 
        5.70203         7.28152        0.691029 
        5.71773         7.22758        0.686178 
        5.73344          7.1615        0.681371 
        5.74916         7.11968        0.676605 
        5.76486         7.05289        0.671892 
        5.78054         7.01605         0.66723 
        5.79626         6.95471          0.6626 
          5.812         6.92267        0.658009 
         5.8277         6.86037        0.653475 
        5.84339         6.82351        0.648984 
        5.85911         6.78194        0.644526 
        5.87484         6.72338        0.640111 
        5.89053         6.67206        0.635746 
        5.90623          6.6335        0.631419 
        5.92195         6.58104        0.627126 
        5.93767         6.53692        0.622874 
        5.95336         6.48675        0.618669 
        5.96905         6.43824        0.614505 
        5.98476         6.38488        0.610373 
        6.00048         6.34924        0.606277 
        6.01617         6.31772        0.602225 
        6.03185         6.26863        0.598214 
        6.04756         6.22504         0.59423 
        6.06331          6.1864        0.590275 
        6.07903         6.12991        0.586363 
        6.09473         6.09203         0.58249 
        6.11044         6.04609        0.578649 
        6.12616         6.00097        0.574844 
        6.14186         5.97225        0.571076 
        6.15755         5.92481        0.567342 
        6.17326           5.885        0.563638 
        6.18898         5.84296        0.559966 
        6.20467         5.79588        0.556333 
        6.22036         5.77227        0.552733 
         6.2361           5.735        0.549155 
         6.2518         5.69691        0.545614 
        6.26748         5.64918        0.542112 
        6.28319          5.6227        0.538632 
        6.29893         5.58173        0.535179 
        6.31463         5.53641        0.531762 
        6.33033         5.49827        0.528375 
        6.34604         5.46165        0.525016 
        6.36177         5.43545        0.521683 
        6.37747         5.38698        0.518385 
