# k  (h/Mpc)    Pcb(k)  (Mpc/h)^3    Pcb_linear(k) (Mpc/h)^3   ShotnoiseSubtracted = true
      0.0200456         218.485         189.999 
      0.0350414         155.814         135.729 
      0.0492313         107.524         98.3426 
      0.0637834         79.3406         81.9043 
      0.0800726         63.1911         64.2438 
       0.096163          45.358         46.2021 
       0.111083         38.9337         37.1802 
       0.126058          32.935         33.0794 
       0.142273         25.9725         27.6271 
       0.158546         21.5195         21.6916 
        0.17375         18.6392         18.4863 
       0.188953         17.0655         16.7933 
       0.204907         14.1693         14.6867 
       0.220756         12.4252         12.3567 
        0.23588         10.3947         10.8402 
         0.2514         10.0466          9.8915 
       0.267535         9.09314         8.88121 
       0.283568         7.63594          7.7925 
       0.299022         6.75045         6.97669 
       0.314451          6.4645         6.40001 
       0.330372         5.72266         5.84818 
       0.346141           5.374         5.28744 
       0.361624         4.94687         4.81439 
       0.377134         4.46114         4.44172 
       0.392932         4.07783         4.10434 
       0.408854         3.82758         3.77369 
       0.424564         3.54473         3.47913 
       0.440253         3.24089         3.23039 
       0.455999         3.01425         3.00882 
       0.471626         2.82733         2.80193 
        0.48727         2.57938         2.61152 
       0.502856         2.45096         2.44296 
       0.518488         2.28962          2.2911 
       0.534347         2.16881         2.14856 
       0.550082         2.02022         2.01753 
       0.565732         1.89649         1.89886 
       0.581496         1.79751         1.78988 
       0.597222         1.70788         1.68945 
       0.612804         1.59585         1.59703 
       0.628434         1.54232         1.51126 
       0.644267         1.44437          1.4312 
       0.660051         1.38232         1.35725 
       0.675724         1.29758         1.28894 
       0.691403         1.22625         1.22528 
       0.707174         1.19212         1.16555 
       0.722871          1.1233         1.11004 
        0.73838         1.05777         1.05874 
       0.754018         1.00461          1.0103 
       0.769845        0.962209        0.964366 
        0.78569         0.91919        0.921252 
       0.801365         0.89213        0.881206 
       0.817031        0.858007        0.843581 
       0.832809         0.80689        0.807926 
       0.848511          0.7795        0.774502 
       0.864097         0.74809        0.743209 
       0.879701        0.715393        0.713624 
       0.895507        0.692653        0.685308 
       0.911279        0.660893        0.658594 
        0.92691        0.640084        0.633532 
       0.942635        0.611073        0.609642 
       0.958396        0.593406        0.586939 
       0.974128        0.568233        0.565438 
       0.989692        0.545477        0.545231 
        1.00528        0.532178        0.525985 
        1.02113        0.514649         0.50737 
        1.03692        0.495792        0.489729 
        1.05264        0.480263        0.473011 
        1.06832        0.466553        0.457102 
        1.08405        0.444326        0.441886 
        1.09979        0.427201        0.427357 
        1.11537        0.421342        0.413627 
        1.13105         0.40641        0.400421 
        1.14679        0.389614        0.387743 
        1.16256        0.379812        0.375591 
        1.17828        0.367912        0.364002 
        1.19395         0.35685        0.352943 
         1.2097        0.345609        0.342289 
        1.22537        0.334975        0.332128 
          1.241        0.325578        0.322411 
        1.25666        0.316339        0.313061 
        1.27241        0.308268        0.304039 
        1.28819        0.295412        0.295358 
        1.30392        0.289741        0.287043 
        1.31957        0.280798        0.279086 
        1.33529        0.274861        0.271402 
        1.35108         0.26795        0.263978 
        1.36674        0.259882        0.256886 
         1.3824        0.252091        0.250062 
        1.39811        0.246098        0.243464 
        1.41389        0.238125        0.237079 
        1.42964         0.23395        0.230935 
        1.44531         0.22755        0.225039 
        1.46101        0.220725        0.219337 
        1.47667         0.21588         0.21385 
        1.49229        0.209414        0.208566 
        1.50793        0.204718        0.203455 
        1.52367        0.200875        0.198482 
        1.53953        0.194698        0.193643 
        1.55526        0.190334        0.189005 
        1.57092        0.185534        0.184538 
        1.58662         0.18065        0.180205 
        1.60235        0.177661        0.176003 
        1.61809        0.171895        0.171933 
        1.63369        0.168641        0.168028 
        1.64941        0.164442        0.164217 
        1.66519        0.162068        0.160511 
        1.68085        0.157636        0.156946 
        1.69652        0.154672        0.153488 
        1.71228        0.150332        0.150115 
        1.72806        0.147138        0.146841 
        1.74368        0.142651        0.143698 
        1.75933        0.140954         0.14064 
        1.77505        0.138334        0.137658 
        1.79081        0.135435        0.134756 
         1.8065        0.132209        0.131951 
        1.82218        0.129048        0.129229 
        1.83797        0.126429        0.126565 
        1.85367         0.12436         0.12399 
        1.86928        0.121553        0.121503 
        1.88497        0.118399        0.119071 
        1.90073        0.116212        0.116696 
        1.91647        0.114093        0.114389 
        1.93218        0.111971        0.112149 
        1.94787        0.109037        0.109972 
        1.96363        0.107785        0.107844 
        1.97935        0.105206        0.105778 
        1.99499        0.103352        0.103777 
        2.01064        0.101357        0.101825 
         2.0264       0.0992944        0.099911 
        2.04216       0.0968784       0.0980473 
        2.05781       0.0954376        0.096243 
        2.07353       0.0937704       0.0944777 
        2.08928       0.0926086        0.092753 
        2.10499        0.089759       0.0910759 
        2.12065        0.088637       0.0894454 
        2.13633       0.0867726       0.0878535 
        2.15211       0.0857337       0.0862901 
        2.16785       0.0834398       0.0847692 
        2.18349       0.0820464       0.0832945 
        2.19916       0.0812899       0.0818518 
        2.21489       0.0790253       0.0804385 
        2.23063       0.0776319       0.0790577 
         2.2463       0.0770083       0.0777156 
        2.26194       0.0747878        0.076408 
        2.27765       0.0739812       0.0751238 
        2.29341        0.072129       0.0738658 
        2.30914       0.0714863       0.0726393 
        2.32486       0.0699052       0.0714413 
        2.34061       0.0690458       0.0702683 
        2.35635       0.0676057       0.0691228 
        2.37203       0.0666704       0.0680068 
        2.38768       0.0653005       0.0669178 
        2.40339       0.0645093       0.0658487 
        2.41914       0.0633375       0.0648004 
        2.43483       0.0626468       0.0637788 
         2.4505       0.0615533       0.0627808 
        2.46622       0.0605251       0.0618008 
        2.48195       0.0593311       0.0608417 
        2.49759       0.0585438       0.0599081 
        2.51328       0.0577237       0.0589917 
        2.52906       0.0565086       0.0580886 
        2.54479       0.0558226       0.0572078 
        2.56049       0.0548725        0.056347 
        2.57618       0.0542802       0.0555047 
        2.59189       0.0533345       0.0546784 
        2.60758        0.052396       0.0538701 
        2.62325       0.0516795       0.0530792 
        2.63898       0.0508599       0.0523015 
        2.65468        0.050078       0.0515409 
        2.67044       0.0491762       0.0507923 
        2.68618       0.0484406       0.0500602 
        2.70184       0.0477116       0.0493455 
        2.71755        0.047198        0.048643 
        2.73329       0.0464532       0.0479531 
        2.74897        0.045671       0.0472788 
        2.76462       0.0450388        0.046619 
        2.78034       0.0443418       0.0459691 
        2.79607       0.0435116       0.0453309 
        2.81179       0.0431604       0.0447055 
        2.82749        0.042411       0.0440926 
        2.84321       0.0419771       0.0434906 
        2.85893       0.0413902       0.0428999 
        2.87462       0.0408385       0.0423213 
        2.89033       0.0401209       0.0417528 
        2.90605       0.0396502       0.0411943 
        2.92176         0.03918       0.0406462 
        2.93747       0.0386195       0.0401084 
        2.95318       0.0380567       0.0395803 
        2.96891        0.037554       0.0390614 
        2.98456       0.0370215       0.0385541 
        3.00023        0.036544       0.0380551 
        3.01596        0.036154       0.0375634 
        3.03164       0.0356496       0.0370817 
        3.04738       0.0349737       0.0366071 
         3.0631       0.0347368        0.036141 
        3.07883        0.034178        0.035683 
        3.09456       0.0337689       0.0352329 
        3.11026        0.033289       0.0347914 
        3.12596       0.0328333       0.0343574 
        3.14163       0.0324429       0.0339319 
        3.15734       0.0320296       0.0335126 
        3.17308        0.031657       0.0330993 
        3.18879       0.0313355       0.0326942 
        3.20447        0.030892       0.0322964 
         3.2202        0.030546        0.031904 
         3.2359       0.0302135       0.0315188 
        3.25157       0.0297888       0.0311409 
        3.26729       0.0294734       0.0307681 
        3.28304       0.0291116       0.0304006 
        3.29877       0.0288789       0.0300396 
        3.31446       0.0283867       0.0296853 
        3.33014       0.0280041        0.029337 
        3.34585        0.027808       0.0289937 
        3.36158       0.0274945       0.0286554 
        3.37727       0.0272284       0.0283236 
        3.39294       0.0268438       0.0279974 
        3.40867       0.0265443       0.0276751 
        3.42439       0.0262078        0.027358 
        3.44008       0.0260536       0.0270466 
        3.45578       0.0257045       0.0267397 
        3.47153       0.0254122       0.0264369 
        3.48724       0.0251339       0.0261394 
        3.50292       0.0248929       0.0258471 
        3.51859       0.0245704       0.0255595 
        3.53431       0.0243081       0.0252753 
        3.55007       0.0240708       0.0249948 
        3.56577       0.0239635       0.0247196 
        3.58146       0.0236013       0.0244486 
        3.59719       0.0234717       0.0241811 
        3.61292       0.0231747       0.0239177 
        3.62859        0.022859       0.0236593 
        3.64429       0.0226935       0.0234041 
        3.66003       0.0224808       0.0231519 
        3.67578       0.0223302       0.0229036 
        3.69146       0.0222093       0.0226598 
        3.70712       0.0219499         0.02242 
        3.72284       0.0217566       0.0221828 
        3.73853       0.0214727       0.0219494 
        3.75422       0.0213557       0.0217193 
        3.76993         0.02118       0.0214923 
        3.78564       0.0209762       0.0212686 
        3.80137       0.0207535       0.0210478 
        3.81707       0.0205775       0.0208305 
        3.83279       0.0204399       0.0206161 
        3.84853        0.020313       0.0204045 
        3.86424       0.0201524       0.0201961 
        3.87992       0.0199937       0.0199911 
        3.89561       0.0198047       0.0197888 
        3.91134        0.019661       0.0195889 
        3.92704       0.0194462       0.0193921 
        3.94273       0.0193121       0.0191981 
        3.95845       0.0192292       0.0190064 
        3.97418       0.0190996       0.0188173 
        3.98988       0.0189116        0.018631 
        4.00554       0.0186923       0.0184478 
        4.02125       0.0185555       0.0182665 
        4.03698       0.0183191       0.0180873 
        4.05268       0.0180615        0.017911 
        4.06839       0.0178013       0.0177368 
         4.0841       0.0174954       0.0175651 
        4.09983       0.0172383       0.0173954 
        4.11555       0.0170273        0.017228 
        4.13124       0.0168017       0.0170632 
        4.14693       0.0166102       0.0169005 
        4.16266       0.0163442       0.0167395 
        4.17839       0.0161942       0.0165807 
        4.19408       0.0159593       0.0164243 
        4.20977       0.0158116       0.0162699 
        4.22551       0.0156387       0.0161171 
        4.24123        0.015465       0.0159664 
        4.25691       0.0153219        0.015818 
        4.27259       0.0151689       0.0156715 
        4.28831        0.014956       0.0155265 
        4.30404       0.0148591       0.0153833 
        4.31974       0.0147126       0.0152421 
        4.33543       0.0145696       0.0151028 
        4.35116       0.0145137       0.0149649 
        4.36688        0.014399       0.0148288 
        4.38255       0.0142738       0.0146949 
        4.39825       0.0141897       0.0145623 
        4.41398       0.0140827       0.0144311 
         4.4297        0.014001       0.0143017 
        4.44541        0.013923       0.0141739 
        4.46111        0.013808       0.0140477 
        4.47683       0.0137572        0.013923 
        4.49251       0.0137188       0.0138001 
        4.50819       0.0136637       0.0136786 
         4.5239       0.0136464       0.0135585 
        4.53962       0.0135859       0.0134396 
        4.55535       0.0135824       0.0133222 
        4.57106       0.0135274       0.0132063 
        4.58678       0.0135151       0.0130917 
         4.6025       0.0134916       0.0129785 
        4.61821        0.013521       0.0128666 
        4.63391       0.0135428       0.0127562 
         4.6496        0.013526       0.0126471 
        4.66532       0.0135456       0.0125392 
        4.68103       0.0135233       0.0124325 
        4.69673       0.0135564       0.0123272 
        4.71241       0.0136078       0.0122232 
        4.72811       0.0135845       0.0121202 
        4.74384       0.0137154       0.0120183 
        4.75955       0.0137171       0.0119178 
        4.77525       0.0137489       0.0118184 
        4.79096       0.0138607         0.01172 
        4.80669       0.0138974       0.0116227 
         4.8224       0.0139717       0.0115266 
        4.83809       0.0139937       0.0114318 
        4.85379       0.0141176       0.0113379 
         4.8695       0.0142468        0.011245 
        4.88521       0.0142931       0.0111531 
        4.90093       0.0144265       0.0110623 
        4.91663       0.0145653       0.0109726 
        4.93234       0.0146718       0.0108838 
        4.94807       0.0147322       0.0107959 
        4.96377       0.0148772       0.0107091 
        4.97943       0.0150881       0.0106235 
        4.99514        0.015189       0.0105386 
        5.01086        0.015336       0.0104546 
        5.02654        0.015456       0.0103716 
        5.04227       0.0156172       0.0102894 
          5.058       0.0157954        0.010208 
        5.07371       0.0159367       0.0101276 
        5.08942       0.0162283       0.0100481 
        5.10513       0.0164262      0.00996941 
        5.12084       0.0165884      0.00989154 
        5.13656       0.0167757      0.00981452 
        5.15225        0.017015      0.00973845 
        5.16796       0.0172836      0.00966306 
        5.18369       0.0175192      0.00958841 
         5.1994       0.0177889      0.00951467 
        5.21509       0.0179549      0.00944178 
        5.23079       0.0182426      0.00936956 
        5.24649       0.0185175      0.00929816 
        5.26217       0.0187246      0.00922755 
        5.27788       0.0190791      0.00915757 
        5.29359       0.0194012      0.00908831 
        5.30933       0.0196841      0.00901966 
        5.32504       0.0200176      0.00895183 
        5.34073       0.0203181      0.00888478 
        5.35646        0.020691      0.00881828 
        5.37218       0.0210694      0.00875244 
        5.38789       0.0213426      0.00868739 
        5.40357       0.0217537      0.00862307 
        5.41929       0.0220345      0.00855925 
        5.43502       0.0225973      0.00849608 
         5.4507       0.0229148      0.00843369 
        5.46639       0.0233373      0.00837192 
        5.48212       0.0236864      0.00831063 
        5.49786       0.0242183      0.00824987 
        5.51353       0.0246566      0.00819003 
        5.52921       0.0250488      0.00813071 
        5.54495       0.0255205      0.00807181 
        5.56066       0.0258954      0.00801356 
        5.57637       0.0266047      0.00795589 
        5.59207       0.0270404      0.00789884 
        5.60778       0.0276794      0.00784232 
        5.62346       0.0281734      0.00778644 
        5.63916       0.0285863      0.00773105 
        5.65487       0.0293493      0.00767616 
         5.6706       0.0297914      0.00762175 
        5.68633        0.030546      0.00756784 
        5.70203       0.0312797      0.00751457 
        5.71773       0.0318879      0.00746182 
        5.73344       0.0323614      0.00740954 
        5.74916       0.0332534      0.00735772 
        5.76486        0.033937      0.00730646 
        5.78054       0.0346558      0.00725577 
        5.79626       0.0353743      0.00720542 
          5.812       0.0362367       0.0071555 
         5.8277       0.0368752      0.00710619 
        5.84339       0.0379427      0.00705735 
        5.85911       0.0387789      0.00700887 
        5.87484        0.039567      0.00696086 
        5.89053       0.0406154      0.00691339 
        5.90623       0.0414635      0.00686635 
        5.92195       0.0426529      0.00681966 
        5.93767       0.0433788      0.00677343 
        5.95336       0.0441526       0.0067277 
        5.96905       0.0453465      0.00668241 
        5.98476       0.0461118      0.00663748 
        6.00048       0.0473595      0.00659294 
        6.01617       0.0486284      0.00654887 
        6.03185       0.0498724      0.00650526 
        6.04756       0.0506842      0.00646194 
        6.06331       0.0521831      0.00641892 
        6.07903       0.0536693      0.00637638 
        6.09473       0.0549421      0.00633427 
        6.11044       0.0558613       0.0062925 
        6.12616       0.0579274      0.00625112 
        6.14186       0.0587662      0.00621014 
        6.15755       0.0604087      0.00616954 
        6.17326       0.0617654      0.00612927 
        6.18898       0.0635934      0.00608933 
        6.20467       0.0652308      0.00604983 
        6.22036       0.0666228      0.00601068 
         6.2361       0.0686863      0.00597176 
         6.2518       0.0705357      0.00593326 
        6.26748       0.0725818      0.00589518 
        6.28319       0.0735178      0.00585733 
        6.29893       0.0758981      0.00581978 
        6.31463       0.0784259      0.00578262 
        6.33033       0.0797711       0.0057458 
        6.34604       0.0821684      0.00570927 
        6.36177       0.0846655      0.00567303 
        6.37747       0.0874153      0.00563716 
