# k  (h/Mpc)    Pcb(k)  (Mpc/h)^3    Pcb_linear(k) (Mpc/h)^3   ShotnoiseSubtracted = true
      0.0200456           34058         29667.2 
      0.0350414         23002.6         21193.2 
      0.0492313           15772         15355.6 
      0.0637834         12502.8         12788.9 
      0.0800726         9213.28         10031.3 
       0.096163          6995.3         7214.18 
       0.111083         6228.07         5805.47 
       0.126058         5405.03         5165.14 
       0.142273         4664.13         4313.81 
       0.158546         3962.11         3387.01 
        0.17375         3384.33         2886.52 
       0.188953         3064.42         2622.17 
       0.204907         2718.39         2293.23 
       0.220756         2524.25         1929.42 
        0.23588         2273.93         1692.64 
         0.2514         2109.65          1544.5 
       0.267535         1994.55         1386.75 
       0.283568         1877.11         1216.75 
       0.299022         1715.86         1089.37 
       0.314451         1650.16         999.323 
       0.330372         1497.11         913.158 
       0.346141         1469.06         825.602 
       0.361624         1403.74         751.739 
       0.377134         1344.31         693.548 
       0.392932         1231.56         640.868 
       0.408854         1206.69          589.24 
       0.424564         1139.71         543.245 
       0.440253         1131.62         504.406 
       0.455999         1092.22         469.809 
       0.471626         1041.18         437.505 
        0.48727         1009.85         407.773 
       0.502856         973.991         381.454 
       0.518488         940.075         357.741 
       0.534347         917.397         335.485 
       0.550082         883.322         315.025 
       0.565732         864.994         296.495 
       0.581496         829.922         279.479 
       0.597222          817.95         263.798 
       0.612804         793.838         249.367 
       0.628434         779.674         235.975 
       0.644267         747.541         223.473 
       0.660051          734.26         211.927 
       0.675724         721.911         201.261 
       0.691403          686.16         191.319 
       0.707174         680.977         181.993 
       0.722871         666.063         173.326 
        0.73838         644.604         165.316 
       0.754018         636.548         157.752 
       0.769845         624.602          150.58 
        0.78569          609.42         143.848 
       0.801365         592.366         137.595 
       0.817031         578.906          131.72 
       0.832809         569.166         126.153 
       0.848511         553.823         120.934 
       0.864097         547.591         116.048 
       0.879701         535.422         111.428 
       0.895507         528.079         107.007 
       0.911279         509.572         102.836 
        0.92691         503.931         98.9223 
       0.942635         492.766          95.192 
       0.958396         485.084          91.647 
       0.974128         476.975         88.2898 
       0.989692         463.184         85.1345 
        1.00528         460.074         82.1294 
        1.02113          452.23         79.2228 
        1.03692         439.741         76.4682 
        1.05264         429.781         73.8578 
        1.06832         420.639         71.3738 
        1.08405         415.916         68.9979 
        1.09979         406.924         66.7292 
        1.11537         398.387         64.5854 
        1.13105         397.297         62.5233 
        1.14679         383.461         60.5437 
        1.16256         378.491         58.6463 
        1.17828         368.073         56.8367 
        1.19395         367.408         55.1099 
         1.2097          358.58         53.4464 
        1.22537         351.957         51.8598 
          1.241         345.851         50.3426 
        1.25666         337.242         48.8826 
        1.27241         330.088         47.4738 
        1.28819          326.54         46.1184 
        1.30392         323.095           44.82 
        1.31957         317.391         43.5776 
        1.33529         310.084         42.3778 
        1.35108         304.896         41.2187 
        1.36674         301.814         40.1113 
         1.3824         297.007         39.0457 
        1.39811          289.86         38.0154 
        1.41389         285.949         37.0185 
        1.42964         278.427         36.0591 
        1.44531         274.814         35.1384 
        1.46101         270.265         34.2481 
        1.47667         266.474         33.3913 
        1.49229          260.67         32.5663 
        1.50793         257.041         31.7682 
        1.52367         253.143         30.9918 
        1.53953         248.128         30.2363 
        1.55526         244.858          29.512 
        1.57092         241.082         28.8145 
        1.58662         235.805         28.1379 
        1.60235         232.109         27.4818 
        1.61809         230.193         26.8463 
        1.63369         224.867         26.2366 
        1.64941         222.217         25.6416 
        1.66519         216.233         25.0629 
        1.68085         214.369         24.5062 
        1.69652         211.156         23.9662 
        1.71228         207.348         23.4396 
        1.72806         204.627         22.9283 
        1.74368          200.12         22.4375 
        1.75933         197.402         21.9601 
        1.77505         195.165         21.4944 
        1.79081         190.744         21.0414 
         1.8065          189.47         20.6034 
        1.82218         185.666         20.1783 
        1.83797         182.364         19.7623 
        1.85367         178.803         19.3603 
        1.86928         176.984          18.972 
        1.88497         174.503         18.5922 
        1.90073         170.567         18.2214 
        1.91647         169.939         17.8611 
        1.93218         165.903         17.5113 
        1.94787         163.614         17.1715 
        1.96363         162.036         16.8393 
        1.97935         158.425         16.5165 
        1.99499         157.317         16.2041 
        2.01064         154.622         15.8993 
         2.0264         152.356         15.6005 
        2.04216         150.759         15.3095 
        2.05781         147.648         15.0278 
        2.07353         146.322         14.7521 
        2.08928         143.816         14.4828 
        2.10499         142.117          14.221 
        2.12065         139.387         13.9664 
        2.13633          136.94         13.7178 
        2.15211         135.585         13.4737 
        2.16785         133.768         13.2362 
        2.18349         132.053         13.0059 
        2.19916          130.28         12.7807 
        2.21489         127.705           12.56 
        2.23063         126.588         12.3444 
         2.2463          124.56         12.1348 
        2.26194         122.888         11.9306 
        2.27765         120.461         11.7301 
        2.29341         119.206         11.5337 
        2.30914         117.373         11.3422 
        2.32486         115.921         11.1551 
        2.34061         114.279          10.972 
        2.35635         112.942         10.7931 
        2.37203         111.592         10.6189 
        2.38768         109.805         10.4488 
        2.40339         108.125         10.2819 
        2.41914         106.309         10.1182 
        2.43483         105.163         9.95867 
         2.4505         103.817         9.80285 
        2.46622         102.476         9.64983 
        2.48195         101.266         9.50007 
        2.49759         100.045         9.35429 
        2.51328          98.454         9.21119 
        2.52906         97.2724         9.07019 
        2.54479         96.0456         8.93266 
        2.56049         95.0941         8.79825 
        2.57618         93.7545         8.66673 
        2.59189         91.8557          8.5377 
        2.60758         91.3365          8.4115 
        2.62325         89.7999           8.288 
        2.63898         88.4923         8.16656 
        2.65468         87.5769          8.0478 
        2.67044          86.588         7.93091 
        2.68618         85.3275          7.8166 
        2.70184         84.0916           7.705 
        2.71755         82.9164         7.59531 
        2.73329         82.3149         7.48759 
        2.74897         81.1277          7.3823 
        2.76462          80.166         7.27928 
        2.78034         79.1065         7.17779 
        2.79607         78.1653         7.07814 
        2.81179         77.1463         6.98049 
        2.82749         75.8578          6.8848 
        2.84321         75.2744         6.79079 
        2.85893         74.2945         6.69857 
        2.87462         73.3844         6.60822 
        2.89033         72.4021         6.51945 
        2.90605          71.507         6.43223 
        2.92176         70.6766         6.34666 
        2.93747          70.024         6.26269 
        2.95318         69.1695         6.18022 
        2.96891         68.2984          6.0992 
        2.98456         67.2184         6.01999 
        3.00023         66.7512         5.94207 
        3.01596         65.9749         5.86529 
        3.03164         65.0602         5.79009 
        3.04738         64.2871         5.71598 
         3.0631         63.2691          5.6432 
        3.07883         62.6597         5.57168 
        3.09456          62.042         5.50141 
        3.11026         61.1982         5.43246 
        3.12596         60.4569         5.36471 
        3.14163         59.7969         5.29826 
        3.15734         59.3039         5.23278 
        3.17308         58.6683         5.16826 
        3.18879         57.9396           5.105 
        3.20447         57.0346         5.04289 
         3.2202         56.7019         4.98162 
         3.2359         55.9061         4.92147 
        3.25157         55.1989         4.86247 
        3.26729         54.7423         4.80425 
        3.28304         54.0562         4.74687 
        3.29877           53.38         4.69051 
        3.31446         52.6576         4.63518 
        3.33014         52.3301         4.58079 
        3.34585         51.6647         4.52719 
        3.36158         51.1691         4.47437 
        3.37727         50.5314         4.42256 
        3.39294         49.9405         4.37162 
        3.40867         49.4433         4.32129 
        3.42439         49.0256         4.27179 
        3.44008         48.3125         4.22316 
        3.45578         47.7357         4.17524 
        3.47153         47.3713         4.12797 
        3.48724         46.9093         4.08151 
        3.50292         46.3224         4.03588 
        3.51859         45.9217         3.99096 
        3.53431         45.3319         3.94659 
        3.55007         44.7334         3.90278 
        3.56577         44.4492         3.85981 
        3.58146         44.0561         3.81751 
        3.59719         43.5382         3.77574 
        3.61292         42.9607         3.73461 
        3.62859         42.4719         3.69425 
        3.64429         42.1481         3.65441 
        3.66003         41.6825         3.61503 
        3.67578         41.2096         3.57625 
        3.69146         40.8599         3.53819 
        3.70712         40.3658         3.50074 
        3.72284         39.9682          3.4637 
        3.73853         39.6044         3.42726 
        3.75422          39.211         3.39133 
        3.76993         38.7881         3.35589 
        3.78564         38.2643         3.32096 
        3.80137         37.9508         3.28648 
        3.81707          37.671         3.25256 
        3.83279         37.1634         3.21909 
        3.84853         36.8685         3.18603 
        3.86424         36.4298         3.15351 
        3.87992         36.0344         3.12148 
        3.89561         35.6854          3.0899 
        3.91134         35.4789         3.05869 
        3.92704         35.0446         3.02795 
        3.94273         34.7323         2.99766 
        3.95845          34.403         2.96773 
        3.97418         34.0222         2.93821 
        3.98988         33.5599         2.90912 
        4.00554         33.3345         2.88051 
        4.02125         33.0787          2.8522 
        4.03698            32.7         2.82423 
        4.05268         32.3431         2.79669 
        4.06839         32.0286          2.7695 
         4.0841         31.7366         2.74268 
        4.09983         31.5013         2.71618 
        4.11555         31.0458         2.69004 
        4.13124         30.7827         2.66432 
        4.14693         30.5579         2.63891 
        4.16266         30.2642         2.61377 
        4.17839         29.9941         2.58897 
        4.19408         29.6759         2.56456 
        4.20977         29.3408         2.54044 
        4.22551         29.1422         2.51658 
        4.24123         28.9023         2.49305 
        4.25691         28.5127         2.46989 
        4.27259          28.331         2.44701 
        4.28831         28.0665         2.42437 
        4.30404         27.8161           2.402 
        4.31974          27.467         2.37996 
        4.33543         27.3111         2.35821 
        4.35116         27.0644         2.33668 
        4.36688         26.7365         2.31543 
        4.38255         26.5223         2.29452 
        4.39825         26.2488         2.27382 
        4.41398         26.0846         2.25334 
         4.4297         25.8199         2.23313 
        4.44541           25.51         2.21317 
        4.46111         25.2991         2.19347 
        4.47683         25.1296           2.174 
        4.49251         24.8253          2.1548 
        4.50819         24.6208         2.13584 
         4.5239         24.3642         2.11708 
        4.53962         24.2067         2.09852 
        4.55535         23.9538         2.08018 
        4.57106         23.7893         2.06208 
        4.58678         23.5433         2.04419 
         4.6025         23.3657         2.02651 
        4.61821         23.0893         2.00904 
        4.63391          22.907          1.9918 
         4.6496         22.7126         1.97477 
        4.66532         22.5858         1.95791 
        4.68103           22.26         1.94126 
        4.69673          22.131         1.92482 
        4.71241         21.9679         1.90858 
        4.72811         21.7386          1.8925 
        4.74384          21.605         1.87659 
        4.75955         21.3747         1.86089 
        4.77525         21.1872         1.84537 
        4.79096         21.0018         1.83001 
        4.80669         20.8055         1.81482 
         4.8224         20.6162         1.79982 
        4.83809         20.5111           1.785 
        4.85379         20.2485         1.77034 
         4.8695         20.0866         1.75583 
        4.88521         19.9724          1.7415 
        4.90093         19.7532         1.72732 
        4.91663         19.6079         1.71331 
        4.93234         19.4705         1.69944 
        4.94807         19.2907         1.68572 
        4.96377         19.1224         1.67217 
        4.97943          18.931          1.6588 
        4.99514         18.7917         1.64554 
        5.01086         18.6478         1.63242 
        5.02654         18.4882         1.61947 
        5.04227         18.3415         1.60662 
          5.058         18.2185         1.59391 
        5.07371         18.0217         1.58136 
        5.08942         17.8704         1.56895 
        5.10513         17.7159         1.55666 
        5.12084         17.6061          1.5445 
        5.13656         17.4507         1.53248 
        5.15225         17.2855          1.5206 
        5.16796         17.1865         1.50883 
        5.18369         17.0257         1.49717 
         5.1994         16.8629         1.48566 
        5.21509         16.7348         1.47428 
        5.23079         16.5453           1.463 
        5.24649          16.467         1.45185 
        5.26217         16.3529         1.44083 
        5.27788         16.1831          1.4299 
        5.29359         16.0746         1.41908 
        5.30933         15.9487         1.40837 
        5.32504         15.8485         1.39777 
        5.34073         15.6911          1.3873 
        5.35646         15.5714         1.37692 
        5.37218         15.4426         1.36664 
        5.38789         15.3099         1.35648 
        5.40357         15.1826         1.34644 
        5.41929         15.1099         1.33648 
        5.43502         14.9304         1.32661 
         5.4507         14.8437         1.31687 
        5.46639         14.7234         1.30723 
        5.48212         14.5854         1.29765 
        5.49786         14.5034         1.28817 
        5.51353         14.3727         1.27882 
        5.52921         14.2684         1.26956 
        5.54495         14.1395         1.26037 
        5.56066         14.0657         1.25127 
        5.57637         13.9717         1.24226 
        5.59207         13.8436         1.23336 
        5.60778         13.7371         1.22453 
        5.62346         13.5957         1.21581 
        5.63916         13.5555         1.20716 
        5.65487         13.4303         1.19859 
         5.6706         13.3316         1.19009 
        5.68633         13.2173         1.18167 
        5.70203         13.1029         1.17335 
        5.71773         13.0273         1.16512 
        5.73344         12.9271         1.15696 
        5.74916         12.8271         1.14886 
        5.76486         12.7321         1.14086 
        5.78054         12.6595         1.13295 
        5.79626         12.5562         1.12508 
          5.812         12.4394         1.11729 
         5.8277         12.3521         1.10959 
        5.84339         12.2381         1.10196 
        5.85911           12.18         1.09439 
        5.87484          12.072          1.0869 
        5.89053         11.9989         1.07948 
        5.90623          11.899         1.07214 
        5.92195         11.8437         1.06485 
        5.93767         11.7023         1.05763 
        5.95336         11.6469         1.05049 
        5.96905          11.581         1.04342 
        5.98476         11.4645          1.0364 
        6.00048         11.3895         1.02945 
        6.01617         11.3138         1.02257 
        6.03185         11.2163         1.01576 
        6.04756          11.146         1.00899 
        6.06331         11.0488         1.00228 
        6.07903         10.9749        0.995634 
        6.09473         10.9068        0.989058 
        6.11044         10.8153        0.982536 
        6.12616           10.75        0.976074 
        6.14186           10.67        0.969676 
        6.15755         10.6025        0.963336 
        6.17326         10.5222        0.957048 
        6.18898         10.4499        0.950813 
        6.20467         10.3764        0.944644 
        6.22036         10.3029        0.938531 
         6.2361         10.2327        0.932455 
         6.2518         10.1477        0.926443 
        6.26748         10.1006        0.920497 
        6.28319         10.0173        0.914587 
        6.29893         9.93219        0.908724 
        6.31463         9.87335        0.902922 
        6.33033         9.80218        0.897172 
        6.34604         9.73288        0.891468 
        6.36177         9.66489        0.885809 
        6.37747         9.59899        0.880209 
