# k  (h/Mpc)    Pcb(k)  (Mpc/h)^3    Pcb_linear(k) (Mpc/h)^3   ShotnoiseSubtracted = true
      0.0200456         2126.44         1847.18 
      0.0350414         1503.15         1319.57 
      0.0492313         1035.32         956.094 
      0.0637834         773.081          796.28 
      0.0800726         608.911         624.583 
       0.096163         438.531         449.181 
       0.111083         379.553         361.469 
       0.126058         323.366           321.6 
       0.142273         256.772         268.593 
       0.158546         214.538         210.887 
        0.17375         181.871         179.725 
       0.188953         167.448         163.266 
       0.204907         137.997         142.785 
       0.220756         125.421         120.132 
        0.23588          104.73         105.389 
         0.2514         99.4602         96.1659 
       0.267535         90.7936         86.3438 
       0.283568         77.9599         75.7593 
       0.299022         67.6835         67.8279 
       0.314451         66.6517         62.2214 
       0.330372         58.5696         56.8565 
       0.346141          56.214         51.4049 
       0.361624         50.9553         46.8059 
       0.377134         46.2019         43.1827 
       0.392932         43.1687         39.9027 
       0.408854         40.9204         36.6882 
       0.424564         37.1978         33.8243 
       0.440253         34.6172         31.4061 
       0.455999         32.6335          29.252 
       0.471626         30.6023         27.2406 
        0.48727         28.4071         25.3894 
       0.502856         26.6412         23.7507 
       0.518488         25.4503         22.2742 
       0.534347         24.1152         20.8885 
       0.550082         22.7954         19.6146 
       0.565732         21.5257         18.4609 
       0.581496         20.5155         17.4014 
       0.597222          19.188          16.425 
       0.612804          18.234         15.5265 
       0.628434         17.8963         14.6926 
       0.644267         16.7507         13.9142 
       0.660051         16.0265         13.1953 
       0.675724         15.3782         12.5312 
       0.691403         14.5925         11.9122 
       0.707174         14.1567         11.3316 
       0.722871         13.3774         10.7919 
        0.73838         12.7943         10.2932 
       0.754018         12.3438         9.82222 
       0.769845         11.7527         9.37564 
        0.78569         11.2975         8.95648 
       0.801365         10.9062         8.56716 
       0.817031         10.5673         8.20136 
       0.832809         10.0787         7.85472 
       0.848511         9.89333         7.52977 
       0.864097         9.49477         7.22554 
       0.879701         9.19947          6.9379 
       0.895507         8.87242         6.66261 
       0.911279          8.5546          6.4029 
        0.92691         8.26575         6.15925 
       0.942635         8.04929         5.92699 
       0.958396         7.79385         5.70627 
       0.974128         7.61952         5.49723 
       0.989692         7.28929         5.30077 
        1.00528         7.09455         5.11367 
        1.02113         6.85142         4.93269 
        1.03692         6.64613         4.76118 
        1.05264         6.46485         4.59865 
        1.06832         6.34734         4.44399 
        1.08405         6.06717         4.29605 
        1.09979         5.93718          4.1548 
        1.11537         5.84187         4.02131 
        1.13105         5.64652         3.89292 
        1.14679         5.49929         3.76967 
        1.16256         5.40004         3.65153 
        1.17828         5.23978         3.53886 
        1.19395         5.11396         3.43134 
         1.2097         5.01643         3.32776 
        1.22537         4.87227         3.22897 
          1.241         4.72794         3.13451 
        1.25666         4.61019          3.0436 
        1.27241         4.53921         2.95589 
        1.28819         4.41407          2.8715 
        1.30392         4.35627         2.79065 
        1.31957         4.24549         2.71329 
        1.33529         4.15657         2.63859 
        1.35108         4.02543         2.56642 
        1.36674         3.98592         2.49747 
         1.3824         3.85302         2.43112 
        1.39811         3.76897         2.36697 
        1.41389         3.69012          2.3049 
        1.42964         3.64719         2.24516 
        1.44531         3.53882         2.18784 
        1.46101          3.4782         2.13241 
        1.47667         3.41219         2.07906 
        1.49229          3.3464         2.02769 
        1.50793         3.26448           1.978 
        1.52367         3.22165         1.92966 
        1.53953         3.16496         1.88262 
        1.55526         3.09674         1.83752 
        1.57092         3.01227         1.79409 
        1.58662         2.97186         1.75196 
        1.60235         2.92431         1.71111 
        1.61809         2.87001         1.67155 
        1.63369         2.81642         1.63359 
        1.64941         2.79121         1.59653 
        1.66519         2.72086          1.5605 
        1.68085         2.66503         1.52584 
        1.69652         2.62345         1.49222 
        1.71228         2.59829         1.45943 
        1.72806         2.54627          1.4276 
        1.74368         2.49629         1.39704 
        1.75933         2.44913         1.36731 
        1.77505         2.40828         1.33832 
        1.79081         2.37382         1.31011 
         1.8065         2.33401         1.28284 
        1.82218         2.29214         1.25637 
        1.83797         2.26258         1.23047 
        1.85367         2.21948         1.20544 
        1.86928         2.18502         1.18126 
        1.88497         2.15628         1.15762 
        1.90073         2.11882         1.13453 
        1.91647         2.09368          1.1121 
        1.93218         2.04859         1.09032 
        1.94787           2.025         1.06916 
        1.96363         1.98392         1.04847 
        1.97935         1.97095         1.02838 
        1.99499         1.94032         1.00893 
        2.01064         1.90973        0.989949 
         2.0264         1.89011        0.971342 
        2.04216          1.8621        0.953224 
        2.05781         1.82393        0.935682 
        2.07353          1.8012         0.91852 
        2.08928         1.77999        0.901752 
        2.10499         1.75454        0.885447 
        2.12065         1.72744        0.869596 
        2.13633          1.6931        0.854119 
        2.15211           1.676        0.838919 
        2.16785         1.65856        0.824132 
        2.18349         1.64087        0.809795 
        2.19916         1.61778        0.795769 
        2.21489         1.58587         0.78203 
        2.23063         1.57136        0.768605 
         2.2463         1.54827        0.755557 
        2.26194         1.53498        0.742844 
        2.27765         1.51129        0.730359 
        2.29341          1.4922        0.718129 
        2.30914         1.47157        0.706205 
        2.32486         1.45398        0.694558 
        2.34061         1.43553        0.683154 
        2.35635         1.41252        0.672017 
        2.37203         1.40843        0.661167 
        2.38768         1.39312         0.65058 
        2.40339         1.36962        0.640186 
        2.41914          1.3493        0.629995 
        2.43483         1.33771        0.620062 
         2.4505         1.31397         0.61036 
        2.46622         1.29999        0.600833 
        2.48195         1.28518        0.591508 
        2.49759         1.27546        0.582431 
        2.51328         1.25853        0.573522 
        2.52906         1.23713        0.564742 
        2.54479         1.22918        0.556179 
        2.56049         1.21281         0.54781 
        2.57618          1.2047        0.539621 
        2.59189         1.18365        0.531587 
        2.60758         1.17252         0.52373 
        2.62325         1.16339         0.51604 
        2.63898         1.15102        0.508479 
        2.65468         1.13394        0.501085 
        2.67044         1.12453        0.493806 
        2.68618           1.115        0.486689 
        2.70184         1.10095        0.479741 
        2.71755         1.08519        0.472911 
        2.73329         1.07488        0.466204 
        2.74897         1.06587        0.459648 
        2.76462         1.05013        0.453234 
        2.78034         1.03937        0.446915 
        2.79607         1.02954         0.44071 
        2.81179         1.02175         0.43463 
        2.82749         1.01014        0.428672 
        2.84321         1.00013        0.422819 
        2.85893        0.992995        0.417077 
        2.87462        0.980646        0.411451 
        2.89033        0.969397        0.405924 
        2.90605        0.960451        0.400494 
        2.92176        0.950578        0.395166 
        2.93747        0.945428        0.389937 
        2.95318        0.940317        0.384803 
        2.96891        0.927061        0.379758 
        2.98456        0.912174        0.374826 
        3.00023        0.907077        0.369974 
        3.01596        0.896075        0.365194 
        3.03164        0.892626        0.360511 
        3.04738        0.882406        0.355897 
         3.0631        0.871749        0.351366 
        3.07883        0.867143        0.346912 
        3.09456        0.858087        0.342537 
        3.11026        0.850404        0.338244 
        3.12596        0.842049        0.334026 
        3.14163        0.835448        0.329888 
        3.15734        0.829115        0.325812 
        3.17308        0.821147        0.321794 
        3.18879         0.81431        0.317855 
        3.20447        0.801905        0.313988 
         3.2202        0.798231        0.310173 
         3.2359        0.789927        0.306428 
        3.25157        0.787667        0.302754 
        3.26729        0.778524         0.29913 
        3.28304        0.774811        0.295557 
        3.29877        0.766562        0.292047 
        3.31446        0.759768        0.288603 
        3.33014        0.752831        0.285216 
        3.34585         0.74486        0.281879 
        3.36158        0.741724         0.27859 
        3.37727        0.733479        0.275364 
        3.39294        0.726452        0.272192 
        3.40867        0.724388        0.269059 
        3.42439         0.71584        0.265977 
        3.44008        0.710785        0.262949 
        3.45578         0.70572        0.259966 
        3.47153        0.699295        0.257022 
        3.48724        0.695901        0.254129 
        3.50292        0.689887        0.251288 
        3.51859        0.685417        0.248491 
        3.53431        0.678324        0.245728 
        3.55007        0.670413        0.243001 
        3.56577         0.66935        0.240326 
        3.58146        0.662555        0.237692 
        3.59719        0.657216        0.235091 
        3.61292        0.653271         0.23253 
        3.62859        0.648625        0.230017 
        3.64429        0.645457        0.227537 
        3.66003        0.638011        0.225085 
        3.67578        0.635534         0.22267 
        3.69146        0.631312          0.2203 
        3.70712        0.626391        0.217969 
        3.72284        0.622293        0.215662 
        3.73853        0.617163        0.213394 
        3.75422        0.613442        0.211156 
        3.76993        0.608139         0.20895 
        3.78564        0.603059        0.206775 
        3.80137        0.599726        0.204628 
        3.81707        0.598474        0.202516 
        3.83279        0.591967        0.200432 
        3.84853         0.58853        0.198374 
        3.86424        0.584185        0.196349 
        3.87992        0.580822        0.194355 
        3.89561        0.575265        0.192388 
        3.91134         0.57337        0.190445 
        3.92704        0.568996        0.188531 
        3.94273        0.563083        0.186645 
        3.95845        0.561118        0.184782 
        3.97418        0.557432        0.182943 
        3.98988        0.554246        0.181132 
        4.00554        0.550496        0.179351 
        4.02125        0.545363        0.177588 
        4.03698        0.541028        0.175846 
        4.05268        0.537312        0.174132 
        4.06839        0.532838        0.172439 
         4.0841        0.526202        0.170769 
        4.09983        0.522714        0.169119 
        4.11555        0.520026        0.167492 
        4.13124        0.514956         0.16589 
        4.14693        0.509741        0.164308 
        4.16266        0.504787        0.162742 
        4.17839        0.502215        0.161199 
        4.19408        0.498406        0.159678 
        4.20977        0.494895        0.158177 
        4.22551        0.490046        0.156691 
        4.24123         0.48735        0.155226 
        4.25691        0.484318        0.153784 
        4.27259        0.481221        0.152359 
        4.28831        0.476092         0.15095 
        4.30404         0.47378        0.149557 
        4.31974        0.470839        0.148185 
        4.33543        0.467363        0.146831 
        4.35116        0.464587         0.14549 
        4.36688         0.46057        0.144167 
        4.38255        0.458701        0.142865 
        4.39825        0.456271        0.141576 
        4.41398        0.454755        0.140301 
         4.4297        0.451018        0.139042 
        4.44541        0.448045          0.1378 
        4.46111        0.447746        0.136573 
        4.47683        0.444151        0.135361 
        4.49251        0.440951        0.134165 
        4.50819        0.440426        0.132985 
         4.5239        0.437381        0.131817 
        4.53962        0.435566        0.130661 
        4.55535        0.434245        0.129519 
        4.57106        0.431469        0.128392 
        4.58678        0.428638        0.127278 
         4.6025        0.427519        0.126178 
        4.61821        0.425674         0.12509 
        4.63391        0.423974        0.124017 
         4.6496        0.421947        0.122956 
        4.66532        0.421591        0.121907 
        4.68103        0.418633         0.12087 
        4.69673        0.418388        0.119846 
        4.71241        0.416525        0.118835 
        4.72811        0.414255        0.117834 
        4.74384        0.413211        0.116843 
        4.75955        0.412627        0.115865 
        4.77525        0.410285        0.114899 
        4.79096        0.409753        0.113943 
        4.80669        0.408523        0.112997 
         4.8224        0.408824        0.112063 
        4.83809        0.407266         0.11114 
        4.85379        0.405953        0.110228 
         4.8695         0.40475        0.109324 
        4.88521        0.403988        0.108432 
        4.90093        0.403437        0.107549 
        4.91663           0.403        0.106677 
        4.93234        0.402475        0.105813 
        4.94807        0.402093        0.104959 
        4.96377        0.402058        0.104115 
        4.97943        0.402704        0.103283 
        4.99514        0.399756        0.102457 
        5.01086        0.400834         0.10164 
        5.02654        0.398817        0.100834 
        5.04227        0.399181        0.100034 
          5.058        0.399697       0.0992426 
        5.07371        0.398453       0.0984613 
        5.08942         0.39913       0.0976882 
        5.10513        0.398481       0.0969234 
        5.12084        0.399401       0.0961663 
        5.13656        0.398814       0.0954176 
        5.15225        0.397999        0.094678 
        5.16796        0.400413       0.0939451 
        5.18369        0.398763       0.0932192 
         5.1994        0.399143       0.0925024 
        5.21509        0.400347       0.0917937 
        5.23079        0.400922       0.0910916 
        5.24649        0.398541       0.0903974 
        5.26217        0.400492       0.0897109 
        5.27788         0.40106       0.0890306 
        5.29359        0.401077       0.0883572 
        5.30933         0.40129       0.0876898 
        5.32504        0.402353       0.0870304 
        5.34073        0.403061       0.0863785 
        5.35646        0.401839        0.085732 
        5.37218        0.404203       0.0850919 
        5.38789         0.40358       0.0844594 
        5.40357        0.404354       0.0838341 
        5.41929         0.40483       0.0832137 
        5.43502        0.406201       0.0825995 
         5.4507        0.406123        0.081993 
        5.46639         0.40636       0.0813925 
        5.48212        0.408168       0.0807966 
        5.49786        0.408366       0.0802059 
        5.51353        0.411257       0.0796241 
        5.52921        0.409281       0.0790474 
        5.54495        0.412081       0.0784748 
        5.56066         0.41263       0.0779085 
        5.57637        0.412977       0.0773478 
        5.59207        0.414075       0.0767931 
        5.60778        0.415394       0.0762437 
        5.62346        0.415723       0.0757004 
        5.63916        0.416076       0.0751618 
        5.65487        0.418539       0.0746283 
         5.6706        0.420026       0.0740993 
        5.68633        0.421834       0.0735752 
        5.70203        0.420986       0.0730572 
        5.71773        0.423245       0.0725444 
        5.73344         0.42414       0.0720361 
        5.74916         0.42548       0.0715323 
        5.76486        0.427239        0.071034 
        5.78054        0.427328       0.0705412 
        5.79626        0.428672       0.0700517 
          5.812        0.430716       0.0695663 
         5.8277        0.431752       0.0690869 
        5.84339        0.431992       0.0686121 
        5.85911        0.433571       0.0681408 
        5.87484        0.434851        0.067674 
        5.89053        0.434471       0.0672126 
        5.90623        0.436098       0.0667552 
        5.92195        0.438169       0.0663012 
        5.93767        0.438413       0.0658518 
        5.95336        0.440235       0.0654072 
        5.96905        0.441562       0.0649669 
        5.98476        0.441043       0.0645301 
        6.00048        0.442543       0.0640971 
        6.01617         0.44474       0.0636686 
        6.03185        0.446587       0.0632446 
        6.04756        0.446687       0.0628235 
        6.06331        0.448905       0.0624052 
        6.07903        0.450615       0.0619917 
        6.09473        0.450896       0.0615823 
        6.11044        0.452594       0.0611762 
        6.12616        0.454365       0.0607738 
        6.14186        0.455306       0.0603755 
        6.15755        0.455354       0.0599807 
        6.17326        0.457902       0.0595892 
        6.18898        0.458904        0.059201 
        6.20467        0.458797       0.0588169 
        6.22036        0.461719       0.0584363 
         6.2361        0.462082        0.058058 
         6.2518        0.464213       0.0576836 
        6.26748        0.463129       0.0573134 
        6.28319        0.465314       0.0569454 
        6.29893        0.466412       0.0565804 
        6.31463        0.469355       0.0562191 
        6.33033        0.467509       0.0558611 
        6.34604        0.469128        0.055506 
        6.36177        0.469857       0.0551536 
        6.37747        0.472097       0.0548049 
