# k  (h/Mpc)    Pcb(k)  (Mpc/h)^3    Pcb_linear(k) (Mpc/h)^3   ShotnoiseSubtracted = true
      0.0200456         13053.3         11337.4 
      0.0350414         9033.36         8099.05 
      0.0492313         6203.21         5868.18 
      0.0637834         4761.81          4887.3 
      0.0800726         3643.28         3833.48 
       0.096163         2680.38         2756.92 
       0.111083         2357.59         2218.58 
       0.126058         2034.38         1973.87 
       0.142273         1666.16         1648.53 
       0.158546         1415.11         1294.35 
        0.17375          1179.3         1103.09 
       0.188953         1079.52         1002.07 
       0.204907         906.916         876.365 
       0.220756          861.18         737.332 
        0.23588         749.185         646.845 
         0.2514         677.646         590.234 
       0.267535         632.373         529.949 
       0.283568         576.102         464.985 
       0.299022         511.361         416.305 
       0.314451         502.719         381.894 
       0.330372         454.881         348.966 
       0.346141         433.212         315.506 
       0.361624          394.56         287.279 
       0.377134         374.137         265.041 
       0.392932         355.157         244.909 
       0.408854         340.976         225.179 
       0.424564         312.616         207.602 
       0.440253         307.788          192.76 
       0.455999         286.634         179.539 
       0.471626          283.54         167.193 
        0.48727         258.856         155.832 
       0.502856         251.766         145.774 
       0.518488         245.167         136.712 
       0.534347         227.281         128.206 
       0.550082         225.214         120.387 
       0.565732         215.376         113.306 
       0.581496         207.236         106.804 
       0.597222         197.672         100.811 
       0.612804           193.9         95.2962 
       0.628434         188.498         90.1783 
       0.644267          181.96         85.4009 
       0.660051         177.245         80.9884 
       0.675724         168.657         76.9123 
       0.691403         167.127         73.1132 
       0.707174         159.618         69.5492 
       0.722871         154.637          66.237 
        0.73838         151.312          63.176 
       0.754018         148.798         60.2854 
       0.769845         144.553         57.5445 
        0.78569         141.453         54.9718 
       0.801365         136.331         52.5823 
       0.817031         134.758         50.3372 
       0.832809         129.686         48.2096 
       0.848511         128.215         46.2152 
       0.864097         124.344         44.3479 
       0.879701         122.193         42.5825 
       0.895507         118.776         40.8929 
       0.911279         115.642         39.2988 
        0.92691         113.977         37.8034 
       0.942635         112.077         36.3779 
       0.958396         109.673         35.0231 
       0.974128         107.199         33.7402 
       0.989692         105.017         32.5344 
        1.00528         103.707          31.386 
        1.02113         100.439         30.2752 
        1.03692          98.758         29.2225 
        1.05264         97.2228         28.2249 
        1.06832          95.626         27.2757 
        1.08405         94.4638         26.3677 
        1.09979         91.4015         25.5007 
        1.11537         89.8756         24.6815 
        1.13105         88.1098         23.8934 
        1.14679         87.0142         23.1369 
        1.16256         85.4025         22.4118 
        1.17828         83.9817         21.7203 
        1.19395          82.759         21.0604 
         1.2097          80.613         20.4247 
        1.22537         79.2341         19.8183 
          1.241         77.9546         19.2386 
        1.25666         76.7044         18.6806 
        1.27241         75.6614         18.1422 
        1.28819         73.5778         17.6243 
        1.30392         73.3814         17.1281 
        1.31957         72.7869         16.6533 
        1.33529         70.5777         16.1948 
        1.35108         70.0386         15.7518 
        1.36674         68.3252         15.3286 
         1.3824         67.5216         14.9214 
        1.39811         66.3656         14.5277 
        1.41389         65.2025         14.1467 
        1.42964         64.2613         13.7801 
        1.44531         62.9488         13.4282 
        1.46101         62.3377          13.088 
        1.47667         61.1758         12.7606 
        1.49229         60.3522         12.4453 
        1.50793         59.4514         12.1403 
        1.52367         58.0296         11.8436 
        1.53953         57.8574         11.5549 
        1.55526         57.0057         11.2781 
        1.57092         55.7204         11.0115 
        1.58662         55.3477          10.753 
        1.60235         53.6881         10.5022 
        1.61809          53.377         10.2594 
        1.63369         52.7748         10.0264 
        1.64941         51.6623         9.79899 
        1.66519         50.7458         9.57783 
        1.68085         50.3567         9.36509 
        1.69652         49.6855         9.15876 
        1.71228         49.0398         8.95749 
        1.72806         48.4221         8.76212 
        1.74368          47.628         8.57456 
        1.75933         47.1216         8.39211 
        1.77505         46.3826         8.21414 
        1.79081         45.5751         8.04102 
         1.8065          45.023         7.87364 
        1.82218         44.5609         7.71119 
        1.83797         44.0682         7.55221 
        1.85367         43.0283          7.3986 
        1.86928         42.7144          7.2502 
        1.88497         42.0371         7.10506 
        1.90073          41.685         6.96337 
        1.91647          40.934         6.82568 
        1.93218         40.2058           6.692 
        1.94787         40.1079         6.56211 
        1.96363         39.3393         6.43516 
        1.97935         38.9221         6.31184 
        1.99499          38.187         6.19244 
        2.01064         37.7439         6.07597 
         2.0264         37.4365         5.96177 
        2.04216         36.8389         5.85056 
        2.05781         36.3437          5.7429 
        2.07353         35.8303         5.63756 
        2.08928         35.4857         5.53465 
        2.10499         34.9978         5.43457 
        2.12065         34.5424         5.33728 
        2.13633          34.111         5.24229 
        2.15211         33.5998           5.149 
        2.16785         33.1084         5.05824 
        2.18349         33.0479         4.97025 
        2.19916         32.3648         4.88416 
        2.21489         31.9296         4.79983 
        2.23063         31.5332         4.71744 
         2.2463         31.1679         4.63735 
        2.26194         30.6968         4.55933 
        2.27765         30.4283          4.4827 
        2.29341         30.0063         4.40763 
        2.30914         29.6189         4.33444 
        2.32486         29.2872         4.26296 
        2.34061         28.8678         4.19297 
        2.35635         28.4957         4.12461 
        2.37203         28.1148         4.05802 
        2.38768         27.8644         3.99304 
        2.40339         27.6519         3.92924 
        2.41914         27.3278         3.86669 
        2.43483         26.9199         3.80573 
         2.4505         26.4572         3.74618 
        2.46622         26.2623         3.68771 
        2.48195          25.915         3.63048 
        2.49759         25.6435         3.57477 
        2.51328         25.2981         3.52008 
        2.52906         25.0615         3.46619 
        2.54479         24.7093         3.41364 
        2.56049         24.3087         3.36227 
        2.57618         24.0854         3.31201 
        2.59189         23.8956          3.2627 
        2.60758         23.6321         3.21447 
        2.62325         23.3346         3.16728 
        2.63898         23.1102         3.12087 
        2.65468         22.7741         3.07549 
        2.67044         22.4793         3.03082 
        2.68618         22.2522         2.98713 
        2.70184         22.0583         2.94449 
        2.71755         21.8459         2.90257 
        2.73329         21.3937          2.8614 
        2.74897         21.2781         2.82117 
        2.76462         20.9714         2.78179 
        2.78034         20.8257         2.74301 
        2.79607         20.5807         2.70493 
        2.81179         20.3729         2.66761 
        2.82749         20.0643         2.63104 
        2.84321         19.8957         2.59512 
        2.85893          19.666         2.55987 
        2.87462         19.4422         2.52535 
        2.89033         19.1765         2.49142 
        2.90605         19.0509         2.45809 
        2.92176         18.8021         2.42539 
        2.93747         18.5589          2.3933 
        2.95318         18.3843         2.36179 
        2.96891         18.2196         2.33082 
        2.98456         18.0342         2.30055 
        3.00023         17.8394         2.27078 
        3.01596         17.5673         2.24144 
        3.03164         17.4193          2.2127 
        3.04738           17.25         2.18438 
         3.0631         17.0404         2.15656 
        3.07883         16.8459         2.12923 
        3.09456         16.6885         2.10238 
        3.11026          16.478         2.07603 
        3.12596         16.3058         2.05014 
        3.14163         16.1364         2.02474 
        3.15734          15.948         1.99972 
        3.17308         15.8075         1.97506 
        3.18879         15.6471         1.95089 
        3.20447         15.4727         1.92715 
         3.2202         15.2776         1.90374 
         3.2359         15.2141         1.88075 
        3.25157         14.9609          1.8582 
        3.26729         14.8175         1.83596 
        3.28304         14.6793         1.81403 
        3.29877         14.5695         1.79249 
        3.31446         14.3909         1.77134 
        3.33014          14.277         1.75056 
        3.34585         14.1209         1.73008 
        3.36158         13.9625         1.70989 
        3.37727         13.8367         1.69009 
        3.39294         13.6517         1.67062 
        3.40867         13.5394         1.65139 
        3.42439         13.3898         1.63248 
        3.44008         13.2457         1.61389 
        3.45578         13.1181         1.59558 
        3.47153         12.9581         1.57751 
        3.48724         12.8746         1.55976 
        3.50292         12.7307         1.54232 
        3.51859         12.6191         1.52515 
        3.53431         12.4748          1.5082 
        3.55007         12.3234         1.49146 
        3.56577         12.2379         1.47504 
        3.58146         12.1023         1.45887 
        3.59719         11.9827         1.44291 
        3.61292         11.8918         1.42719 
        3.62859         11.7468         1.41177 
        3.64429         11.6323         1.39654 
        3.66003         11.5216         1.38149 
        3.67578         11.4274         1.36667 
        3.69146         11.3517         1.35213 
        3.70712         11.2038         1.33782 
        3.72284         11.0807         1.32366 
        3.73853         10.9938         1.30974 
        3.75422         10.9085         1.29601 
        3.76993         10.7764         1.28246 
        3.78564         10.6422         1.26911 
        3.80137         10.5842         1.25594 
        3.81707         10.4722         1.24297 
        3.83279          10.365         1.23018 
        3.84853         10.2724         1.21755 
        3.86424         10.1409         1.20512 
        3.87992         10.1264         1.19288 
        3.89561         9.97194         1.18081 
        3.91134         9.90002         1.16889 
        3.92704         9.80241         1.15714 
        3.94273         9.67961         1.14556 
        3.95845         9.61635         1.13413 
        3.97418          9.5372         1.12284 
        3.98988         9.43053         1.11173 
        4.00554         9.33719         1.10079 
        4.02125         9.27693         1.08997 
        4.03698         9.15201         1.07928 
        4.05268         9.10352         1.06876 
        4.06839         9.03193         1.05837 
         4.0841         8.92967         1.04812 
        4.09983         8.82628           1.038 
        4.11555         8.74872         1.02801 
        4.13124         8.69853         1.01818 
        4.14693         8.63528         1.00846 
        4.16266         8.54273        0.998858 
        4.17839         8.45243        0.989383 
        4.19408         8.39457        0.980051 
        4.20977         8.31027        0.970836 
        4.22551         8.23595        0.961718 
        4.24123         8.17197        0.952726 
        4.25691          8.0975        0.943873 
        4.27259         8.02404         0.93513 
        4.28831         7.96477         0.92648 
        4.30404         7.87245        0.917931 
        4.31974         7.81904        0.909509 
        4.33543         7.75054        0.901197 
        4.35116         7.66245        0.892969 
        4.36688         7.59563        0.884847 
        4.38255         7.53166        0.876856 
        4.39825         7.49044        0.868946 
        4.41398         7.41769        0.861118 
         4.4297         7.36741        0.853395 
        4.44541          7.2991        0.845768 
        4.46111         7.22436         0.83824 
        4.47683         7.17692        0.830798 
        4.49251         7.10382        0.823462 
        4.50819         7.05767        0.816216 
         4.5239         6.97875        0.809047 
        4.53962         6.91679        0.801955 
        4.55535         6.87037        0.794944 
        4.57106         6.82696        0.788028 
        4.58678         6.74733        0.781192 
         4.6025         6.71444        0.774435 
        4.61821         6.62999         0.76776 
        4.63391         6.60036        0.761172 
         4.6496         6.54906        0.754664 
        4.66532         6.48935        0.748222 
        4.68103         6.42395        0.741858 
        4.69673         6.39024        0.735573 
        4.71241         6.32363        0.729368 
        4.72811         6.28624        0.723224 
        4.74384         6.22946        0.717144 
        4.75955         6.17788        0.711142 
        4.77525         6.12782        0.705212 
        4.79096         6.07587        0.699343 
        4.80669         6.02673        0.693537 
         4.8224         5.98057        0.687804 
        4.83809         5.93508        0.682142 
        4.85379         5.88417         0.67654 
         4.8695         5.83811        0.670997 
        4.88521         5.78158        0.665518 
        4.90093         5.74373        0.660099 
        4.91663         5.70383        0.654745 
        4.93234         5.64141        0.649445 
        4.94807         5.63193          0.6442 
        4.96377         5.56745        0.639023 
        4.97943         5.52076        0.633914 
        4.99514         5.49403        0.628847 
        5.01086         5.43545        0.623832 
        5.02654         5.39408        0.618884 
        5.04227         5.35526        0.613975 
          5.058         5.32594        0.609118 
        5.07371         5.27485        0.604322 
        5.08942         5.23424        0.599577 
        5.10513         5.18301        0.594883 
        5.12084         5.14792        0.590236 
        5.13656         5.11072        0.585641 
        5.15225         5.08273        0.581101 
        5.16796         5.03303        0.576603 
        5.18369         5.00142        0.572148 
         5.1994         4.95137        0.567748 
        5.21509         4.93445        0.563399 
        5.23079         4.88778        0.559089 
        5.24649         4.85052        0.554829 
        5.26217         4.81723        0.550615 
        5.27788         4.77418         0.54644 
        5.29359         4.73067        0.542307 
        5.30933         4.70736         0.53821 
        5.32504         4.67602        0.534163 
        5.34073         4.63706        0.530162 
        5.35646         4.59479        0.526194 
        5.37218         4.56286        0.522265 
        5.38789         4.54758        0.518383 
        5.40357         4.51289        0.514545 
        5.41929         4.46921        0.510738 
        5.43502         4.43668        0.506968 
         5.4507         4.41153        0.503245 
        5.46639         4.37531        0.499559 
        5.48212         4.34514        0.495902 
        5.49786         4.31447        0.492277 
        5.51353         4.27845        0.488706 
        5.52921         4.25961        0.485166 
        5.54495         4.21838        0.481652 
        5.56066         4.19483        0.478176 
        5.57637         4.15902        0.474734 
        5.59207         4.13483         0.47133 
        5.60778         4.11198        0.467958 
        5.62346         4.08257        0.464623 
        5.63916         4.03891        0.461318 
        5.65487           4.018        0.458043 
         5.6706         3.99593        0.454796 
        5.68633         3.96339        0.451579 
        5.70203         3.93787          0.4484 
        5.71773         3.91553        0.445253 
        5.73344         3.88619        0.442133 
        5.74916         3.86065        0.439041 
        5.76486         3.82695        0.435982 
        5.78054         3.81128        0.432958 
        5.79626         3.78481        0.429953 
          5.812          3.7507        0.426974 
         5.8277          3.7271        0.424032 
        5.84339         3.70678        0.421118 
        5.85911         3.68477        0.418225 
        5.87484         3.65476         0.41536 
        5.89053         3.62885        0.412528 
        5.90623         3.60129        0.409721 
        5.92195         3.58562        0.406934 
        5.93767         3.55703        0.404176 
        5.95336         3.53786        0.401447 
        5.96905         3.51538        0.398745 
        5.98476         3.48909        0.396064 
        6.00048          3.4736        0.393406 
        6.01617         3.44232        0.390776 
        6.03185         3.41993        0.388174 
        6.04756         3.40105        0.385589 
        6.06331         3.37964        0.383022 
        6.07903          3.3595        0.380484 
        6.09473         3.33107        0.377971 
        6.11044         3.31632        0.375479 
        6.12616         3.29332        0.373009 
        6.14186         3.28023        0.370564 
        6.15755         3.25168        0.368141 
        6.17326         3.22913        0.365738 
        6.18898         3.20447        0.363355 
        6.20467         3.18678        0.360998 
        6.22036         3.17449        0.358662 
         6.2361         3.15062         0.35634 
         6.2518          3.1319        0.354043 
        6.26748         3.10983         0.35177 
        6.28319         3.09465        0.349512 
        6.29893         3.07398        0.347271 
        6.31463         3.05404        0.345054 
        6.33033         3.03674        0.342857 
        6.34604         3.01416        0.340677 
        6.36177          3.0027        0.338514 
        6.37747         2.98212        0.336374 
