# k  (h/Mpc)    Pcb(k)  (Mpc/h)^3    Pcb_linear(k) (Mpc/h)^3   ShotnoiseSubtracted = true
      0.0200456         2143.62          1862.1 
      0.0350414         1515.22         1330.23 
      0.0492313         1043.62         963.818 
      0.0637834          779.33         802.713 
      0.0800726         613.789         629.629 
       0.096163         442.058         452.809 
       0.111083         382.624         364.389 
       0.126058         325.994         324.198 
       0.142273         258.872         270.763 
       0.158546         216.304         212.591 
        0.17375         183.348         181.177 
       0.188953          168.81         164.585 
       0.204907         139.117         143.938 
       0.220756         126.464         121.103 
        0.23588         105.605         106.241 
         0.2514         100.277         96.9428 
       0.267535          91.544         87.0413 
       0.283568         78.6179         76.3713 
       0.299022         68.2501         68.3758 
       0.314451          67.218          62.724 
       0.330372         59.0663         57.3158 
       0.346141         56.6959         51.8202 
       0.361624         51.3856          47.184 
       0.377134         46.5984         43.5316 
       0.392932         43.5459          40.225 
       0.408854         41.2782         36.9845 
       0.424564         37.5209         34.0976 
       0.440253         34.9215         31.6598 
       0.455999         32.9221         29.4883 
       0.471626         30.8751         27.4606 
        0.48727         28.6608         25.5945 
       0.502856         26.8785         23.9425 
       0.518488          25.683         22.4542 
       0.534347         24.3334         21.0572 
       0.550082         23.0039          19.773 
       0.565732         21.7243           18.61 
       0.581496         20.7045         17.5419 
       0.597222         19.3655         16.5577 
       0.612804         18.4045         15.6519 
       0.628434         18.0621         14.8113 
       0.644267         16.9076         14.0267 
       0.660051         16.1778         13.3019 
       0.675724         15.5246         12.6324 
       0.691403         14.7323         12.0085 
       0.707174         14.2908         11.4231 
       0.722871         13.5055         10.8791 
        0.73838          12.918         10.3763 
       0.754018         12.4647         9.90157 
       0.769845         11.8678         9.45138 
        0.78569         11.4091         9.02883 
       0.801365         11.0126         8.63636 
       0.817031         10.6704         8.26761 
       0.832809         10.1796         7.91817 
       0.848511         9.99145          7.5906 
       0.864097          9.5897         7.28391 
       0.879701         9.29233         6.99395 
       0.895507         8.96067         6.71644 
       0.911279         8.64153         6.45463 
        0.92691         8.35041         6.20901 
       0.942635         8.13165         5.97487 
       0.958396         7.87319         5.75236 
       0.974128         7.69825         5.54164 
       0.989692          7.3651          5.3436 
        1.00528         7.16814         5.15498 
        1.02113           6.922         4.97254 
        1.03692         6.71534         4.79964 
        1.05264         6.53253          4.6358 
        1.06832          6.4135         4.47989 
        1.08405         6.13136         4.33076 
        1.09979         6.00005         4.18836 
        1.11537         5.90343          4.0538 
        1.13105           5.707         3.92437 
        1.14679         5.55811         3.80012 
        1.16256         5.45737         3.68102 
        1.17828          5.2959         3.56744 
        1.19395         5.16884         3.45906 
         1.2097         5.07089         3.35464 
        1.22537         4.92525         3.25506 
          1.241         4.77977         3.15983 
        1.25666         4.66025         3.06819 
        1.27241         4.58873         2.97977 
        1.28819         4.46268         2.89469 
        1.30392         4.40437          2.8132 
        1.31957         4.29275         2.73521 
        1.33529         4.20277         2.65991 
        1.35108         4.07037         2.58715 
        1.36674         4.03064         2.51764 
         1.3824           3.896         2.45076 
        1.39811         3.81154         2.38609 
        1.41389         3.73156         2.32352 
        1.42964         3.68831          2.2633 
        1.44531         3.57898         2.20552 
        1.46101          3.5176         2.14963 
        1.47667         3.45102         2.09586 
        1.49229         3.38449         2.04407 
        1.50793         3.30162         1.99398 
        1.52367         3.25868         1.94525 
        1.53953         3.20138         1.89783 
        1.55526         3.13228         1.85236 
        1.57092         3.04706         1.80858 
        1.58662          3.0061         1.76612 
        1.60235         2.95805         1.72494 
        1.61809         2.90343         1.68505 
        1.63369         2.84927         1.64678 
        1.64941         2.82366         1.60943 
        1.66519         2.75277         1.57311 
        1.68085         2.69622         1.53817 
        1.69652         2.65423         1.50428 
        1.71228         2.62873         1.47122 
        1.72806         2.57672         1.43913 
        1.74368         2.52576         1.40833 
        1.75933          2.4783         1.37836 
        1.77505         2.43689         1.34913 
        1.79081         2.40207          1.3207 
         1.8065         2.36204          1.2932 
        1.82218         2.31953         1.26652 
        1.83797         2.28947         1.24041 
        1.85367          2.2461         1.21518 
        1.86928         2.21109         1.19081 
        1.88497         2.18225         1.16697 
        1.90073         2.14445          1.1437 
        1.91647          2.1187         1.12108 
        1.93218         2.07327         1.09913 
        1.94787         2.04936         1.07779 
        1.96363         2.00798         1.05694 
        1.97935         1.99454         1.03669 
        1.99499         1.96373         1.01708 
        2.01064         1.93292        0.997947 
         2.0264         1.91318        0.979189 
        2.04216         1.88477        0.960924 
        2.05781         1.84628        0.943241 
        2.07353          1.8233         0.92594 
        2.08928          1.8019        0.909036 
        2.10499           1.776          0.8926 
        2.12065         1.74872         0.87662 
        2.13633         1.71376        0.861019 
        2.15211         1.69667        0.845696 
        2.16785         1.67902         0.83079 
        2.18349         1.66115        0.816337 
        2.19916         1.63771        0.802198 
        2.21489         1.60541        0.788347 
        2.23063         1.59089        0.774815 
         2.2463         1.56748        0.761661 
        2.26194         1.55392        0.748845 
        2.27765         1.53009         0.73626 
        2.29341         1.51072        0.723931 
        2.30914         1.48983         0.71191 
        2.32486         1.47196        0.700168 
        2.34061         1.45339        0.688673 
        2.35635         1.43005        0.677446 
        2.37203         1.42612        0.666509 
        2.38768         1.41046        0.655835 
        2.40339          1.3866        0.645357 
        2.41914         1.36621        0.635084 
        2.43483         1.35459        0.625071 
         2.4505         1.33037        0.615291 
        2.46622         1.31627        0.605686 
        2.48195         1.30142        0.596286 
        2.49759         1.29144        0.587136 
        2.51328         1.27423        0.578155 
        2.52906          1.2527        0.569304 
        2.54479         1.24451        0.560672 
        2.56049         1.22812        0.552236 
        2.57618         1.21978         0.54398 
        2.59189         1.19856        0.535882 
        2.60758         1.18728         0.52796 
        2.62325         1.17813        0.520209 
        2.63898         1.16551        0.512587 
        2.65468         1.14828        0.505133 
        2.67044          1.1387        0.497795 
        2.68618         1.12913        0.490621 
        2.70184         1.11488        0.483616 
        2.71755         1.09884        0.476731 
        2.73329         1.08856         0.46997 
        2.74897         1.07939        0.463362 
        2.76462         1.06338        0.456895 
        2.78034         1.05242        0.450525 
        2.79607          1.0426         0.44427 
        2.81179         1.03477        0.438141 
        2.82749         1.02289        0.432135 
        2.84321         1.01276        0.426234 
        2.85893          1.0055        0.420446 
        2.87462         0.99315        0.414775 
        2.89033        0.981808        0.409203 
        2.90605        0.972634        0.403729 
        2.92176        0.962668        0.398358 
        2.93747        0.957404        0.393087 
        2.95318        0.952178        0.387911 
        2.96891        0.938836        0.382826 
        2.98456        0.923819        0.377854 
        3.00023        0.918538        0.372963 
        3.01596        0.907542        0.368144 
        3.03164        0.903938        0.363424 
        3.04738        0.893593        0.358772 
         3.0631        0.882781        0.354204 
        3.07883        0.878173        0.349715 
        3.09456        0.868982        0.345305 
        3.11026        0.861218        0.340977 
        3.12596         0.85282        0.336724 
        3.14163        0.846103        0.332553 
        3.15734        0.839599        0.328444 
        3.17308        0.831592        0.324394 
        3.18879        0.824697        0.320423 
        3.20447        0.812098        0.316524 
         3.2202        0.808419        0.312679 
         3.2359         0.79992        0.308904 
        3.25157        0.797623          0.3052 
        3.26729        0.788392        0.301546 
        3.28304        0.784704        0.297945 
        3.29877        0.776288        0.294407 
        3.31446        0.769426        0.290934 
        3.33014        0.762444         0.28752 
        3.34585        0.754327        0.284156 
        3.36158        0.751061        0.280841 
        3.37727        0.742873        0.277589 
        3.39294        0.735678        0.274391 
        3.40867        0.733584        0.271233 
        3.42439        0.724927        0.268125 
        3.44008        0.719735        0.265073 
        3.45578        0.714682        0.262066 
        3.47153        0.708198        0.259098 
        3.48724        0.704666        0.256182 
        3.50292        0.698682        0.253318 
        3.51859        0.694031        0.250499 
        3.53431        0.686951        0.247713 
        3.55007        0.678898        0.244964 
        3.56577         0.67782        0.242267 
        3.58146        0.670869        0.239612 
        3.59719        0.665472         0.23699 
        3.61292        0.661532        0.234409 
        3.62859        0.656793        0.231875 
        3.64429        0.653602        0.229375 
        3.66003        0.646025        0.226903 
        3.67578        0.643522        0.224469 
        3.69146        0.639225         0.22208 
        3.70712        0.634283         0.21973 
        3.72284        0.630076        0.217405 
        3.73853        0.624878        0.215117 
        3.75422         0.62115        0.212862 
        3.76993        0.615771        0.210638 
        3.78564        0.610668        0.208445 
        3.80137        0.607266        0.206281 
        3.81707        0.606025        0.204152 
        3.83279        0.599369        0.202051 
        3.84853        0.595906        0.199976 
        3.86424        0.591513        0.197935 
        3.87992        0.588115        0.195925 
        3.89561        0.582394        0.193942 
        3.91134        0.580579        0.191984 
        3.92704        0.576099        0.190054 
        3.94273         0.57013        0.188153 
        3.95845        0.568121        0.186274 
        3.97418        0.564379        0.184421 
        3.98988        0.561178        0.182595 
        4.00554        0.557337          0.1808 
        4.02125        0.552163        0.179023 
        4.03698        0.547744        0.177267 
        4.05268        0.544018        0.175539 
        4.06839        0.539489        0.173832 
         4.0841        0.532813        0.172149 
        4.09983        0.529237        0.170485 
        4.11555        0.526541        0.168845 
        4.13124        0.521407         0.16723 
        4.14693         0.51617        0.165635 
        4.16266        0.511104        0.164057 
        4.17839        0.508484        0.162501 
        4.19408         0.50469        0.160968 
        4.20977        0.501169        0.159455 
        4.22551        0.496223        0.157957 
        4.24123        0.493465         0.15648 
        4.25691        0.490384        0.155026 
        4.27259        0.487255         0.15359 
        4.28831        0.482066        0.152169 
        4.30404        0.479691        0.150765 
        4.31974        0.476768        0.149382 
        4.33543         0.47324        0.148017 
        4.35116        0.470408        0.146665 
        4.36688        0.466324        0.145331 
        4.38255        0.464492        0.144019 
        4.39825        0.461974         0.14272 
        4.41398        0.460402        0.141434 
         4.4297        0.456637        0.140166 
        4.44541         0.45362        0.138913 
        4.46111        0.453338        0.137677 
        4.47683        0.449642        0.136454 
        4.49251        0.446419        0.135249 
        4.50819        0.445888        0.134059 
         4.5239        0.442764        0.132882 
        4.53962        0.440927        0.131717 
        4.55535        0.439602        0.130565 
        4.57106        0.436832        0.129429 
        4.58678        0.433893        0.128307 
         4.6025        0.432787        0.127197 
        4.61821        0.430892        0.126101 
        4.63391        0.429192        0.125018 
         4.6496        0.427129         0.12395 
        4.66532        0.426664        0.122891 
        4.68103         0.42369        0.121846 
        4.69673        0.423461        0.120814 
        4.71241        0.421633        0.119795 
        4.72811        0.419253        0.118786 
        4.74384        0.418104        0.117787 
        4.75955        0.417546        0.116801 
        4.77525        0.415198        0.115827 
        4.79096         0.41466        0.114863 
        4.80669        0.413366         0.11391 
         4.8224         0.41364        0.112968 
        4.83809        0.412067        0.112038 
        4.85379        0.410765        0.111118 
         4.8695        0.409483        0.110208 
        4.88521        0.408701        0.109308 
        4.90093        0.408125        0.108418 
        4.91663        0.407682        0.107538 
        4.93234        0.407073        0.106668 
        4.94807         0.40669        0.105806 
        4.96377        0.406648        0.104956 
        4.97943        0.407278        0.104117 
        4.99514        0.404272        0.103285 
        5.01086        0.405306        0.102461 
        5.02654        0.403316        0.101648 
        5.04227        0.403672        0.100842 
          5.058        0.404139        0.100044 
        5.07371        0.402853       0.0992567 
        5.08942        0.403538       0.0984774 
        5.10513        0.402813       0.0977064 
        5.12084        0.403721       0.0969432 
        5.13656        0.403074       0.0961884 
        5.15225        0.402252       0.0954428 
        5.16796        0.404693        0.094704 
        5.18369         0.40304       0.0939723 
         5.1994        0.403331       0.0932496 
        5.21509        0.404534       0.0925352 
        5.23079        0.405034       0.0918275 
        5.24649        0.402699       0.0911277 
        5.26217         0.40457       0.0904357 
        5.27788        0.405139       0.0897498 
        5.29359        0.405194        0.089071 
        5.30933        0.405259       0.0883982 
        5.32504        0.406308       0.0877335 
        5.34073        0.406987       0.0870763 
        5.35646        0.405784       0.0864245 
        5.37218        0.408105       0.0857793 
        5.38789        0.407526       0.0851417 
        5.40357        0.408215       0.0845114 
        5.41929        0.408644        0.083886 
        5.43502        0.409967       0.0832668 
         5.4507        0.409843       0.0826554 
        5.46639        0.410181         0.08205 
        5.48212        0.411869       0.0814493 
        5.49786        0.411985       0.0808538 
        5.51353        0.414884       0.0802673 
        5.52921        0.412886        0.079686 
        5.54495         0.41566       0.0791087 
        5.56066        0.416172       0.0785378 
        5.57637        0.416496       0.0779726 
        5.59207        0.417567       0.0774135 
        5.60778        0.418821       0.0768596 
        5.62346         0.41922       0.0763119 
        5.63916        0.419482        0.075769 
        5.65487         0.42192       0.0752311 
         5.6706        0.423346       0.0746979 
        5.68633        0.425204       0.0741695 
        5.70203        0.424257       0.0736474 
        5.71773        0.426506       0.0731304 
        5.73344        0.427342       0.0726181 
        5.74916        0.428698       0.0721102 
        5.76486        0.430444       0.0716078 
        5.78054        0.430392        0.071111 
        5.79626        0.431761       0.0706176 
          5.812        0.433786       0.0701283 
         5.8277        0.434832       0.0696451 
        5.84339         0.43498       0.0691664 
        5.85911        0.436613       0.0686913 
        5.87484        0.437808       0.0682207 
        5.89053        0.437434       0.0677555 
        5.90623        0.438993       0.0672944 
        5.92195        0.441032       0.0668368 
        5.93767        0.441178       0.0663837 
        5.95336        0.442975       0.0659356 
        5.96905        0.444351       0.0654917 
        5.98476        0.443802       0.0650513 
        6.00048        0.445221       0.0646149 
        6.01617        0.447357        0.064183 
        6.03185        0.449193       0.0637555 
        6.04756        0.449192        0.063331 
        6.06331        0.451454       0.0629094 
        6.07903        0.453053       0.0624925 
        6.09473        0.453404       0.0620798 
        6.11044        0.455057       0.0616704 
        6.12616        0.456798       0.0612648 
        6.14186        0.457699       0.0608632 
        6.15755        0.457664       0.0604653 
        6.17326        0.460185       0.0600706 
        6.18898        0.461224       0.0596792 
        6.20467        0.461069        0.059292 
        6.22036        0.463962       0.0589083 
         6.2361        0.464301        0.058527 
         6.2518          0.4664       0.0581496 
        6.26748        0.465277       0.0577764 
        6.28319        0.467534       0.0574055 
        6.29893        0.468496       0.0570374 
        6.31463        0.471415       0.0566733 
        6.33033        0.469581       0.0563124 
        6.34604        0.471137       0.0559544 
        6.36177        0.471816       0.0555991 
        6.37747        0.474025       0.0552477 
