# k  (h/Mpc)    Pcb(k)  (Mpc/h)^3    Pcb_linear(k) (Mpc/h)^3   ShotnoiseSubtracted = true
      0.0200456           29929         26053.5 
      0.0350414         20296.8         18611.8 
      0.0492313         13916.2         13485.2 
      0.0637834         10969.4         11231.1 
      0.0800726         8136.19         8809.41 
       0.096163         6143.64         6335.45 
       0.111083         5461.13         5098.33 
       0.126058         4734.02            4536 
       0.142273         4046.74         3788.37 
       0.158546         3440.53         2974.45 
        0.17375          2922.4         2534.93 
       0.188953         2647.19         2302.78 
       0.204907         2325.85          2013.9 
       0.220756          2173.6          1694.4 
        0.23588         1949.28         1486.46 
         0.2514         1792.27         1356.37 
       0.267535         1693.88         1217.83 
       0.283568         1585.99         1068.55 
       0.299022         1445.34         956.677 
       0.314451         1389.19           877.6 
       0.330372         1266.01          801.93 
       0.346141          1234.8         725.039 
       0.361624         1174.68         660.173 
       0.377134         1121.35          609.07 
       0.392932         1024.27         562.806 
       0.408854          1008.1         517.467 
       0.424564         940.705         477.075 
       0.440253         940.814         442.967 
       0.455999         899.412         412.584 
       0.471626         867.118         384.214 
        0.48727         831.315         358.104 
       0.502856         802.843         334.991 
       0.518488         774.272         314.166 
       0.534347         749.505         294.621 
       0.550082         727.867         276.653 
       0.565732         708.665         260.381 
       0.581496         680.354         245.437 
       0.597222         668.106         231.666 
       0.612804         649.482         218.993 
       0.628434         637.781         207.232 
       0.644267         609.025         196.253 
       0.660051         595.856         186.113 
       0.675724         586.404         176.746 
       0.691403         560.631         168.016 
       0.707174         553.545         159.826 
       0.722871         544.187         152.214 
        0.73838         524.077          145.18 
       0.754018         519.739         138.537 
       0.769845         508.288         132.238 
        0.78569         492.966         126.326 
       0.801365         479.907         120.835 
       0.817031         469.388         115.676 
       0.832809         460.816         110.787 
       0.848511         449.497         106.203 
       0.864097         443.992         101.912 
       0.879701         435.456         97.8555 
       0.895507         426.721         93.9727 
       0.911279          410.71         90.3096 
        0.92691         408.058          86.873 
       0.942635         397.695         83.5971 
       0.958396         391.645         80.4839 
       0.974128         383.897         77.5356 
       0.989692         373.617         74.7646 
        1.00528          368.29         72.1256 
        1.02113         363.694          69.573 
        1.03692         351.719          67.154 
        1.05264          344.09         64.8615 
        1.06832         336.479         62.6801 
        1.08405         332.638         60.5936 
        1.09979         325.724         58.6012 
        1.11537         317.058         56.7185 
        1.13105         317.825         54.9076 
        1.14679          304.74         53.1691 
        1.16256         302.828         51.5028 
        1.17828         293.569         49.9137 
        1.19395         292.085         48.3972 
         1.2097         286.733         46.9363 
        1.22537         280.482          45.543 
          1.241         272.347         44.2106 
        1.25666         269.065         42.9284 
        1.27241         264.588         41.6912 
        1.28819         261.256         40.5009 
        1.30392         257.281         39.3607 
        1.31957          253.35         38.2696 
        1.33529         245.454          37.216 
        1.35108         244.091          36.198 
        1.36674         240.077         35.2255 
         1.3824         237.533         34.2897 
        1.39811         229.936         33.3849 
        1.41389         227.606         32.5094 
        1.42964          222.48         31.6669 
        1.44531         218.066         30.8584 
        1.46101          215.44         30.0765 
        1.47667         211.505         29.3241 
        1.49229         207.251         28.5995 
        1.50793         204.935         27.8987 
        1.52367         201.055         27.2169 
        1.53953         197.738         26.5533 
        1.55526         194.784         25.9172 
        1.57092         191.972         25.3047 
        1.58662         187.874         24.7105 
        1.60235         185.073         24.1343 
        1.61809         183.675         23.5763 
        1.63369          179.51         23.0409 
        1.64941         176.634         22.5183 
        1.66519         172.819         22.0101 
        1.68085         170.822         21.5212 
        1.69652         168.091          21.047 
        1.71228         165.281         20.5845 
        1.72806         163.447         20.1355 
        1.74368         160.087         19.7045 
        1.75933         157.202         19.2853 
        1.77505         155.468         18.8763 
        1.79081         153.082         18.4784 
         1.8065          151.07         18.0938 
        1.82218         148.567         17.7205 
        1.83797         146.099         17.3551 
        1.85367         142.839         17.0021 
        1.86928         141.937         16.6611 
        1.88497         139.906         16.3276 
        1.90073         137.473          16.002 
        1.91647          135.67         15.6855 
        1.93218         132.753         15.3784 
        1.94787         131.575         15.0799 
        1.96363         129.782         14.7881 
        1.97935         127.655         14.5047 
        1.99499         126.606         14.2304 
        2.01064         124.098         13.9627 
         2.0264         122.092         13.7003 
        2.04216         119.644         13.4447 
        2.05781         118.346         13.1973 
        2.07353         116.681         12.9552 
        2.08928         115.034         12.7187 
        2.10499          113.56         12.4888 
        2.12065         111.695         12.2652 
        2.13633         110.061         12.0469 
        2.15211         109.079         11.8325 
        2.16785         106.804          11.624 
        2.18349         105.283         11.4217 
        2.19916         104.499         11.2239 
        2.21489         102.055         11.0301 
        2.23063         101.021         10.8408 
         2.2463         99.5137         10.6567 
        2.26194         98.0654         10.4774 
        2.27765         96.4219         10.3013 
        2.29341         95.2251         10.1288 
        2.30914         93.9933         9.96064 
        2.32486         92.5892         9.79637 
        2.34061         91.8595         9.63553 
        2.35635         90.2976         9.47845 
        2.37203         89.2957         9.32542 
        2.38768         87.6904         9.17608 
        2.40339          86.588         9.02948 
        2.41914           85.08         8.88574 
        2.43483          84.255         8.74565 
         2.4505         82.9406         8.60881 
        2.46622         82.0095         8.47443 
        2.48195         80.7506         8.34291 
        2.49759         79.7962         8.21489 
        2.51328         78.5752         8.08922 
        2.52906         77.7152         7.96539 
        2.54479         76.6248         7.84461 
        2.56049         75.6155         7.72657 
        2.57618         74.9275         7.61107 
        2.59189         73.3876         7.49776 
        2.60758          72.792         7.38693 
        2.62325         71.5129         7.27848 
        2.63898         70.7904         7.17183 
        2.65468         69.8273         7.06754 
        2.67044         68.7421         6.96488 
        2.68618         67.8782          6.8645 
        2.70184         67.4381         6.76649 
        2.71755         66.2097         6.67016 
        2.73329          65.575         6.57556 
        2.74897         64.8299          6.4831 
        2.76462         63.8915         6.39262 
        2.78034         63.1337          6.3035 
        2.79607         62.2471         6.21598 
        2.81179         61.3843         6.13023 
        2.82749         60.7378         6.04619 
        2.84321         60.1059         5.96363 
        2.85893         59.0315         5.88264 
        2.87462         58.5061          5.8033 
        2.89033         57.8422         5.72534 
        2.90605         57.0016         5.64875 
        2.92176         56.4732          5.5736 
        2.93747         55.6554         5.49986 
        2.95318          55.083         5.42744 
        2.96891         54.5055         5.35628 
        2.98456         53.5058         5.28672 
        3.00023         53.1731         5.21829 
        3.01596         52.6134         5.15087 
        3.03164         51.8375         5.08482 
        3.04738         51.3914         5.01974 
         3.0631         50.4822         4.95583 
        3.07883         50.2217         4.89302 
        3.09456         49.8003         4.83131 
        3.11026         48.8667         4.77076 
        3.12596         48.3617         4.71125 
        3.14163         47.9652          4.6529 
        3.15734         47.5803          4.5954 
        3.17308          46.884         4.53874 
        3.18879         46.1983         4.48318 
        3.20447         45.6499         4.42863 
         3.2202         45.2812         4.37483 
         3.2359         44.6812         4.32201 
        3.25157         44.1036         4.27019 
        3.26729         43.6927         4.21907 
        3.28304          43.153         4.16868 
        3.29877         42.6007         4.11918 
        3.31446         42.1443         4.07059 
        3.33014         41.6329         4.02283 
        3.34585         41.1649         3.97576 
        3.36158         40.8431         3.92937 
        3.37727         40.3415         3.88387 
        3.39294         39.8551         3.83913 
        3.40867         39.4166         3.79494 
        3.42439         39.1025         3.75146 
        3.44008         38.6031         3.70875 
        3.45578          38.033         3.66668 
        3.47153         37.7491         3.62516 
        3.48724         37.4417         3.58436 
        3.50292         36.9425         3.54428 
        3.51859         36.4879         3.50484 
        3.53431         36.1927         3.46587 
        3.55007         35.6855          3.4274 
        3.56577         35.3145         3.38966 
        3.58146         34.8858         3.35251 
        3.59719         34.5979         3.31583 
        3.61292         34.0956         3.27972 
        3.62859         33.6991         3.24427 
        3.64429         33.4627         3.20928 
        3.66003          33.241          3.1747 
        3.67578         32.7414         3.14065 
        3.69146         32.4422         3.10722 
        3.70712         32.1653         3.07433 
        3.72284         31.7128         3.04181 
        3.73853         31.4634          3.0098 
        3.75422         31.0907         2.97825 
        3.76993         30.8379         2.94712 
        3.78564         30.4238         2.91645 
        3.80137         30.1957         2.88617 
        3.81707         29.8538         2.85638 
        3.83279         29.5512         2.82698 
        3.84853         29.3408         2.79796 
        3.86424         29.0509         2.76939 
        3.87992         28.6318         2.74127 
        3.89561         28.4038         2.71354 
        3.91134         28.1246         2.68613 
        3.92704         27.8093         2.65913 
        3.94273         27.6301         2.63253 
        3.95845          27.293         2.60625 
        3.97418         27.0396         2.58032 
        3.98988         26.7387         2.55477 
        4.00554         26.4834         2.52965 
        4.02125         26.2109         2.50478 
        4.03698         26.0253         2.48022 
        4.05268         25.8057         2.45604 
        4.06839         25.5213         2.43216 
         4.0841         25.1904         2.40861 
        4.09983         25.0042         2.38534 
        4.11555         24.7682         2.36238 
        4.13124         24.4825         2.33979 
        4.14693         24.3268         2.31747 
        4.16266         23.9914          2.2954 
        4.17839         23.7935         2.27362 
        4.19408         23.6388         2.25218 
        4.20977         23.3834           2.231 
        4.22551         23.1958         2.21005 
        4.24123         22.9742         2.18938 
        4.25691         22.6654         2.16904 
        4.27259         22.4189         2.14895 
        4.28831         22.3076         2.12907 
        4.30404         22.0242         2.10943 
        4.31974         21.8187         2.09007 
        4.33543         21.6468         2.07097 
        4.35116         21.4681         2.05206 
        4.36688         21.3488          2.0334 
        4.38255         21.0574         2.01503 
        4.39825         20.8834         1.99686 
        4.41398         20.6934         1.97887 
         4.4297         20.4713         1.96112 
        4.44541         20.2929         1.94359 
        4.46111         20.1164         1.92629 
        4.47683         19.8911         1.90919 
        4.49251         19.7617         1.89233 
        4.50819         19.5881         1.87568 
         4.5239         19.3984         1.85921 
        4.53962         19.2191         1.84291 
        4.55535         19.0659          1.8268 
        4.57106         18.9116          1.8109 
        4.58678         18.6843          1.7952 
         4.6025         18.5529         1.77967 
        4.61821          18.378         1.76433 
        4.63391         18.2496         1.74919 
         4.6496         18.0611         1.73423 
        4.66532         17.8792         1.71943 
        4.68103            17.7          1.7048 
        4.69673         17.5773         1.69036 
        4.71241         17.4744          1.6761 
        4.72811         17.3055         1.66198 
        4.74384         17.1088         1.64801 
        4.75955         17.0258         1.63422 
        4.77525         16.8079         1.62059 
        4.79096         16.6788          1.6071 
        4.80669         16.5402         1.59376 
         4.8224         16.3707         1.58059 
        4.83809         16.2527         1.56758 
        4.85379         16.1203          1.5547 
         4.8695         16.0028         1.54196 
        4.88521         15.8407         1.52937 
        4.90093         15.7003         1.51692 
        4.91663         15.6117         1.50462 
        4.93234         15.4753         1.49244 
        4.94807          15.331         1.48039 
        4.96377         15.1933         1.46849 
        4.97943         15.0863         1.45675 
        4.99514         14.9279          1.4451 
        5.01086         14.8441         1.43358 
        5.02654         14.7038         1.42221 
        5.04227         14.5708         1.41093 
          5.058          14.439         1.39977 
        5.07371         14.3696         1.38874 
        5.08942         14.2054         1.37784 
        5.10513         14.0949         1.36705 
        5.12084         13.9738         1.35638 
        5.13656         13.8561         1.34581 
        5.15225         13.7681         1.33538 
        5.16796         13.6213         1.32505 
        5.18369         13.5341         1.31481 
         5.1994         13.4447          1.3047 
        5.21509         13.3288          1.2947 
        5.23079         13.1882          1.2848 
        5.24649         13.0885         1.27501 
        5.26217         12.9875         1.26533 
        5.27788         12.8627         1.25573 
        5.29359         12.8008         1.24623 
        5.30933         12.6734         1.23682 
        5.32504         12.5731         1.22752 
        5.34073         12.4847         1.21832 
        5.35646         12.3801          1.2092 
        5.37218         12.2592         1.20018 
        5.38789         12.2112         1.19126 
        5.40357         12.0969         1.18244 
        5.41929         11.9823         1.17369 
        5.43502         11.8993         1.16502 
         5.4507         11.7983         1.15647 
        5.46639         11.7159           1.148 
        5.48212         11.6136         1.13959 
        5.49786         11.5159         1.13126 
        5.51353          11.451         1.12306 
        5.52921         11.3586         1.11492 
        5.54495         11.2791         1.10685 
        5.56066         11.1682         1.09886 
        5.57637         11.0858         1.09095 
        5.59207         11.0173         1.08313 
        5.60778         10.9378         1.07538 
        5.62346         10.8381         1.06771 
        5.63916         10.7684         1.06012 
        5.65487         10.6763         1.05259 
         5.6706         10.6119         1.04513 
        5.68633         10.5019         1.03774 
        5.70203         10.4106         1.03043 
        5.71773         10.3591          1.0232 
        5.73344         10.2883         1.01603 
        5.74916         10.1944         1.00893 
        5.76486         10.1208          1.0019 
        5.78054          10.049        0.994946 
        5.79626         9.96011        0.988042 
          5.812         9.90709        0.981196 
         5.8277         9.81696        0.974435 
        5.84339         9.76274        0.967738 
        5.85911         9.67267         0.96109 
        5.87484         9.58547        0.954507 
        5.89053         9.52909        0.947998 
        5.90623         9.48852        0.941546 
        5.92195         9.39898        0.935144 
        5.93767         9.32817        0.928804 
        5.95336         9.26867        0.922534 
        5.96905         9.19706        0.916324 
        5.98476         9.14166        0.910162 
        6.00048         9.06554        0.904055 
        6.01617         8.98201        0.898012 
        6.03185         8.94172        0.892032 
        6.04756         8.87456        0.886092 
        6.06331         8.81116        0.880193 
        6.07903         8.73952         0.87436 
        6.09473         8.68585        0.868585 
        6.11044         8.63032        0.862858 
        6.12616         8.55814        0.857183 
        6.14186         8.50197        0.851564 
        6.15755         8.44138        0.845996 
        6.17326         8.37417        0.840474 
        6.18898         8.30242        0.834998 
        6.20467         8.25627        0.829581 
        6.22036         8.20111        0.824213 
         6.2361         8.14792        0.818877 
         6.2518         8.08187        0.813597 
        6.26748          8.0369        0.808375 
        6.28319         7.97483        0.803185 
        6.29893         7.89923        0.798036 
        6.31463          7.8669        0.792941 
        6.33033         7.81753        0.787891 
        6.34604         7.76586        0.782883 
        6.36177         7.70446        0.777912 
        6.37747         7.65458        0.772995 
