# k  (h/Mpc)    Pcb(k)  (Mpc/h)^3    Pcb_linear(k) (Mpc/h)^3   ShotnoiseSubtracted = true
      0.0200456         22932.7           19942 
      0.0350414         15670.7         14245.9 
      0.0492313         10748.4         10321.9 
      0.0637834         8387.67         8596.58 
      0.0800726          6296.2         6742.95 
       0.096163          4707.8         4849.32 
       0.111083         4170.14         3902.39 
       0.126058         3610.11         3471.97 
       0.142273         3035.01         2899.71 
       0.158546         2583.67         2276.72 
        0.17375         2174.43          1940.3 
       0.188953         1975.59          1762.6 
       0.204907          1705.6         1541.49 
       0.220756         1610.78         1296.94 
        0.23588         1432.33         1137.78 
         0.2514         1300.41          1038.2 
       0.267535         1226.42         932.161 
       0.283568         1137.53         817.892 
       0.299022         1031.29         732.265 
       0.314451         995.251         671.737 
       0.330372         912.275         613.818 
       0.346141         877.758         554.963 
       0.361624         826.737         505.313 
       0.377134          785.89         466.197 
       0.392932          723.38         430.786 
       0.408854         711.918         396.082 
       0.424564         655.781         365.165 
       0.440253         659.879         339.058 
       0.455999           621.2         315.802 
       0.471626         612.633         294.087 
        0.48727         575.922         274.102 
       0.502856         557.635          256.41 
       0.518488         538.726         240.471 
       0.534347         515.408          225.51 
       0.550082         508.093         211.757 
       0.565732         488.387         199.302 
       0.581496         473.815         187.864 
       0.597222         457.811         177.323 
       0.612804         449.033         167.622 
       0.628434         441.117          158.62 
       0.644267         419.387         150.217 
       0.660051         411.919         142.456 
       0.675724         401.497         135.286 
       0.691403          392.41         128.603 
       0.707174         381.729         122.335 
       0.722871         375.659         116.508 
        0.73838         362.774         111.124 
       0.754018          357.06          106.04 
       0.769845         347.811         101.219 
        0.78569         338.358         96.6934 
       0.801365         328.572         92.4903 
       0.817031         323.515         88.5412 
       0.832809         317.643         84.7989 
       0.848511         310.119         81.2908 
       0.864097         304.599         78.0063 
       0.879701         299.945         74.9011 
       0.895507         292.334          71.929 
       0.911279         281.446         69.1252 
        0.92691          280.42         66.4948 
       0.942635         272.978         63.9873 
       0.958396         268.526         61.6044 
       0.974128         263.631         59.3477 
       0.989692         257.607         57.2267 
        1.00528         252.492         55.2067 
        1.02113         249.391         53.2529 
        1.03692         242.114         51.4013 
        1.05264         239.586         49.6466 
        1.06832         234.891         47.9769 
        1.08405         230.657         46.3798 
        1.09979         226.338         44.8548 
        1.11537         222.365         43.4138 
        1.13105         219.583         42.0277 
        1.14679          215.36          40.697 
        1.16256          211.87         39.4216 
        1.17828          209.03         38.2052 
        1.19395         204.531         37.0445 
         1.2097         202.818         35.9262 
        1.22537         198.816         34.8597 
          1.241         193.761         33.8399 
        1.25666         192.275         32.8585 
        1.27241         189.469         31.9115 
        1.28819         185.126         31.0004 
        1.30392         181.873         30.1277 
        1.31957          179.24         29.2925 
        1.33529         175.661          28.486 
        1.35108         173.459         27.7069 
        1.36674         170.876         26.9625 
         1.3824         168.587         26.2462 
        1.39811         164.336         25.5536 
        1.41389         162.015         24.8835 
        1.42964          159.24         24.2386 
        1.44531         156.166         23.6198 
        1.46101         154.961         23.0213 
        1.47667         151.421         22.4454 
        1.49229         148.849         21.8908 
        1.50793          149.05         21.3543 
        1.52367         145.158         20.8325 
        1.53953         142.269         20.3246 
        1.55526         139.929         19.8377 
        1.57092         138.716         19.3689 
        1.58662         136.188         18.9141 
        1.60235         134.108          18.473 
        1.61809          132.06         18.0459 
        1.63369         130.242         17.6361 
        1.64941          128.12         17.2361 
        1.66519          125.37         16.8471 
        1.68085          124.25         16.4729 
        1.69652         122.345         16.1099 
        1.71228         120.589         15.7559 
        1.72806         119.595         15.4123 
        1.74368         117.041         15.0823 
        1.75933         114.608         14.7614 
        1.77505         113.006         14.4484 
        1.79081         111.717         14.1439 
         1.8065         110.494         13.8494 
        1.82218         108.354         13.5637 
        1.83797         106.825         13.2841 
        1.85367         105.577         13.0139 
        1.86928         103.892         12.7528 
        1.88497         102.471         12.4975 
        1.90073         101.055         12.2483 
        1.91647         98.7833         12.0061 
        1.93218         98.0393          11.771 
        1.94787         96.6274         11.5425 
        1.96363         95.3997         11.3192 
        1.97935         93.8913         11.1023 
        1.99499         92.7222         10.8923 
        2.01064         91.3748         10.6874 
         2.0264         90.1803         10.4865 
        2.04216         89.0222         10.2909 
        2.05781         87.0335         10.1015 
        2.07353         85.8855         9.91627 
        2.08928          85.328         9.73524 
        2.10499         84.4346         9.55922 
        2.12065         82.7339         9.38808 
        2.13633         81.7423           9.221 
        2.15211         80.3108          9.0569 
        2.16785         79.5091         8.89727 
        2.18349         78.0426         8.74248 
        2.19916         77.2709         8.59106 
        2.21489         76.3392         8.44273 
        2.23063          74.868          8.2978 
         2.2463         74.0434         8.15693 
        2.26194         73.0922         8.01969 
        2.27765         71.8669          7.8849 
        2.29341         71.0386         7.75286 
        2.30914         70.1518         7.62413 
        2.32486         68.9796         7.49839 
        2.34061         68.3518         7.37528 
        2.35635         67.5125         7.25504 
        2.37203         66.6986         7.13791 
        2.38768         65.8412         7.02361 
        2.40339         64.8242         6.91139 
        2.41914         64.3155         6.80137 
        2.43483         62.9717         6.69414 
         2.4505         62.4543          6.5894 
        2.46622          61.563         6.48654 
        2.48195         60.8715         6.38587 
        2.49759         60.0381         6.28788 
        2.51328         59.0803         6.19169 
        2.52906         58.7573         6.09691 
        2.54479         57.8824         6.00446 
        2.56049         57.2023         5.91412 
        2.57618         56.2433         5.82571 
        2.59189         55.7784         5.73897 
        2.60758         54.8756         5.65414 
        2.62325         54.3266         5.57113 
        2.63898         53.2634          5.4895 
        2.65468         52.9045         5.40967 
        2.67044         52.3644         5.33109 
        2.68618         51.6378         5.25426 
        2.70184         50.9415         5.17924 
        2.71755         50.4011         5.10551 
        2.73329          49.857          5.0331 
        2.74897         49.2077         4.96233 
        2.76462         48.4517         4.89307 
        2.78034         47.8793         4.82486 
        2.79607         47.3861         4.75787 
        2.81179         46.7828         4.69223 
        2.82749         46.1932         4.62791 
        2.84321         45.7587         4.56472 
        2.85893         45.1313         4.50272 
        2.87462         44.6023         4.44199 
        2.89033         44.0328         4.38232 
        2.90605         43.5463          4.3237 
        2.92176         43.1187         4.26618 
        2.93747         42.5083         4.20973 
        2.95318         42.0565          4.1543 
        2.96891         41.5424         4.09983 
        2.98456         41.0978         4.04659 
        3.00023         40.6218         3.99421 
        3.01596           40.12          3.9426 
        3.03164         39.6781         3.89205 
        3.04738         39.2726         3.84224 
         3.0631           38.82         3.79331 
        3.07883         38.5235         3.74524 
        3.09456         37.9529         3.69801 
        3.11026         37.4949         3.65166 
        3.12596         37.0028         3.60611 
        3.14163         36.5623         3.56145 
        3.15734         36.2447         3.51744 
        3.17308         35.8685         3.47406 
        3.18879         35.4038         3.43154 
        3.20447         35.0449         3.38979 
         3.2202         34.6322          3.3486 
         3.2359         34.3159         3.30818 
        3.25157          33.989         3.26851 
        3.26729         33.6133         3.22938 
        3.28304         33.1955         3.19081 
        3.29877         32.8243         3.15292 
        3.31446         32.3944         3.11573 
        3.33014         32.0618         3.07917 
        3.34585         31.7776         3.04314 
        3.36158         31.4399         3.00764 
        3.37727         31.0244         2.97281 
        3.39294         30.7341         2.93857 
        3.40867         30.3725         2.90474 
        3.42439         30.0395         2.87146 
        3.44008         29.7304         2.83877 
        3.45578         29.3383         2.80657 
        3.47153         29.1058         2.77479 
        3.48724         28.7894         2.74356 
        3.50292         28.4615         2.71288 
        3.51859         28.0979         2.68269 
        3.53431         27.8946         2.65286 
        3.55007         27.5276         2.62342 
        3.56577         27.2903         2.59453 
        3.58146         27.0133          2.5661 
        3.59719         26.7243         2.53802 
        3.61292         26.4223         2.51038 
        3.62859         26.2285         2.48325 
        3.64429         25.9457         2.45647 
        3.66003         25.6151            2.43 
        3.67578         25.4154         2.40393 
        3.69146         25.1256         2.37834 
        3.70712         24.8246         2.35317 
        3.72284         24.6063         2.32827 
        3.73853         24.4338         2.30378 
        3.75422         24.0801         2.27963 
        3.76993         23.7656          2.2558 
        3.78564         23.6134         2.23233 
        3.80137          23.468         2.20915 
        3.81707          23.144         2.18634 
        3.83279         22.9933         2.16384 
        3.84853         22.7198         2.14163 
        3.86424         22.4638         2.11976 
        3.87992         22.2603         2.09824 
        3.89561         21.9871         2.07701 
        3.91134         21.8201         2.05603 
        3.92704         21.6231         2.03537 
        3.94273         21.3932         2.01501 
        3.95845         21.1864         1.99489 
        3.97418         20.9377         1.97504 
        3.98988         20.8098         1.95549 
        4.00554          20.591         1.93626 
        4.02125         20.3861         1.91723 
        4.03698          20.156         1.89842 
        4.05268          20.028         1.87991 
        4.06839         19.7675         1.86164 
         4.0841         19.6504         1.84361 
        4.09983         19.4114          1.8258 
        4.11555         19.1597         1.80822 
        4.13124         19.0364         1.79093 
        4.14693         18.9095         1.77385 
        4.16266         18.6798         1.75695 
        4.17839         18.5355         1.74029 
        4.19408         18.4005         1.72387 
        4.20977         18.1612         1.70767 
        4.22551         18.0134         1.69163 
        4.24123         17.8287         1.67581 
        4.25691         17.6992         1.66024 
        4.27259         17.5183         1.64486 
        4.28831         17.3086         1.62964 
        4.30404         17.1819         1.61461 
        4.31974         17.0099         1.59979 
        4.33543         16.8344         1.58517 
        4.35116         16.7386          1.5707 
        4.36688         16.5466         1.55641 
        4.38255         16.3916         1.54236 
        4.39825         16.2603         1.52844 
        4.41398         16.1325         1.51468 
         4.4297         15.9734         1.50109 
        4.44541          15.805         1.48768 
        4.46111         15.6719         1.47443 
        4.47683         15.5975         1.46134 
        4.49251         15.4247         1.44844 
        4.50819         15.2661         1.43569 
         4.5239           15.12         1.42308 
        4.53962         15.0144         1.41061 
        4.55535         14.8784         1.39828 
        4.57106         14.7242         1.38611 
        4.58678         14.6206         1.37409 
         4.6025         14.4419          1.3622 
        4.61821          14.348         1.35046 
        4.63391         14.2037         1.33887 
         4.6496         14.1274         1.32743 
        4.66532         13.9492         1.31609 
        4.68103         13.8699          1.3049 
        4.69673         13.7284         1.29385 
        4.71241         13.6137         1.28293 
        4.72811         13.4848         1.27213 
        4.74384          13.343         1.26143 
        4.75955         13.2562         1.25087 
        4.77525         13.1567         1.24044 
        4.79096         13.0327         1.23012 
        4.80669         12.9211         1.21991 
         4.8224         12.8234         1.20982 
        4.83809         12.6729         1.19986 
        4.85379         12.5732         1.19001 
         4.8695         12.4952         1.18026 
        4.88521         12.3652         1.17062 
        4.90093         12.2973         1.16109 
        4.91663         12.1727         1.15167 
        4.93234         12.0634         1.14235 
        4.94807         11.9699         1.13312 
        4.96377         11.8627         1.12402 
        4.97943         11.7608         1.11503 
        4.99514         11.6857         1.10612 
        5.01086         11.5753          1.0973 
        5.02654         11.4618         1.08859 
        5.04227         11.3946         1.07996 
          5.058         11.3031         1.07142 
        5.07371         11.2165         1.06298 
        5.08942         11.1128         1.05463 
        5.10513         11.0297         1.04638 
        5.12084         10.9456          1.0382 
        5.13656         10.8801         1.03012 
        5.15225         10.7658         1.02214 
        5.16796          10.699         1.01422 
        5.18369         10.5946         1.00639 
         5.1994         10.4984        0.998648 
        5.21509         10.4206        0.990997 
        5.23079         10.3579        0.983418 
        5.24649         10.2694        0.975923 
        5.26217         10.1831        0.968512 
        5.27788         10.0998        0.961167 
        5.29359         10.0374        0.953897 
        5.30933         9.95591        0.946692 
        5.32504           9.866        0.939573 
        5.34073         9.77092        0.932535 
        5.35646         9.70469        0.925555 
        5.37218         9.63295        0.918646 
        5.38789         9.56706        0.911817 
        5.40357         9.46235        0.905066 
        5.41929         9.41553        0.898369 
        5.43502         9.34732        0.891738 
         5.4507         9.27388         0.88519 
        5.46639         9.17292        0.878707 
        5.48212          9.1196        0.872273 
        5.49786         9.05517        0.865896 
        5.51353         8.99583        0.859615 
        5.52921         8.92018         0.85339 
        5.54495          8.8683        0.847208 
        5.56066         8.78164        0.841093 
        5.57637         8.72176         0.83504 
        5.59207         8.65983        0.829052 
        5.60778         8.60623         0.82312 
        5.62346         8.53118        0.817255 
        5.63916         8.47482        0.811441 
        5.65487         8.41448        0.805681 
         5.6706         8.34073        0.799969 
        5.68633         8.27761        0.794311 
        5.70203         8.22298         0.78872 
        5.71773         8.16318        0.783183 
        5.73344         8.09857        0.777696 
        5.74916         8.03919        0.772257 
        5.76486         7.98068        0.766877 
        5.78054         7.93296        0.761557 
        5.79626         7.86854        0.756272 
          5.812         7.80112        0.751032 
         5.8277         7.75979        0.745857 
        5.84339         7.67829        0.740731 
        5.85911         7.64953        0.735643 
        5.87484          7.5863        0.730603 
        5.89053         7.52467        0.725621 
        5.90623         7.48107        0.720683 
        5.92195          7.4279        0.715783 
        5.93767         7.35601         0.71093 
        5.95336         7.32037        0.706131 
        5.96905         7.25988        0.701378 
        5.98476         7.22835        0.696661 
        6.00048         7.17373        0.691987 
        6.01617         7.09889        0.687361 
        6.03185         7.06668        0.682784 
        6.04756         7.02395        0.678237 
        6.06331         6.96174        0.673722 
        6.07903         6.91479        0.669257 
        6.09473         6.87612        0.664837 
        6.11044         6.81596        0.660453 
        6.12616         6.75955        0.656109 
        6.14186         6.72609        0.651809 
        6.15755         6.67587        0.647547 
        6.17326         6.63024         0.64332 
        6.18898         6.59723        0.639129 
        6.20467         6.54474        0.634982 
        6.22036         6.49562        0.630873 
         6.2361         6.45282        0.626789 
         6.2518           6.405        0.622748 
        6.26748         6.36457        0.618751 
        6.28319         6.32075        0.614778 
        6.29893         6.30061        0.610837 
        6.31463         6.23504        0.606937 
        6.33033         6.19808        0.603072 
        6.34604         6.15224        0.599238 
        6.36177         6.11146        0.595434 
        6.37747         6.07557         0.59167 
