# k  (h/Mpc)    Pcb(k)  (Mpc/h)^3    Pcb_linear(k) (Mpc/h)^3   ShotnoiseSubtracted = true
      0.0200456         23570.8         20498.7 
      0.0350414         16095.2         14643.6 
      0.0492313         11039.3           10610 
      0.0637834         8623.18         8836.55 
      0.0800726         6465.99         6931.17 
       0.096163         4839.63         4984.68 
       0.111083         4288.73         4011.33 
       0.126058         3713.72         3568.89 
       0.142273         3127.47         2980.66 
       0.158546         2662.64         2340.27 
        0.17375         2243.17         1994.46 
       0.188953         2037.58         1811.81 
       0.204907         1762.56         1584.52 
       0.220756         1663.59         1333.14 
        0.23588         1481.04         1169.54 
         0.2514         1346.38         1067.18 
       0.267535          1270.6         958.182 
       0.283568         1180.07         840.723 
       0.299022         1070.92         752.705 
       0.314451         1033.12         690.488 
       0.330372          947.39         630.952 
       0.346141         913.096         570.455 
       0.361624         861.511         519.418 
       0.377134         819.528         479.211 
       0.392932         753.791         442.811 
       0.408854          742.63         407.139 
       0.424564         684.939         375.358 
       0.440253          689.67         348.523 
       0.455999         650.338         324.617 
       0.471626         640.592         302.296 
        0.48727         603.632         281.753 
       0.502856         584.643         263.568 
       0.518488          565.04         247.183 
       0.534347         541.584         231.806 
       0.550082         533.703         217.668 
       0.565732         513.843         204.865 
       0.581496         498.448         193.108 
       0.597222         482.609         182.273 
       0.612804         473.361         172.302 
       0.628434         465.294         163.048 
       0.644267         442.693          154.41 
       0.660051         435.041         146.432 
       0.675724         424.748         139.062 
       0.691403         414.754         132.193 
       0.707174         404.227         125.749 
       0.722871          398.35         119.761 
        0.73838         384.764         114.226 
       0.754018          379.41             109 
       0.769845         369.747         104.044 
        0.78569         359.625         99.3926 
       0.801365          349.53         95.0721 
       0.817031         344.272         91.0128 
       0.832809         338.183          87.166 
       0.848511         330.515           83.56 
       0.864097         324.932         80.1838 
       0.879701         320.275         76.9919 
       0.895507         312.276         73.9369 
       0.911279         300.702         71.0548 
        0.92691         299.857         68.3509 
       0.942635         291.906         65.7735 
       0.958396         287.517         63.3241 
       0.974128         282.293         61.0043 
       0.989692         275.772         58.8242 
        1.00528         270.492         56.7478 
        1.02113         267.561         54.7395 
        1.03692         259.547         52.8362 
        1.05264         257.159         51.0325 
        1.06832         251.896         49.3162 
        1.08405         247.879         47.6745 
        1.09979          243.32         46.1069 
        1.11537         238.965         44.6257 
        1.13105         236.329         43.2009 
        1.14679          231.49          41.833 
        1.16256         228.297          40.522 
        1.17828         224.942         39.2717 
        1.19395         220.448         38.0785 
         1.2097         218.922         36.9291 
        1.22537         214.553         35.8328 
          1.241         209.095         34.7845 
        1.25666         207.634         33.7757 
        1.27241         204.864         32.8023 
        1.28819          200.46         31.8658 
        1.30392         197.072         30.9687 
        1.31957         194.205         30.1102 
        1.33529         190.059         29.2812 
        1.35108         188.439         28.4803 
        1.36674         185.534         27.7151 
         1.3824         183.045         26.9788 
        1.39811         178.287          26.267 
        1.41389         176.068         25.5781 
        1.42964         172.983         24.9152 
        1.44531         169.816         24.2791 
        1.46101         168.492         23.6639 
        1.47667         164.778         23.0719 
        1.49229         162.073         22.5019 
        1.50793          162.21         21.9504 
        1.52367         158.008          21.414 
        1.53953         155.109         20.8919 
        1.55526         152.586         20.3915 
        1.57092         151.378         19.9095 
        1.58662         148.555          19.442 
        1.60235         146.392         18.9887 
        1.61809          144.24         18.5496 
        1.63369         142.267         18.1284 
        1.64941         139.963         17.7172 
        1.66519         137.219         17.3173 
        1.68085          136.03         16.9327 
        1.69652         133.803         16.5596 
        1.71228         131.863         16.1957 
        1.72806         130.994         15.8425 
        1.74368         128.095         15.5033 
        1.75933         125.546         15.1735 
        1.77505         123.898         14.8517 
        1.79081         122.527         14.5387 
         1.8065         121.361          14.236 
        1.82218         119.026         13.9423 
        1.83797         117.252         13.6549 
        1.85367         115.999         13.3771 
        1.86928         114.197         13.1088 
        1.88497         112.742         12.8464 
        1.90073         111.165         12.5902 
        1.91647          108.65         12.3413 
        1.93218         107.867         12.0996 
        1.94787         106.446         11.8647 
        1.96363         105.084         11.6352 
        1.97935         103.374         11.4122 
        1.99499         102.245         11.1963 
        2.01064          100.63         10.9857 
         2.0264         99.5239         10.7793 
        2.04216         98.3111         10.5782 
        2.05781         96.0339         10.3835 
        2.07353         94.8904         10.1931 
        2.08928         94.3545          10.007 
        2.10499         93.2929         9.82606 
        2.12065         91.4959         9.65015 
        2.13633           90.33          9.4784 
        2.15211          88.874         9.30972 
        2.16785         87.8557         9.14563 
        2.18349         86.4388         8.98653 
        2.19916         85.6266         8.83088 
        2.21489         84.5703          8.6784 
        2.23063         82.9531         8.52943 
         2.2463         82.0124         8.38463 
        2.26194         81.1038         8.24355 
        2.27765         79.7196           8.105 
        2.29341         78.7328         7.96928 
        2.30914         77.7232         7.83695 
        2.32486         76.5489          7.7077 
        2.34061         75.9924         7.58115 
        2.35635         74.8673         7.45757 
        2.37203           74.08         7.33716 
        2.38768         73.1252         7.21967 
        2.40339         72.0388         7.10432 
        2.41914         71.5671         6.99123 
        2.43483         70.0158           6.881 
         2.4505         69.4096         6.77334 
        2.46622         68.4467         6.66761 
        2.48195         67.6862         6.56413 
        2.49759         66.7572          6.4634 
        2.51328         65.7111         6.36453 
        2.52906         65.3883          6.2671 
        2.54479         64.4378         6.17207 
        2.56049         63.7256          6.0792 
        2.57618         62.6521         5.98833 
        2.59189          62.173         5.89917 
        2.60758         61.2059         5.81197 
        2.62325          60.616         5.72665 
        2.63898         59.3366         5.64273 
        2.65468         58.9872         5.56068 
        2.67044          58.412         5.47991 
        2.68618         57.6191         5.40093 
        2.70184         56.9087         5.32382 
        2.71755          56.311         5.24803 
        2.73329         55.6919         5.17359 
        2.74897         55.0773         5.10085 
        2.76462         54.1651         5.02966 
        2.78034         53.4742         4.95954 
        2.79607          52.972         4.89068 
        2.81179         52.3117         4.82321 
        2.82749         51.6662         4.75709 
        2.84321         51.2188         4.69214 
        2.85893          50.561         4.62842 
        2.87462          49.872         4.56599 
        2.89033          49.302         4.50465 
        2.90605         48.7915         4.44439 
        2.92176         48.3136         4.38527 
        2.93747         47.6344         4.32724 
        2.95318         47.1539         4.27026 
        2.96891         46.5813         4.21428 
        2.98456         46.0349         4.15955 
        3.00023         45.5277         4.10571 
        3.01596         44.8867         4.05266 
        3.03164         44.5365          4.0007 
        3.04738         44.0288         3.94949 
         3.0631         43.5168          3.8992 
        3.07883         43.1815         3.84979 
        3.09456         42.6051         3.80123 
        3.11026         42.0916         3.75359 
        3.12596         41.5153         3.70678 
        3.14163         41.0484         3.66086 
        3.15734         40.6952         3.61562 
        3.17308         40.3295         3.57104 
        3.18879         39.7417         3.52733 
        3.20447         39.3846         3.48441 
         3.2202         38.8928         3.44208 
         3.2359          38.574         3.40052 
        3.25157         38.1889         3.35975 
        3.26729         37.7969         3.31953 
        3.28304         37.3655         3.27988 
        3.29877         36.9299         3.24093 
        3.31446         36.4501          3.2027 
        3.33014          36.083         3.16513 
        3.34585         35.7482         3.12809 
        3.36158         35.4603          3.0916 
        3.37727         34.9957          3.0558 
        3.39294         34.5739          3.0206 
        3.40867         34.2306         2.98582 
        3.42439         33.8943         2.95162 
        3.44008         33.5617         2.91802 
        3.45578         33.1448         2.88491 
        3.47153         32.8455         2.85225 
        3.48724         32.4527         2.82014 
        3.50292         32.1237         2.78861 
        3.51859         31.7118         2.75758 
        3.53431          31.497         2.72692 
        3.55007          31.093         2.69665 
        3.56577         30.8098         2.66696 
        3.58146         30.5331         2.63773 
        3.59719         30.1778         2.60887 
        3.61292         29.8474         2.58045 
        3.62859         29.6492         2.55257 
        3.64429         29.3487         2.52504 
        3.66003         28.9905         2.49783 
        3.67578         28.7134         2.47103 
        3.69146          28.425         2.44473 
        3.70712         28.0581         2.41886 
        3.72284         27.8365         2.39327 
        3.73853         27.6337         2.36809 
        3.75422         27.2232         2.34326 
        3.76993         26.8545         2.31877 
        3.78564         26.7198         2.29464 
        3.80137         26.5454         2.27081 
        3.81707         26.2063         2.24737 
        3.83279         26.0152         2.22425 
        3.84853          25.751         2.20141 
        3.86424         25.4354         2.17893 
        3.87992         25.2113         2.15681 
        3.89561         24.9206         2.13499 
        3.91134         24.7416         2.11342 
        3.92704         24.4817         2.09218 
        3.94273         24.2722         2.07125 
        3.95845         24.0115         2.05057 
        3.97418         23.7558         2.03017 
        3.98988         23.5908         2.01008 
        4.00554          23.357          1.9903 
        4.02125         23.1106         1.97074 
        4.03698         22.8742         1.95142 
        4.05268         22.6894         1.93239 
        4.06839         22.4468          1.9136 
         4.0841         22.2868         1.89507 
        4.09983         22.0185         1.87676 
        4.11555         21.7786          1.8587 
        4.13124         21.6065         1.84093 
        4.14693         21.4065         1.82337 
        4.16266         21.2067           1.806 
        4.17839          21.072         1.78887 
        4.19408         20.8884           1.772 
        4.20977         20.6216         1.75533 
        4.22551         20.4495         1.73885 
        4.24123         20.2314         1.72259 
        4.25691         20.0833         1.70658 
        4.27259         19.8914         1.69077 
        4.28831          19.656         1.67513 
        4.30404         19.5215         1.65968 
        4.31974         19.3363         1.64445 
        4.33543         19.1358         1.62942 
        4.35116          19.022         1.61454 
        4.36688         18.8239         1.59986 
        4.38255         18.6437         1.58541 
        4.39825         18.4924         1.57111 
        4.41398         18.3409         1.55696 
         4.4297         18.1541         1.54299 
        4.44541         17.9794          1.5292 
        4.46111          17.822         1.51559 
        4.47683         17.7152         1.50214 
        4.49251         17.5345         1.48887 
        4.50819         17.3751         1.47577 
         4.5239         17.1846         1.46281 
        4.53962         17.0779         1.44999 
        4.55535         16.9087         1.43731 
        4.57106         16.7653          1.4248 
        4.58678         16.6636         1.41244 
         4.6025         16.4504         1.40023 
        4.61821         16.3127         1.38816 
        4.63391          16.183         1.37625 
         4.6496         16.0867         1.36448 
        4.66532         15.8852         1.35283 
        4.68103         15.7937         1.34133 
        4.69673         15.6325         1.32996 
        4.71241         15.5007         1.31874 
        4.72811         15.3739         1.30764 
        4.74384         15.2302         1.29664 
        4.75955         15.1163         1.28579 
        4.77525         14.9858         1.27507 
        4.79096         14.8726         1.26446 
        4.80669         14.7384         1.25396 
         4.8224         14.6209         1.24359 
        4.83809         14.4503         1.23336 
        4.85379         14.3482         1.22323 
         4.8695         14.2284          1.2132 
        4.88521         14.1049          1.2033 
        4.90093         14.0143          1.1935 
        4.91663         13.9049         1.18382 
        4.93234         13.7647         1.17424 
        4.94807          13.632         1.16476 
        4.96377         13.5308         1.15539 
        4.97943         13.4161         1.14616 
        4.99514         13.3303           1.137 
        5.01086           13.19         1.12793 
        5.02654         13.0911         1.11898 
        5.04227         13.0028         1.11011 
          5.058         12.8972         1.10132 
        5.07371         12.7771         1.09265 
        5.08942         12.6759         1.08407 
        5.10513          12.582         1.07559 
        5.12084          12.484         1.06719 
        5.13656            12.4         1.05888 
        5.15225         12.2859         1.05067 
        5.16796         12.2063         1.04253 
        5.18369         12.1062         1.03448 
         5.1994          11.975         1.02652 
        5.21509         11.9015         1.01866 
        5.23079         11.8119         1.01087 
        5.24649         11.7176         1.00317 
        5.26217         11.6338        0.995548 
        5.27788         11.5223        0.987998 
        5.29359         11.4641        0.980525 
        5.30933         11.3619        0.973119 
        5.32504          11.268        0.965801 
        5.34073          11.151        0.958567 
        5.35646         11.0782        0.951392 
        5.37218         11.0072        0.944289 
        5.38789         10.9325         0.93727 
        5.40357         10.8184        0.930331 
        5.41929         10.7469        0.923446 
        5.43502         10.6783         0.91663 
         5.4507         10.5934          0.9099 
        5.46639          10.476        0.903235 
        5.48212         10.4267        0.896622 
        5.49786         10.3415        0.890068 
        5.51353          10.258        0.883611 
        5.52921         10.1718        0.877212 
        5.54495         10.1148        0.870857 
        5.56066         10.0302        0.864572 
        5.57637         9.96951         0.85835 
        5.59207         9.88763        0.852195 
        5.60778         9.81706        0.846097 
        5.62346         9.73355        0.840068 
        5.63916          9.6751        0.834092 
        5.65487         9.61505        0.828171 
         5.6706         9.52522          0.8223 
        5.68633         9.45176        0.816484 
        5.70203         9.39774        0.810737 
        5.71773         9.31526        0.805045 
        5.73344         9.25103        0.799405 
        5.74916         9.18496        0.793814 
        5.76486         9.10856        0.788284 
        5.78054          9.0641        0.782815 
        5.79626         8.98346        0.777383 
          5.812         8.90575        0.771997 
         5.8277          8.8611        0.766677 
        5.84339         8.77247        0.761408 
        5.85911         8.72656        0.756178 
        5.87484         8.66016        0.750998 
        5.89053         8.59745        0.745877 
        5.90623         8.54155        0.740801 
        5.92195         8.48457        0.735763 
        5.93767         8.40337        0.730776 
        5.95336         8.35612        0.725842 
        5.96905         8.29306        0.720956 
        5.98476         8.25228        0.716108 
        6.00048         8.19302        0.711303 
        6.01617         8.10213        0.706549 
        6.03185         8.06862        0.701843 
        6.04756         8.00637         0.69717 
        6.06331         7.94307        0.692528 
        6.07903         7.90571        0.687939 
        6.09473         7.85752        0.683396 
        6.11044         7.78461        0.678889 
        6.12616         7.72465        0.674424 
        6.14186          7.6782        0.670004 
        6.15755         7.62819        0.665623 
        6.17326         7.57277        0.661278 
        6.18898         7.52512         0.65697 
        6.20467         7.46923        0.652708 
        6.22036         7.42573        0.648484 
         6.2361         7.36884        0.644286 
         6.2518         7.31123        0.640131 
        6.26748         7.26988        0.636023 
        6.28319         7.21913        0.631939 
        6.29893          7.1801        0.627888 
        6.31463         7.11866        0.623879 
        6.33033         7.06406        0.619906 
        6.34604         7.02586        0.615965 
        6.36177         6.97627        0.612055 
        6.37747         6.93964        0.608186 
