# k  (h/Mpc)    Pcb(k)  (Mpc/h)^3    Pcb_linear(k) (Mpc/h)^3   ShotnoiseSubtracted = true
      0.0200456          3179.9         2761.68 
      0.0350414         2241.08         1972.85 
      0.0492313         1542.77         1429.43 
      0.0637834         1156.64          1190.5 
      0.0800726         907.475           933.8 
       0.096163         654.984          671.56 
       0.111083         568.417         540.425 
       0.126058         485.405         480.817 
       0.142273         386.706         401.568 
       0.158546         324.065         315.293 
        0.17375         273.245         268.703 
       0.188953         251.718         244.095 
       0.204907          207.41         213.474 
       0.220756         190.537         179.607 
        0.23588         159.676         157.565 
         0.2514         150.362         143.776 
       0.267535         137.705         129.091 
       0.283568         119.464         113.266 
       0.299022         103.456         101.408 
       0.314451           102.5         93.0258 
       0.330372          90.084         85.0048 
       0.346141         86.8205         76.8543 
       0.361624         78.1797         69.9785 
       0.377134         71.5239         64.5615 
       0.392932         67.4255         59.6576 
       0.408854         63.9181         54.8516 
       0.424564         58.0037           50.57 
       0.440253         54.3148         46.9546 
       0.455999         51.3255          43.734 
       0.471626         48.3837         40.7268 
        0.48727         44.8905         37.9591 
       0.502856         42.1331         35.5091 
       0.518488         40.7925         33.3017 
       0.534347         38.4232         31.2299 
       0.550082         36.5633         29.3253 
       0.565732         34.6839         27.6004 
       0.581496         32.9938         26.0164 
       0.597222         31.0475         24.5566 
       0.612804         29.6646         23.2133 
       0.628434          28.896         21.9666 
       0.644267         27.2619         20.8029 
       0.660051         26.2357          19.728 
       0.675724         25.2233         18.7351 
       0.691403         24.0744         17.8097 
       0.707174         23.1995         16.9416 
       0.722871         22.0489         16.1347 
        0.73838         21.2089         15.3891 
       0.754018         20.6041          14.685 
       0.769845         19.6487         14.0173 
        0.78569              19         13.3906 
       0.801365         18.2106         12.8086 
       0.817031         17.6467         12.2617 
       0.832809         17.0573         11.7434 
       0.848511          16.679         11.2576 
       0.864097         16.0717         10.8027 
       0.879701         15.6507         10.3727 
       0.895507          14.998         9.96113 
       0.911279         14.6195         9.57284 
        0.92691         14.2031         9.20856 
       0.942635         13.8263         8.86131 
       0.958396         13.3859         8.53131 
       0.974128         13.1558         8.21879 
       0.989692         12.6608         7.92507 
        1.00528         12.3065         7.64533 
        1.02113         11.8819         7.37476 
        1.03692         11.5681         7.11834 
        1.05264         11.3019         6.87534 
        1.06832          11.066          6.6441 
        1.08405         10.6722         6.42293 
        1.09979         10.4396         6.21174 
        1.11537         10.2537         6.01218 
        1.13105         9.99866         5.82022 
        1.14679          9.7479         5.63594 
        1.16256         9.52687         5.45932 
        1.17828         9.28946         5.29087 
        1.19395         9.09368         5.13012 
         1.2097         8.97975         4.97526 
        1.22537         8.72832         4.82757 
          1.241         8.51347         4.68634 
        1.25666         8.25684         4.55042 
        1.27241         8.17489         4.41928 
        1.28819         7.99097         4.29311 
        1.30392         7.88155         4.17224 
        1.31957         7.71626         4.05659 
        1.33529         7.55595          3.9449 
        1.35108         7.35459           3.837 
        1.36674         7.29572         3.73391 
         1.3824         7.04888         3.63472 
        1.39811         6.95102         3.53881 
        1.41389         6.78839           3.446 
        1.42964          6.6982          3.3567 
        1.44531         6.55582           3.271 
        1.46101         6.43422         3.18812 
        1.47667         6.33058         3.10836 
        1.49229         6.20447         3.03156 
        1.50793         6.06499         2.95727 
        1.52367         6.01223         2.88499 
        1.53953         5.91714         2.81466 
        1.55526         5.79777         2.74724 
        1.57092         5.68048          2.6823 
        1.58662         5.57316         2.61932 
        1.60235         5.49777         2.55825 
        1.61809          5.4237         2.49909 
        1.63369         5.32635         2.44234 
        1.64941         5.24862         2.38694 
        1.66519         5.17948         2.33307 
        1.68085         5.05696         2.28125 
        1.69652          4.9946         2.23099 
        1.71228         4.93492         2.18196 
        1.72806         4.89467         2.13437 
        1.74368         4.77124         2.08868 
        1.75933         4.72754         2.04424 
        1.77505          4.6453         2.00089 
        1.79081          4.5763         1.95872 
         1.8065         4.51219         1.91795 
        1.82218         4.42812         1.87837 
        1.83797          4.3754         1.83965 
        1.85367         4.30771         1.80223 
        1.86928         4.23723         1.76608 
        1.88497         4.19249         1.73073 
        1.90073          4.1403         1.69621 
        1.91647         4.06542         1.66267 
        1.93218         3.98831         1.63011 
        1.94787         3.96401         1.59847 
        1.96363         3.89343         1.56755 
        1.97935         3.83784         1.53751 
        1.99499         3.80581         1.50842 
        2.01064         3.74238         1.48005 
         2.0264         3.71891         1.45223 
        2.04216         3.67601         1.42514 
        2.05781         3.62384         1.39892 
        2.07353         3.56537         1.37326 
        2.08928         3.52193         1.34819 
        2.10499         3.48487         1.32381 
        2.12065         3.43698         1.30011 
        2.13633         3.37002         1.27697 
        2.15211          3.3424         1.25425 
        2.16785          3.3095         1.23214 
        2.18349         3.28322         1.21071 
        2.19916         3.23774         1.18974 
        2.21489         3.16844          1.1692 
        2.23063         3.16241         1.14912 
         2.2463         3.11875         1.12962 
        2.26194         3.09242         1.11061 
        2.27765         3.04271         1.09194 
        2.29341         3.01295         1.07366 
        2.30914         2.97058         1.05583 
        2.32486         2.93746         1.03842 
        2.34061          2.9048         1.02137 
        2.35635         2.86567         1.00472 
        2.37203         2.85099        0.988497 
        2.38768         2.81726        0.972667 
        2.40339         2.76855        0.957127 
        2.41914         2.74995        0.941891 
        2.43483         2.72902        0.927041 
         2.4505         2.68271        0.912536 
        2.46622         2.65644        0.898292 
        2.48195         2.63511        0.884351 
        2.49759         2.60733         0.87078 
        2.51328          2.5713        0.857459 
        2.52906         2.54232        0.844333 
        2.54479         2.51498        0.831531 
        2.56049         2.49342        0.819019 
        2.57618         2.47241        0.806776 
        2.59189         2.44327        0.794764 
        2.60758         2.42148        0.783016 
        2.62325         2.39629        0.771521 
        2.63898         2.37199        0.760216 
        2.65468         2.33252        0.749161 
        2.67044          2.3228        0.738279 
        2.68618         2.30564        0.727638 
        2.70184         2.27416         0.71725 
        2.71755         2.24609        0.707039 
        2.73329         2.23358        0.697011 
        2.74897         2.20685         0.68721 
        2.76462         2.17676         0.67762 
        2.78034         2.16305        0.668172 
        2.79607         2.13778        0.658896 
        2.81179         2.12777        0.649806 
        2.82749         2.10359        0.640898 
        2.84321         2.08604        0.632147 
        2.85893          2.0583        0.623562 
        2.87462          2.0481        0.615151 
        2.89033          2.0324        0.606888 
        2.90605         2.01688        0.598769 
        2.92176          1.9914        0.590803 
        2.93747         1.97101        0.582987 
        2.95318         1.95828         0.57531 
        2.96891         1.94021        0.567768 
        2.98456         1.92056        0.560394 
        3.00023         1.89671        0.553141 
        3.01596         1.89318        0.545993 
        3.03164         1.87413        0.538992 
        3.04738         1.85955        0.532094 
         3.0631         1.83402        0.525319 
        3.07883         1.82076        0.518661 
        3.09456         1.80983         0.51212 
        3.11026         1.79192        0.505702 
        3.12596         1.77801        0.499394 
        3.14163         1.76196        0.493209 
        3.15734         1.75041        0.487114 
        3.17308         1.73175        0.481107 
        3.18879         1.72131        0.475218 
        3.20447         1.69779        0.469436 
         3.2202         1.69319        0.463733 
         3.2359         1.67117        0.458134 
        3.25157         1.66045        0.452641 
        3.26729         1.64742        0.447222 
        3.28304           1.641        0.441881 
        3.29877          1.6197        0.436634 
        3.31446         1.61648        0.431483 
        3.33014         1.60185        0.426421 
        3.34585         1.58075        0.421431 
        3.36158         1.56768        0.416514 
        3.37727         1.56131        0.411691 
        3.39294         1.54947        0.406949 
        3.40867         1.53259        0.402264 
        3.42439         1.52181        0.397656 
        3.44008         1.51122        0.393129 
        3.45578          1.5038        0.388669 
        3.47153         1.49025        0.384268 
        3.48724         1.48085        0.379943 
        3.50292          1.4712        0.375695 
        3.51859         1.46078        0.371514 
        3.53431         1.44976        0.367383 
        3.55007         1.43741        0.363305 
        3.56577         1.42563        0.359305 
        3.58146         1.41695        0.355367 
        3.59719         1.40323        0.351479 
        3.61292         1.39546        0.347651 
        3.62859         1.38314        0.343894 
        3.64429          1.3775        0.340185 
        3.66003         1.36416        0.336519 
        3.67578         1.35897        0.332909 
        3.69146         1.34397        0.329366 
        3.70712         1.33698         0.32588 
        3.72284         1.32764        0.322432 
        3.73853         1.31759         0.31904 
        3.75422          1.3092        0.315695 
        3.76993          1.2961        0.312396 
        3.78564         1.29187        0.309145 
        3.80137         1.28044        0.305935 
        3.81707         1.27436        0.302777 
        3.83279         1.26555        0.299661 
        3.84853         1.25487        0.296584 
        3.86424         1.24784        0.293556 
        3.87992         1.23956        0.290575 
        3.89561         1.23091        0.287635 
        3.91134         1.22106         0.28473 
        3.92704         1.21717        0.281869 
        3.94273         1.20541        0.279049 
        3.95845         1.19298        0.276263 
        3.97418         1.18703        0.273514 
        3.98988         1.18348        0.270807 
        4.00554         1.16909        0.268143 
        4.02125         1.16481        0.265508 
        4.03698         1.15531        0.262904 
        4.05268         1.14879        0.260341 
        4.06839         1.13725         0.25781 
         4.0841          1.1308        0.255313 
        4.09983          1.1219        0.252846 
        4.11555         1.11526        0.250413 
        4.13124         1.10515        0.248018 
        4.14693         1.09901        0.245653 
        4.16266         1.09087        0.243313 
        4.17839         1.08173        0.241005 
        4.19408         1.07699        0.238732 
        4.20977         1.06847        0.236487 
        4.22551         1.06169        0.234266 
        4.24123         1.05311        0.232075 
        4.25691         1.04874        0.229919 
        4.27259         1.03942        0.227789 
        4.28831         1.03171        0.225682 
        4.30404          1.0231          0.2236 
        4.31974         1.02167        0.221548 
        4.33543         1.01441        0.219523 
        4.35116         1.00923        0.217519 
        4.36688         1.00019        0.215541 
        4.38255         0.99605        0.213594 
        4.39825        0.992178        0.211667 
        4.41398        0.983995        0.209761 
         4.4297        0.974665        0.207879 
        4.44541        0.969688        0.206021 
        4.46111        0.964885        0.204188 
        4.47683        0.958226        0.202375 
        4.49251        0.953627        0.200588 
        4.50819        0.948445        0.198823 
         4.5239        0.944139        0.197076 
        4.53962        0.937664        0.195349 
        4.55535          0.9332        0.193641 
        4.57106        0.928112        0.191956 
        4.58678        0.924114        0.190291 
         4.6025        0.920503        0.188645 
        4.61821        0.916528        0.187019 
        4.63391        0.910597        0.185415 
         4.6496        0.906738        0.183829 
        4.66532        0.902503         0.18226 
        4.68103        0.896353         0.18071 
        4.69673        0.892189        0.179179 
        4.71241        0.887418        0.177667 
        4.72811        0.883837        0.176171 
        4.74384        0.877419         0.17469 
        4.75955        0.873667        0.173228 
        4.77525        0.871869        0.171783 
        4.79096        0.866784        0.170353 
        4.80669        0.863684        0.168939 
         4.8224        0.859982        0.167543 
        4.83809        0.855579        0.166164 
        4.85379        0.854929        0.164799 
         4.8695        0.850586        0.163449 
        4.88521        0.846963        0.162114 
        4.90093        0.844409        0.160794 
        4.91663         0.84154         0.15949 
        4.93234        0.835973        0.158199 
        4.94807        0.832061        0.156921 
        4.96377         0.82884         0.15566 
        4.97943        0.829441        0.154416 
        4.99514           0.825        0.153181 
        5.01086        0.820943         0.15196 
        5.02654        0.819556        0.150754 
        5.04227        0.817572        0.149559 
          5.058        0.812616        0.148375 
        5.07371        0.809465        0.147207 
        5.08942        0.808708        0.146051 
        5.10513        0.805098        0.144908 
        5.12084        0.803098        0.143776 
        5.13656        0.800395        0.142657 
        5.15225        0.796602        0.141551 
        5.16796         0.79481        0.140455 
        5.18369        0.793889         0.13937 
         5.1994        0.789311        0.138298 
        5.21509        0.788279        0.137239 
        5.23079        0.785587        0.136189 
        5.24649        0.784372        0.135151 
        5.26217        0.782957        0.134125 
        5.27788        0.779468        0.133108 
        5.29359        0.777661        0.132101 
        5.30933        0.775877        0.131103 
        5.32504        0.774136        0.130117 
        5.34073        0.771657        0.129143 
        5.35646         0.76863        0.128176 
        5.37218         0.76735        0.127219 
        5.38789        0.764814        0.126273 
        5.40357        0.764216        0.125339 
        5.41929         0.76321        0.124411 
        5.43502        0.760778        0.123493 
         5.4507        0.758793        0.122586 
        5.46639        0.756264        0.121688 
        5.48212        0.755457        0.120797 
        5.49786        0.754006        0.119914 
        5.51353        0.753344        0.119044 
        5.52921        0.749716        0.118182 
        5.54495        0.748473        0.117326 
        5.56066        0.747077        0.116479 
        5.57637        0.745787        0.115641 
        5.59207        0.744475        0.114812 
        5.60778        0.744641         0.11399 
        5.62346        0.740565        0.113178 
        5.63916        0.741054        0.112373 
        5.65487        0.737814        0.111575 
         5.6706         0.73797        0.110784 
        5.68633        0.736079        0.110001 
        5.70203        0.736554        0.109226 
        5.71773        0.734319        0.108459 
        5.73344        0.731969          0.1077 
        5.74916        0.730553        0.106946 
        5.76486        0.730378        0.106201 
        5.78054        0.729326        0.105465 
        5.79626        0.726927        0.104733 
          5.812        0.727213        0.104007 
         5.8277        0.723961         0.10329 
        5.84339        0.723932         0.10258 
        5.85911        0.724775        0.101876 
        5.87484        0.722243        0.101178 
        5.89053        0.721476        0.100488 
        5.90623        0.719433       0.0998042 
        5.92195        0.717297       0.0991255 
        5.93767        0.717138       0.0984535 
        5.95336        0.714487       0.0977889 
        5.96905        0.714615       0.0971306 
        5.98476         0.71317       0.0964774 
        6.00048        0.713728       0.0958301 
        6.01617        0.710095       0.0951895 
        6.03185         0.71025       0.0945556 
        6.04756        0.711104       0.0939259 
        6.06331        0.708635       0.0933007 
        6.07903        0.706629       0.0926824 
        6.09473        0.707908       0.0920703 
        6.11044        0.705794       0.0914632 
        6.12616        0.704245       0.0908616 
        6.14186        0.703485        0.090266 
        6.15755        0.703249       0.0896758 
        6.17326        0.703945       0.0890905 
        6.18898          0.6996       0.0885101 
        6.20467        0.701421       0.0879358 
        6.22036         0.69958       0.0873668 
         6.2361        0.697546       0.0868012 
         6.2518        0.697121       0.0862415 
        6.26748        0.695532        0.085688 
        6.28319        0.695171       0.0851378 
        6.29893        0.694409        0.084592 
        6.31463        0.693936       0.0840519 
        6.33033        0.691692       0.0835167 
        6.34604        0.692585       0.0829858 
        6.36177         0.69177       0.0824589 
        6.37747        0.691204       0.0819376 
