# k  (h/Mpc)    Pcb(k)  (Mpc/h)^3    Pcb_linear(k) (Mpc/h)^3   ShotnoiseSubtracted = true
      0.0200456         14553.3         12641.9 
      0.0350414         10050.1         9030.98 
      0.0492313         6899.91         6543.41 
      0.0637834         5311.33         5449.66 
      0.0800726         4051.15         4274.58 
       0.096163         2988.49         3074.15 
       0.111083         2632.04         2473.86 
       0.126058         2273.08            2201 
       0.142273         1869.29         1838.23 
       0.158546         1589.06         1443.29 
        0.17375         1325.43         1230.02 
       0.188953         1211.74         1117.37 
       0.204907         1022.19         977.205 
       0.220756         971.207         822.175 
        0.23588          848.62         721.275 
         0.2514         766.579          658.15 
       0.267535         716.956         590.928 
       0.283568         655.455         518.489 
       0.299022         584.473         464.207 
       0.314451         572.611         425.837 
       0.330372         520.353          389.12 
       0.346141         495.226          351.81 
       0.361624         454.088         320.335 
       0.377134         430.766         295.538 
       0.392932          406.91          273.09 
       0.408854         392.447          251.09 
       0.424564         360.072          231.49 
       0.440253         356.784          214.94 
       0.455999         332.032         200.198 
       0.471626         329.757         186.432 
        0.48727         301.949         173.763 
       0.502856         293.659         162.547 
       0.518488         285.307         152.443 
       0.534347         265.829         142.959 
       0.550082         263.549          134.24 
       0.565732         251.635         126.344 
       0.581496         243.455         119.093 
       0.597222         231.689         112.411 
       0.612804         227.718         106.262 
       0.628434         222.067         100.555 
       0.644267         213.815         95.2277 
       0.660051         208.426         90.3074 
       0.675724         199.032         85.7623 
       0.691403         196.856          81.526 
       0.707174         188.698          77.552 
       0.722871         183.216         73.8587 
        0.73838         178.592         70.4455 
       0.754018         175.704         67.2223 
       0.769845         170.999         64.1659 
        0.78569         167.323         61.2973 
       0.801365         161.251         58.6328 
       0.817031         159.804         56.1293 
       0.832809         154.499         53.7569 
       0.848511         151.902          51.533 
       0.864097         147.822         49.4509 
       0.879701         145.528         47.4823 
       0.895507          141.34         45.5983 
       0.911279         137.562         43.8208 
        0.92691         136.048         42.1533 
       0.942635         133.279         40.5637 
       0.958396         130.638         39.0531 
       0.974128         127.898         37.6225 
       0.989692         125.551          36.278 
        1.00528         123.866         34.9974 
        1.02113             120         33.7589 
        1.03692         118.032         32.5851 
        1.05264         116.309         31.4727 
        1.06832         114.421         30.4142 
        1.08405         113.289         29.4018 
        1.09979         109.676          28.435 
        1.11537         108.238         27.5215 
        1.13105         106.183         26.6428 
        1.14679         104.613         25.7992 
        1.16256         102.504         24.9907 
        1.17828         101.441         24.2196 
        1.19395         99.7282         23.4837 
         1.2097         97.1833         22.7749 
        1.22537         95.6093         22.0988 
          1.241         93.8139         21.4523 
        1.25666         92.6291         20.8301 
        1.27241         91.1769         20.2298 
        1.28819         88.4343         19.6522 
        1.30392         88.4788          19.099 
        1.31957         87.5897         18.5695 
        1.33529         85.1878         18.0583 
        1.35108         84.5482         17.5643 
        1.36674         82.7925         17.0924 
         1.3824         81.7707         16.6384 
        1.39811         80.2537         16.1993 
        1.41389         79.0836         15.7745 
        1.42964         77.6867         15.3657 
        1.44531         76.2902         14.9734 
        1.46101         75.7037          14.594 
        1.47667         74.2464         14.2289 
        1.49229         73.1094         13.8773 
        1.50793          72.168         13.5372 
        1.52367         70.4776         13.2064 
        1.53953         70.2414         12.8844 
        1.55526         69.1469         12.5758 
        1.57092         67.5092         12.2786 
        1.58662         66.7716         11.9903 
        1.60235         65.2804         11.7107 
        1.61809         64.5631         11.4399 
        1.63369         63.9224         11.1801 
        1.64941         62.6838         10.9265 
        1.66519         61.5063         10.6799 
        1.68085          60.954         10.4427 
        1.69652          60.065         10.2126 
        1.71228         59.4178          9.9882 
        1.72806         58.6657         9.77035 
        1.74368         57.8112          9.5612 
        1.75933         57.0962         9.35777 
        1.77505            56.2         9.15931 
        1.79081         55.2437         8.96627 
         1.8065         54.3852         8.77964 
        1.82218         53.8785         8.59849 
        1.83797         53.4175         8.42122 
        1.85367         52.2175         8.24993 
        1.86928         51.8628         8.08445 
        1.88497         50.8836         7.92262 
        1.90073         50.4376         7.76462 
        1.91647         49.6047         7.61108 
        1.93218         48.7538         7.46203 
        1.94787         48.4025         7.31719 
        1.96363         47.6585         7.17563 
        1.97935         46.9678         7.03812 
        1.99499         46.2185         6.90499 
        2.01064         45.7053         6.77512 
         2.0264         45.2637         6.64777 
        2.04216         44.4461         6.52377 
        2.05781         43.8082         6.40372 
        2.07353         43.4615         6.28626 
        2.08928         43.1048          6.1715 
        2.10499         42.3815         6.05991 
        2.12065         41.8682         5.95143 
        2.13633         41.4615          5.8455 
        2.15211         40.6249         5.74148 
        2.16785         40.1776         5.64028 
        2.18349         40.1139         5.54216 
        2.19916          39.259         5.44617 
        2.21489         38.7629         5.35213 
        2.23063         38.2887         5.26026 
         2.2463         37.8023         5.17096 
        2.26194         37.2145         5.08395 
        2.27765         36.7558         4.99851 
        2.29341          36.361         4.91481 
        2.30914         35.8909         4.83319 
        2.32486         35.5553         4.75348 
        2.34061         34.9646         4.67544 
        2.35635         34.5979         4.59922 
        2.37203         34.0333         4.52496 
        2.38768          33.892          4.4525 
        2.40339         33.4827         4.38137 
        2.41914         33.1641         4.31162 
        2.43483         32.6849         4.24364 
         2.4505         32.1075         4.17724 
        2.46622         31.8053         4.11204 
        2.48195         31.5256         4.04822 
        2.49759          31.088          3.9861 
        2.51328         30.5924         3.92512 
        2.52906         30.3262         3.86504 
        2.54479         30.0078         3.80643 
        2.56049         29.4887         3.74916 
        2.57618         29.1933         3.69311 
        2.59189          28.978         3.63813 
        2.60758         28.5771         3.58435 
        2.62325         28.2216         3.53173 
        2.63898         27.9706         3.47998 
        2.65468         27.5295         3.42937 
        2.67044         27.2244         3.37956 
        2.68618          26.968         3.33085 
        2.70184         26.7029          3.2833 
        2.71755         26.3549         3.23656 
        2.73329         25.9631         3.19065 
        2.74897         25.7839         3.14579 
        2.76462         25.3925         3.10189 
        2.78034          25.202         3.05864 
        2.79607         24.9179         3.01618 
        2.81179         24.6176         2.97457 
        2.82749         24.3345         2.93379 
        2.84321          24.086         2.89373 
        2.85893         23.7762         2.85443 
        2.87462         23.5223         2.81593 
        2.89033         23.3111          2.7781 
        2.90605         23.0817         2.74094 
        2.92176         22.7448         2.70447 
        2.93747          22.573         2.66869 
        2.95318         22.2511         2.63355 
        2.96891         22.0376         2.59902 
        2.98456          21.815         2.56527 
        3.00023          21.632         2.53207 
        3.01596         21.2979         2.49935 
        3.03164         21.0713          2.4673 
        3.04738         20.8251         2.43573 
         3.0631         20.6745         2.40471 
        3.07883         20.4649         2.37423 
        3.09456         20.2276         2.34429 
        3.11026         19.9463         2.31491 
        3.12596         19.7008         2.28604 
        3.14163           19.58         2.25772 
        3.15734         19.3221         2.22982 
        3.17308         19.1595         2.20233 
        3.18879         18.9604         2.17537 
        3.20447          18.745          2.1489 
         3.2202         18.4784         2.12279 
         3.2359         18.3492         2.09717 
        3.25157         18.1337         2.07202 
        3.26729         17.9436         2.04721 
        3.28304         17.7486         2.02276 
        3.29877         17.6146         1.99874 
        3.31446         17.4387         1.97517 
        3.33014           17.29         1.95199 
        3.34585         17.0801         1.92915 
        3.36158          16.858         1.90664 
        3.37727         16.7254         1.88457 
        3.39294          16.537         1.86286 
        3.40867         16.3573         1.84141 
        3.42439          16.237         1.82032 
        3.44008         16.0625         1.79959 
        3.45578          15.886         1.77918 
        3.47153          15.733         1.75903 
        3.48724         15.5661         1.73924 
        3.50292         15.4033         1.71979 
        3.51859         15.2551         1.70065 
        3.53431         15.0886         1.68174 
        3.55007           14.91         1.66307 
        3.56577         14.8171         1.64476 
        3.58146         14.6348         1.62674 
        3.59719         14.5249         1.60894 
        3.61292         14.3459         1.59141 
        3.62859         14.2148         1.57421 
        3.64429         14.0581         1.55724 
        3.66003         13.9383         1.54046 
        3.67578         13.8121         1.52393 
        3.69146         13.6954         1.50771 
        3.70712         13.5303         1.49176 
        3.72284         13.3977         1.47597 
        3.73853         13.3256         1.46044 
        3.75422          13.185         1.44513 
        3.76993         13.0021         1.43003 
        3.78564          12.913         1.41515 
        3.80137         12.7979         1.40045 
        3.81707         12.6299           1.386 
        3.83279         12.5055         1.37173 
        3.84853         12.4106         1.35765 
        3.86424         12.2736         1.34379 
        3.87992         12.2188         1.33014 
        3.89561         12.0828         1.31669 
        3.91134         11.9366         1.30339 
        3.92704         11.8463         1.29029 
        3.94273         11.7388         1.27738 
        3.95845         11.6164         1.26463 
        3.97418           11.52         1.25205 
        3.98988         11.4137         1.23965 
        4.00554         11.3072         1.22746 
        4.02125         11.1921         1.21539 
        4.03698         11.0735         1.20347 
        4.05268         10.9761         1.19174 
        4.06839         10.8958         1.18016 
         4.0841         10.7763         1.16873 
        4.09983         10.6628         1.15743 
        4.11555          10.567          1.1463 
        4.13124         10.5146         1.13533 
        4.14693         10.4188         1.12451 
        4.16266         10.2992         1.11379 
        4.17839          10.206         1.10323 
        4.19408         10.1402         1.09282 
        4.20977         10.0093         1.08255 
        4.22551         9.93335         1.07238 
        4.24123         9.83177         1.06235 
        4.25691         9.76631         1.05248 
        4.27259         9.66374         1.04273 
        4.28831             9.6         1.03309 
        4.30404         9.51229         1.02355 
        4.31974         9.41177         1.01416 
        4.33543         9.33562         1.00489 
        4.35116         9.24071         0.99572 
        4.36688         9.15913        0.986663 
        4.38255         9.09824        0.977753 
        4.39825         9.03698        0.968933 
        4.41398         8.95032        0.960204 
         4.4297         8.86452        0.951593 
        4.44541         8.78193        0.943088 
        4.46111          8.6986        0.934694 
        4.47683         8.64486        0.926396 
        4.49251         8.54219        0.918215 
        4.50819         8.48703        0.910135 
         4.5239         8.41933        0.902141 
        4.53962         8.31743        0.894233 
        4.55535         8.27634        0.886416 
        4.57106         8.20766        0.878703 
        4.58678         8.12975        0.871081 
         4.6025         8.05803        0.863547 
        4.61821         7.98928        0.856104 
        4.63391         7.91752        0.848757 
         4.6496         7.86238          0.8415 
        4.66532         7.80375        0.834317 
        4.68103         7.72539        0.827221 
        4.69673         7.66931        0.820213 
        4.71241         7.59587        0.813294 
        4.72811         7.53862        0.806443 
        4.74384         7.48508        0.799663 
        4.75955         7.39679        0.792971 
        4.77525         7.36079        0.786358 
        4.79096         7.28469        0.779814 
        4.80669         7.24568         0.77334 
         4.8224         7.19474        0.766948 
        4.83809         7.11799        0.760634 
        4.85379         7.06866        0.754387 
         4.8695          7.0042        0.748206 
        4.88521         6.94879        0.742096 
        4.90093         6.91026        0.736054 
        4.91663         6.84859        0.730084 
        4.93234         6.78762        0.724175 
        4.94807         6.74906        0.718326 
        4.96377         6.66624        0.712553 
        4.97943         6.62287        0.706856 
        4.99514         6.56655        0.701206 
        5.01086         6.51321        0.695614 
        5.02654         6.46392        0.690097 
        5.04227         6.41921        0.684623 
          5.058         6.37859        0.679207 
        5.07371         6.32223        0.673859 
        5.08942         6.27936        0.668569 
        5.10513         6.22754        0.663334 
        5.12084         6.17443        0.658153 
        5.13656         6.12894        0.653028 
        5.15225         6.09323        0.647967 
        5.16796         6.02785        0.642951 
        5.18369         5.98843        0.637983 
         5.1994         5.94594        0.633077 
        5.21509         5.90806        0.628227 
        5.23079         5.85492        0.623422 
        5.24649         5.81641        0.618671 
        5.26217         5.76873        0.613973 
        5.27788         5.71602        0.609317 
        5.29359         5.67514        0.604708 
        5.30933          5.6336         0.60014 
        5.32504          5.6058        0.595627 
        5.34073          5.5515        0.591166 
        5.35646         5.50502        0.586741 
        5.37218         5.45877        0.582361 
        5.38789         5.42561        0.578032 
        5.40357         5.37964        0.573752 
        5.41929         5.34543        0.569506 
        5.43502          5.3123        0.565303 
         5.4507         5.27708        0.561152 
        5.46639         5.23479        0.557042 
        5.48212         5.19381        0.552964 
        5.49786          5.1598        0.548921 
        5.51353         5.12353        0.544939 
        5.52921         5.08393        0.540993 
        5.54495         5.04272        0.537074 
        5.56066           5.019        0.533198 
        5.57637         4.97087        0.529361 
        5.59207         4.93598        0.525564 
        5.60778         4.89972        0.521804 
        5.62346         4.86231        0.518086 
        5.63916         4.82627          0.5144 
        5.65487         4.79467        0.510748 
         5.6706         4.75387        0.507128 
        5.68633         4.72712        0.503541 
        5.70203         4.69415        0.499996 
        5.71773         4.66915        0.496486 
        5.73344         4.63347        0.493008 
        5.74916         4.59616         0.48956 
        5.76486         4.57079         0.48615 
        5.78054         4.53998        0.482777 
        5.79626         4.49854        0.479427 
          5.812         4.46712        0.476105 
         5.8277         4.44124        0.472824 
        5.84339         4.41247        0.469574 
        5.85911         4.38901        0.466349 
        5.87484          4.3518        0.463154 
        5.89053         4.32224        0.459996 
        5.90623         4.29014        0.456866 
        5.92195         4.26527        0.453759 
        5.93767         4.22936        0.450683 
        5.95336         4.20409         0.44764 
        5.96905         4.17811        0.444627 
        5.98476         4.15041        0.441637 
        6.00048         4.12815        0.438674 
        6.01617         4.09602        0.435742 
        6.03185           4.069         0.43284 
        6.04756          4.0418        0.429957 
        6.06331         4.01392        0.427095 
        6.07903         3.98606        0.424265 
        6.09473         3.95704        0.421463 
        6.11044         3.93103        0.418684 
        6.12616         3.90238         0.41593 
        6.14186         3.88309        0.413204 
        6.15755         3.85853        0.410502 
        6.17326         3.83141        0.407823 
        6.18898         3.80528        0.405166 
        6.20467         3.77789        0.402537 
        6.22036         3.76334        0.399932 
         6.2361         3.73897        0.397343 
         6.2518          3.7077        0.394781 
        6.26748         3.68522        0.392247 
        6.28319         3.66983        0.389729 
        6.29893         3.64298         0.38723 
        6.31463         3.61259        0.384758 
        6.33033          3.5917        0.382308 
        6.34604         3.57543        0.379877 
        6.36177         3.55642        0.377466 
        6.37747         3.53147         0.37508 
