# k  (h/Mpc)    Pcb(k)  (Mpc/h)^3    Pcb_linear(k) (Mpc/h)^3   ShotnoiseSubtracted = true
      0.0200456          6041.8         5245.96 
      0.0350414         4230.52         3747.54 
      0.0492313         2909.41         2715.28 
      0.0637834         2199.84         2261.42 
      0.0800726          1711.1          1773.8 
       0.096163         1242.24         1275.66 
       0.111083         1083.78         1026.56 
       0.126058         929.639         913.337 
       0.142273         746.819         762.799 
       0.158546         629.539         598.915 
        0.17375          526.46         510.415 
       0.188953         484.644         463.671 
       0.204907         400.592         405.506 
       0.220756         374.739         341.173 
        0.23588         317.785         299.304 
         0.2514         293.758         273.109 
       0.267535         270.848         245.214 
       0.283568          240.07         215.155 
       0.299022         208.425          192.63 
       0.314451         207.498         176.707 
       0.330372         183.352         161.471 
       0.346141         176.752         145.989 
       0.361624         157.923         132.928 
       0.377134         147.414         122.638 
       0.392932         140.909         113.323 
       0.408854         133.546         104.193 
       0.424564         121.508         96.0603 
       0.440253         115.406         89.1926 
       0.455999         108.874         83.0749 
       0.471626         104.281         77.3626 
        0.48727           95.93         72.1053 
       0.502856         91.2737         67.4514 
       0.518488         89.8968         63.2583 
       0.534347         83.4447         59.3228 
       0.550082         80.9381         55.7049 
       0.565732         77.4015         52.4284 
       0.581496         72.9705         49.4195 
       0.597222         70.2427         46.6465 
       0.612804         67.6488         44.0948 
       0.628434         64.8703         41.7267 
       0.644267         62.3539         39.5161 
       0.660051         60.7981         37.4744 
       0.675724         57.8511         35.5883 
       0.691403         56.4433         33.8304 
       0.707174         53.5861         32.1813 
       0.722871         51.3723         30.6487 
        0.73838         50.2645         29.2324 
       0.754018         48.9032         27.8949 
       0.769845         47.0598         26.6266 
        0.78569         46.1286         25.4362 
       0.801365         43.9607         24.3305 
       0.817031         42.5611         23.2917 
       0.832809         41.3582         22.3072 
       0.848511         40.8606         21.3844 
       0.864097         39.2361         20.5204 
       0.879701         38.3499         19.7035 
       0.895507          37.216         18.9217 
       0.911279         36.0778         18.1841 
        0.92691         35.3513         17.4921 
       0.942635         34.5577         16.8325 
       0.958396         33.9842         16.2057 
       0.974128         32.9404          15.612 
       0.989692         32.1337         15.0541 
        1.00528         31.4078         14.5227 
        1.02113         30.6201         14.0087 
        1.03692         29.8917         13.5216 
        1.05264         29.2627         13.0601 
        1.06832         28.6825         12.6208 
        1.08405         27.7965         12.2007 
        1.09979          27.399         11.7995 
        1.11537         26.8004         11.4204 
        1.13105         26.0763         11.0558 
        1.14679         25.7357         10.7058 
        1.16256         25.1743         10.3702 
        1.17828         24.4697         10.0503 
        1.19395         24.1523         9.74492 
         1.2097         23.8549         9.45076 
        1.22537         23.3384         9.17021 
          1.241         22.6755         8.90193 
        1.25666         22.1481         8.64376 
        1.27241         22.1001         8.39465 
        1.28819         21.7203         8.15498 
        1.30392         21.2703         7.92539 
        1.31957         20.8261         7.70569 
        1.33529         20.5013         7.49354 
        1.35108         20.1227         7.28857 
        1.36674          19.867         7.09275 
         1.3824         19.4197         6.90433 
        1.39811          19.197         6.72215 
        1.41389         18.8507         6.54586 
        1.42964         18.5159         6.37621 
        1.44531         18.1788         6.21342 
        1.46101         17.8689         6.05599 
        1.47667         17.6108         5.90449 
        1.49229         17.2187          5.7586 
        1.50793         16.8694         5.61748 
        1.52367         16.7282         5.48019 
        1.53953         16.5314         5.34659 
        1.55526          16.408         5.21851 
        1.57092         16.0422         5.09517 
        1.58662         15.7927         4.97554 
        1.60235         15.5364         4.85952 
        1.61809         15.2918         4.74715 
        1.63369         15.0577         4.63934 
        1.64941          14.932         4.53412 
        1.66519         14.7195         4.43179 
        1.68085         14.3959         4.33335 
        1.69652          14.239         4.23788 
        1.71228         14.0528         4.14475 
        1.72806         13.8404         4.05435 
        1.74368         13.7494         3.96756 
        1.75933         13.5709         3.88314 
        1.77505         13.3583         3.80079 
        1.79081         13.2216         3.72069 
         1.8065         12.9385         3.64324 
        1.82218         12.8371         3.56807 
        1.83797         12.6495         3.49451 
        1.85367         12.4816         3.42343 
        1.86928         12.3037         3.35476 
        1.88497         12.2204         3.28761 
        1.90073         11.9937         3.22204 
        1.91647         11.8018         3.15833 
        1.93218         11.6835         3.09648 
        1.94787         11.6799         3.03638 
        1.96363         11.4211         2.97763 
        1.97935         11.2821         2.92057 
        1.99499         11.1208         2.86533 
        2.01064           10.93         2.81143 
         2.0264         10.8454         2.75859 
        2.04216         10.7267         2.70713 
        2.05781         10.5268         2.65732 
        2.07353         10.4419         2.60858 
        2.08928         10.3316         2.56095 
        2.10499          10.208         2.51465 
        2.12065         10.0931         2.46963 
        2.13633         9.94528         2.42568 
        2.15211         9.88166         2.38251 
        2.16785         9.72416         2.34052 
        2.18349         9.66224          2.2998 
        2.19916         9.50488         2.25997 
        2.21489         9.39549         2.22095 
        2.23063         9.26321         2.18282 
         2.2463         9.20124         2.14576 
        2.26194         9.05086         2.10966 
        2.27765         9.00735          2.0742 
        2.29341         8.91041         2.03947 
        2.30914         8.78297          2.0056 
        2.32486         8.67893         1.97253 
        2.34061         8.62074         1.94014 
        2.35635         8.53493         1.90851 
        2.37203         8.44625          1.8777 
        2.38768         8.33515         1.84763 
        2.40339         8.23994         1.81811 
        2.41914         8.15491         1.78917 
        2.43483         8.06639         1.76096 
         2.4505         7.96604         1.73341 
        2.46622         7.88848         1.70635 
        2.48195         7.81131         1.67987 
        2.49759         7.71507         1.65409 
        2.51328         7.61935         1.62879 
        2.52906         7.59301         1.60385 
        2.54479         7.46723         1.57954 
        2.56049          7.4164         1.55577 
        2.57618         7.32205         1.53251 
        2.59189         7.24658          1.5097 
        2.60758         7.18419         1.48738 
        2.62325         7.10709         1.46554 
        2.63898         7.00657         1.44407 
        2.65468          6.9145         1.42307 
        2.67044         6.89263          1.4024 
        2.68618         6.79714         1.38219 
        2.70184         6.75484         1.36245 
        2.71755         6.66603         1.34306 
        2.73329         6.58747         1.32401 
        2.74897         6.55848         1.30539 
        2.76462         6.46535         1.28717 
        2.78034         6.41806         1.26923 
        2.79607         6.35453         1.25161 
        2.81179         6.29686         1.23434 
        2.82749         6.20959         1.21742 
        2.84321         6.15473          1.2008 
        2.85893         6.10707         1.18449 
        2.87462         6.03301         1.16851 
        2.89033         5.99469         1.15281 
        2.90605         5.93089         1.13739 
        2.92176         5.86516         1.12226 
        2.93747         5.79021         1.10741 
        2.95318          5.7839         1.09283 
        2.96891         5.68627          1.0785 
        2.98456         5.65487          1.0645 
        3.00023         5.59659         1.05072 
        3.01596         5.56248         1.03714 
        3.03164         5.49397         1.02384 
        3.04738         5.45222         1.01074 
         3.0631         5.40464         0.99787 
        3.07883         5.34535        0.985223 
        3.09456         5.29441        0.972798 
        3.11026         5.23204        0.960606 
        3.12596         5.21849        0.948625 
        3.14163         5.16401        0.936875 
        3.15734          5.1062        0.925298 
        3.17308         5.06258        0.913888 
        3.18879         5.02732        0.902701 
        3.20447         4.97259        0.891718 
         3.2202         4.94688        0.880884 
         3.2359         4.89163        0.870249 
        3.25157         4.84166        0.859816 
        3.26729         4.81028        0.849521 
        3.28304         4.77093        0.839375 
        3.29877         4.71549        0.829408 
        3.31446         4.67752        0.819625 
        3.33014         4.64926        0.810008 
        3.34585         4.60132         0.80053 
        3.36158         4.56276         0.79119 
        3.37727         4.50635        0.782028 
        3.39294         4.48977         0.77302 
        3.40867         4.43581        0.764121 
        3.42439         4.39386        0.755368 
        3.44008         4.37024        0.746768 
        3.45578         4.34169        0.738296 
        3.47153         4.30735        0.729937 
        3.48724         4.26555        0.721721 
        3.50292         4.22246        0.713652 
        3.51859          4.1963        0.705709 
        3.53431         4.16191        0.697863 
        3.55007          4.1279        0.690117 
        3.56577         4.08494        0.682519 
        3.58146         4.05299        0.675038 
        3.59719         4.01232        0.667653 
        3.61292         3.98966         0.66038 
        3.62859         3.95428        0.653243 
        3.64429         3.91505        0.646198 
        3.66003         3.90296        0.639236 
        3.67578         3.85681        0.632378 
        3.69146         3.83476        0.625647 
        3.70712         3.79403        0.619026 
        3.72284         3.77697        0.612476 
        3.73853         3.73602        0.606033 
        3.75422         3.71461        0.599679 
        3.76993         3.68281        0.593412 
        3.78564         3.64366        0.587236 
        3.80137         3.62456        0.581139 
        3.81707         3.59337         0.57514 
        3.83279         3.57024        0.569221 
        3.84853         3.53526        0.563377 
        3.86424         3.51029        0.557625 
        3.87992         3.48228        0.551963 
        3.89561         3.46165        0.546378 
        3.91134         3.43414         0.54086 
        3.92704         3.40439        0.535424 
        3.94273         3.37492        0.530068 
        3.95845         3.35293        0.524776 
        3.97418         3.33427        0.519554 
        3.98988         3.30009        0.514411 
        4.00554         3.28145        0.509352 
        4.02125         3.23446        0.504346 
        4.03698         3.21808        0.499399 
        4.05268         3.19887         0.49453 
        4.06839         3.16708        0.489723 
         4.0841         3.14711         0.48498 
        4.09983         3.12522        0.480294 
        4.11555         3.10405        0.475672 
        4.13124         3.07643        0.471123 
        4.14693         3.04126         0.46663 
        4.16266         3.02388        0.462185 
        4.17839         3.01037          0.4578 
        4.19408          2.9842        0.453483 
        4.20977         2.95515        0.449219 
        4.22551          2.9339        0.444999 
        4.24123         2.91219        0.440839 
        4.25691         2.89587        0.436743 
        4.27259         2.87573        0.432697 
        4.28831         2.85608        0.428695 
        4.30404         2.82044        0.424739 
        4.31974         2.81406        0.420842 
        4.33543         2.79274        0.416996 
        4.35116         2.76702        0.413189 
        4.36688         2.75175         0.40943 
        4.38255         2.73162        0.405733 
        4.39825         2.70337        0.402073 
        4.41398         2.68131        0.398451 
         4.4297         2.67353        0.394877 
        4.44541         2.64991        0.391348 
        4.46111         2.63414        0.387865 
        4.47683         2.61347        0.384421 
        4.49251         2.59842        0.381027 
        4.50819         2.57177        0.377674 
         4.5239         2.55234        0.374357 
        4.53962         2.54067        0.371075 
        4.55535         2.52708        0.367831 
        4.57106         2.50815        0.364631 
        4.58678         2.48846        0.361468 
         4.6025         2.47223        0.358341 
        4.61821         2.45188        0.355253 
        4.63391         2.43563        0.352204 
         4.6496         2.42202        0.349193 
        4.66532         2.40285        0.346212 
        4.68103         2.39208        0.343267 
        4.69673         2.37792        0.340359 
        4.71241         2.35533        0.337488 
        4.72811         2.34209        0.334645 
        4.74384         2.32311        0.331832 
        4.75955           2.312        0.329055 
        4.77525         2.29779        0.326311 
        4.79096          2.2836        0.323595 
        4.80669         2.26464        0.320909 
         4.8224         2.25088        0.318256 
        4.83809         2.23594        0.315636 
        4.85379         2.22621        0.313044 
         4.8695         2.21077        0.310479 
        4.88521         2.19745        0.307944 
        4.90093         2.18383        0.305436 
        4.91663         2.17118        0.302959 
        4.93234         2.15254        0.300507 
        4.94807         2.13764         0.29808 
        4.96377         2.12713        0.295684 
        4.97943         2.12444         0.29332 
        4.99514         2.09984        0.290976 
        5.01086         2.08909        0.288655 
        5.02654         2.07704        0.286366 
        5.04227         2.06598        0.284095 
          5.058         2.04868        0.281847 
        5.07371         2.03964        0.279628 
        5.08942         2.02423        0.277432 
        5.10513         2.01557         0.27526 
        5.12084         2.00446         0.27311 
        5.13656          1.9907        0.270984 
        5.15225         1.97857        0.268883 
        5.16796         1.96864        0.266802 
        5.18369         1.95317         0.26474 
         5.1994         1.94412        0.262705 
        5.21509          1.9292        0.260692 
        5.23079         1.92136        0.258698 
        5.24649         1.91352        0.256727 
        5.26217         1.89753        0.254777 
        5.27788         1.88989        0.252845 
        5.29359         1.87532        0.250932 
        5.30933          1.8661        0.249037 
        5.32504         1.85602        0.247164 
        5.34073         1.84885        0.245313 
        5.35646         1.83412        0.243477 
        5.37218         1.82968        0.241659 
        5.38789         1.81534        0.239863 
        5.40357         1.80032        0.238087 
        5.41929         1.79677        0.236325 
        5.43502         1.78388        0.234581 
         5.4507         1.77364        0.232858 
        5.46639         1.76228        0.231153 
        5.48212         1.75548         0.22946 
        5.49786         1.74825        0.227783 
        5.51353         1.74109        0.226131 
        5.52921         1.72479        0.224493 
        5.54495         1.71806        0.222867 
        5.56066         1.71067        0.221258 
        5.57637         1.69835        0.219666 
        5.59207         1.69343        0.218091 
        5.60778          1.6868         0.21653 
        5.62346         1.67394        0.214987 
        5.63916         1.66197        0.213458 
        5.65487         1.65572        0.211943 
         5.6706          1.6433         0.21044 
        5.68633         1.63682        0.208952 
        5.70203         1.62929        0.207481 
        5.71773         1.62103        0.206024 
        5.73344         1.61288        0.204581 
        5.74916           1.605         0.20315 
        5.76486         1.59646        0.201735 
        5.78054         1.59125        0.200335 
        5.79626         1.58097        0.198945 
          5.812         1.57202        0.197567 
         5.8277         1.56641        0.196205 
        5.84339         1.55879        0.194857 
        5.85911         1.54557        0.193518 
        5.87484         1.54096        0.192193 
        5.89053         1.53386        0.190882 
        5.90623         1.52798        0.189583 
        5.92195         1.51913        0.188294 
        5.93767         1.51484        0.187017 
        5.95336         1.50608        0.185755 
        5.96905         1.49705        0.184505 
        5.98476         1.49079        0.183264 
        6.00048          1.4839        0.182034 
        6.01617         1.47827        0.180817 
        6.03185         1.47141        0.179613 
        6.04756         1.46295        0.178417 
        6.06331         1.45835        0.177229 
        6.07903         1.45009        0.176055 
        6.09473          1.4448        0.174892 
        6.11044         1.43772        0.173739 
        6.12616         1.43367        0.172596 
        6.14186         1.42392        0.171465 
        6.15755         1.41739        0.170344 
        6.17326         1.41066        0.169232 
        6.18898          1.4059        0.168129 
        6.20467         1.39908        0.167039 
        6.22036         1.39168        0.165958 
         6.2361         1.38546        0.164883 
         6.2518         1.37946         0.16382 
        6.26748         1.37404        0.162769 
        6.28319         1.36881        0.161724 
        6.29893         1.36339        0.160687 
        6.31463         1.35675        0.159661 
        6.33033         1.35038        0.158644 
        6.34604         1.34268        0.157636 
        6.36177         1.33767        0.156635 
        6.37747         1.33454        0.155645 
