# k  (h/Mpc)    Pcb(k)  (Mpc/h)^3    Pcb_linear(k) (Mpc/h)^3   ShotnoiseSubtracted = true
      0.0200456         9076.35         7881.01 
      0.0350414         6320.26         5629.94 
      0.0492313         4343.38         4079.18 
      0.0637834         3307.76         3397.33 
      0.0800726         2553.32         2664.79 
       0.096163         1864.83         1916.43 
       0.111083          1633.6         1542.21 
       0.126058         1405.78         1372.11 
       0.142273         1138.97         1145.95 
       0.158546         964.134         899.751 
        0.17375         803.541         766.799 
       0.188953         738.152         696.574 
       0.204907         613.976         609.192 
       0.220756         580.082         512.546 
        0.23588         497.935         449.645 
         0.2514         454.389         410.292 
       0.267535         421.355         368.386 
       0.283568         379.196         323.228 
       0.299022         332.191         289.388 
       0.314451         329.557         265.468 
       0.330372         294.179         242.578 
       0.346141         281.926         219.319 
       0.361624         252.954         199.698 
       0.377134         238.829         184.239 
       0.392932         228.749         170.245 
       0.408854         217.567          156.53 
       0.424564          198.84         144.312 
       0.440253         191.947         133.994 
       0.455999         179.902         124.804 
       0.471626         175.084         116.222 
        0.48727         159.905         108.324 
       0.502856         154.495         101.332 
       0.518488         151.782         95.0331 
       0.534347         139.998         89.1209 
       0.550082         137.809         83.6856 
       0.565732         132.278         78.7633 
       0.581496         125.127          74.243 
       0.597222         120.778         70.0772 
       0.612804         117.382         66.2437 
       0.628434         112.891         62.6861 
       0.644267         109.285         59.3652 
       0.660051         106.783         56.2979 
       0.675724         101.118         53.4644 
       0.691403          100.03         50.8235 
       0.707174         94.7096         48.3461 
       0.722871         91.2885         46.0437 
        0.73838         90.1097         43.9159 
       0.754018         87.8416         41.9065 
       0.769845         85.0045         40.0012 
        0.78569         83.5059         38.2129 
       0.801365         80.1904         36.5518 
       0.817031         78.1095         34.9911 
       0.832809         75.0777         33.5122 
       0.848511         75.0238         32.1258 
       0.864097         71.9415         30.8278 
       0.879701          70.379         29.6006 
       0.895507         68.9665         28.4261 
       0.911279         66.6112          27.318 
        0.92691         65.3659         26.2785 
       0.942635         64.4816         25.2875 
       0.958396         63.2495         24.3458 
       0.974128         61.3558          23.454 
       0.989692         60.0219         22.6158 
        1.00528         59.0396         21.8175 
        1.02113         57.3944         21.0454 
        1.03692         56.4277         20.3136 
        1.05264         55.3141         19.6202 
        1.06832         54.3994         18.9603 
        1.08405         53.2374         18.3291 
        1.09979         52.1985         17.7265 
        1.11537         50.9729          17.157 
        1.13105         49.8514         16.6092 
        1.14679          49.464         16.0833 
        1.16256         48.6032         15.5793 
        1.17828         47.1867         15.0985 
        1.19395         46.6934         14.6398 
         1.2097           45.68         14.1979 
        1.22537         45.1443         13.7764 
          1.241         44.1951         13.3734 
        1.25666         43.3147         12.9855 
        1.27241           42.72         12.6113 
        1.28819         42.0515         12.2512 
        1.30392         41.3529         11.9063 
        1.31957          40.748         11.5763 
        1.33529         39.9091         11.2576 
        1.35108         39.2969         10.9496 
        1.36674         38.5263         10.6555 
         1.3824          38.041         10.3724 
        1.39811         37.4887         10.0987 
        1.41389         37.0215         9.83387 
        1.42964         36.3309           9.579 
        1.44531          35.707         9.33445 
        1.46101         35.3101         9.09793 
        1.47667         34.9089         8.87033 
        1.49229         34.0447         8.65115 
        1.50793         33.5933         8.43915 
        1.52367         33.0318         8.23291 
        1.53953         32.6617         8.03219 
        1.55526         32.4537         7.83979 
        1.57092         31.8286         7.65449 
        1.58662         31.5368         7.47476 
        1.60235         30.6715         7.30047 
        1.61809         30.4487         7.13166 
        1.63369         29.8205          6.9697 
        1.64941          29.535         6.81162 
        1.66519         29.2443         6.65789 
        1.68085         28.7047         6.51001 
        1.69652         28.3637         6.36658 
        1.71228         27.9957         6.22667 
        1.72806         27.5927         6.09086 
        1.74368         27.1705         5.96048 
        1.75933         27.0837         5.83366 
        1.77505         26.5218         5.70994 
        1.79081          26.229          5.5896 
         1.8065          25.893         5.47325 
        1.82218         25.5994         5.36032 
        1.83797         25.2236         5.24981 
        1.85367         24.9642         5.14303 
        1.86928         24.5171         5.03987 
        1.88497         24.2535         4.93898 
        1.90073         23.9844         4.84048 
        1.91647         23.5727         4.74477 
        1.93218         23.2796         4.65185 
        1.94787         23.1089         4.56156 
        1.96363         22.6899         4.47331 
        1.97935         22.5882         4.38758 
        1.99499          22.205         4.30459 
        2.01064          21.789         4.22362 
         2.0264         21.7397         4.14424 
        2.04216         21.2853         4.06693 
        2.05781         21.1592         3.99209 
        2.07353          20.926         3.91887 
        2.08928         20.6208         3.84733 
        2.10499         20.3699         3.77776 
        2.12065         20.2103         3.71013 
        2.13633          19.809          3.6441 
        2.15211         19.6536         3.57925 
        2.16785          19.389         3.51616 
        2.18349         19.2319         3.45499 
        2.19916         19.0567         3.39515 
        2.21489         18.8595         3.33653 
        2.23063         18.5133         3.27926 
         2.2463         18.3551         3.22359 
        2.26194         18.0583         3.16935 
        2.27765         17.9202         3.11608 
        2.29341         17.7396          3.0639 
        2.30914         17.3995         3.01303 
        2.32486         17.3006         2.96333 
        2.34061         17.1158         2.91468 
        2.35635         16.7996         2.86717 
        2.37203         16.6502         2.82087 
        2.38768         16.4771          2.7757 
        2.40339         16.2894         2.73136 
        2.41914         16.1309         2.68788 
        2.43483         15.9908          2.6455 
         2.4505         15.8045          2.6041 
        2.46622         15.5717         2.56346 
        2.48195         15.4525         2.52367 
        2.49759         15.2608         2.48495 
        2.51328         15.1058         2.44693 
        2.52906         14.9894         2.40947 
        2.54479         14.7731         2.37294 
        2.56049         14.6311         2.33724 
        2.57618         14.4365          2.3023 
        2.59189         14.3835         2.26802 
        2.60758         14.1947         2.23449 
        2.62325         14.0389         2.20169 
        2.63898          13.857         2.16943 
        2.65468         13.7818         2.13788 
        2.67044         13.5721         2.10683 
        2.68618         13.4313         2.07646 
        2.70184         13.2782         2.04682 
        2.71755         13.1404         2.01768 
        2.73329         12.9728         1.98906 
        2.74897         12.8949         1.96109 
        2.76462         12.7536         1.93372 
        2.78034         12.6199         1.90676 
        2.79607         12.4762         1.88029 
        2.81179         12.3413         1.85435 
        2.82749         12.2101         1.82893 
        2.84321         12.0661         1.80396 
        2.85893         11.9706         1.77946 
        2.87462         11.8304         1.75546 
        2.89033         11.6818         1.73188 
        2.90605         11.5836         1.70871 
        2.92176         11.4743         1.68598 
        2.93747         11.3307         1.66367 
        2.95318         11.2622         1.64176 
        2.96891         11.1049         1.62024 
        2.98456         11.0166          1.5992 
        3.00023         10.9049          1.5785 
        3.01596         10.8057          1.5581 
        3.03164         10.6691         1.53812 
        3.04738         10.5616         1.51844 
         3.0631         10.4874          1.4991 
        3.07883          10.421          1.4801 
        3.09456         10.2618         1.46144 
        3.11026         10.1581         1.44312 
        3.12596         10.0479         1.42512 
        3.14163         9.93758         1.40747 
        3.15734          9.8705         1.39008 
        3.17308         9.80256         1.37294 
        3.18879         9.70326         1.35613 
        3.20447         9.60624         1.33963 
         3.2202         9.51006         1.32336 
         3.2359         9.39806         1.30738 
        3.25157         9.30335          1.2917 
        3.26729         9.27666         1.27624 
        3.28304         9.15026           1.261 
        3.29877         9.06077         1.24602 
        3.31446          8.9859         1.23132 
        3.33014         8.88726         1.21688 
        3.34585         8.81977         1.20264 
        3.36158         8.73043         1.18861 
        3.37727           8.654         1.17484 
        3.39294         8.56165         1.16131 
        3.40867         8.47212         1.14794 
        3.42439         8.43015         1.13479 
        3.44008         8.34762         1.12187 
        3.45578         8.22136         1.10914 
        3.47153         8.18732         1.09659 
        3.48724         8.12058         1.08424 
        3.50292         8.01484         1.07212 
        3.51859         7.93909         1.06019 
        3.53431         7.89734          1.0484 
        3.55007         7.83396         1.03676 
        3.56577          7.7676         1.02535 
        3.58146         7.67551         1.01411 
        3.59719         7.62819         1.00302 
        3.61292         7.53316        0.992091 
        3.62859         7.46835        0.981369 
        3.64429          7.4055        0.970786 
        3.66003         7.31459        0.960326 
        3.67578          7.2937        0.950023 
        3.69146          7.2003        0.939911 
        3.70712         7.12931        0.929965 
        3.72284         7.06916        0.920125 
        3.73853         7.02939        0.910445 
        3.75422         6.96148          0.9009 
        3.76993         6.90405        0.891484 
        3.78564         6.82905        0.882207 
        3.80137         6.78179        0.873046 
        3.81707         6.70097        0.864035 
        3.83279         6.66938        0.855143 
        3.84853         6.59777        0.846362 
        3.86424         6.54239        0.837722 
        3.87992         6.50905        0.829215 
        3.89561         6.43861        0.820825 
        3.91134          6.3741        0.812535 
        3.92704         6.32084        0.804369 
        3.94273         6.28348        0.796323 
        3.95845         6.21972        0.788372 
        3.97418         6.15934        0.780528 
        3.98988         6.10517        0.772801 
        4.00554         6.06071          0.7652 
        4.02125         6.00807         0.75768 
        4.03698         5.93747        0.750249 
        4.05268         5.90862        0.742934 
        4.06839         5.84758        0.735712 
         4.0841         5.81987        0.728587 
        4.09983         5.74554        0.721547 
        4.11555         5.70357        0.714603 
        4.13124         5.65211         0.70777 
        4.14693         5.62361        0.701019 
        4.16266         5.57713        0.694342 
        4.17839         5.50816        0.687755 
        4.19408         5.47425        0.681268 
        4.20977         5.43896        0.674863 
        4.22551         5.38009        0.668524 
        4.24123          5.3372        0.662273 
        4.25691         5.30247         0.65612 
        4.27259         5.25963        0.650042 
        4.28831         5.21309        0.644029 
        4.30404         5.15757        0.638086 
        4.31974         5.12224        0.632232 
        4.33543         5.06884        0.626454 
        4.35116         5.05454        0.620734 
        4.36688         5.00947        0.615088 
        4.38255          4.9539        0.609534 
        4.39825         4.92307        0.604035 
        4.41398          4.8751        0.598594 
         4.4297         4.84908        0.593225 
        4.44541         4.81338        0.587923 
        4.46111         4.75824         0.58269 
        4.47683         4.72692        0.577517 
        4.49251         4.70278        0.572418 
        4.50819         4.65646        0.567381 
         4.5239         4.62039        0.562397 
        4.53962          4.5749        0.557467 
        4.55535         4.55393        0.552594 
        4.57106         4.50897        0.547786 
        4.58678         4.47021        0.543034 
         4.6025         4.44349        0.538337 
        4.61821         4.39786        0.533697 
        4.63391         4.37847        0.529117 
         4.6496         4.34088        0.524593 
        4.66532         4.31642        0.520115 
        4.68103         4.26904        0.515691 
        4.69673         4.23791        0.511323 
        4.71241         4.20895         0.50701 
        4.72811         4.17474        0.502739 
        4.74384          4.1463        0.498512 
        4.75955         4.12119         0.49434 
        4.77525          4.0848        0.490218 
        4.79096         4.05668        0.486138 
        4.80669          4.0178        0.482102 
         4.8224         3.99423        0.478117 
        4.83809         3.96127        0.474181 
        4.85379         3.93518        0.470287 
         4.8695         3.90863        0.466433 
        4.88521         3.88078        0.462625 
        4.90093         3.84851        0.458858 
        4.91663         3.82088        0.455136 
        4.93234         3.79889        0.451452 
        4.94807         3.76231        0.447806 
        4.96377         3.73085        0.444208 
        4.97943         3.71561        0.440656 
        4.99514         3.69066        0.437134 
        5.01086         3.66569        0.433648 
        5.02654         3.63468        0.430208 
        5.04227         3.60721        0.426796 
          5.058         3.57488        0.423419 
        5.07371         3.55085        0.420086 
        5.08942         3.53148        0.416787 
        5.10513         3.50733        0.413524 
        5.12084         3.47827        0.410294 
        5.13656         3.44978        0.407099 
        5.15225         3.43662        0.403944 
        5.16796         3.41766        0.400817 
        5.18369         3.39334         0.39772 
         5.1994         3.37077        0.394662 
        5.21509         3.34584        0.391638 
        5.23079         3.31689        0.388643 
        5.24649         3.28811        0.385681 
        5.26217         3.27145        0.382752 
        5.27788         3.25364         0.37985 
        5.29359         3.22527        0.376976 
        5.30933         3.20273        0.374129 
        5.32504         3.17731        0.371316 
        5.34073          3.1637        0.368534 
        5.35646         3.14294        0.365776 
        5.37218         3.12181        0.363045 
        5.38789         3.10004        0.360347 
        5.40357         3.07634        0.357679 
        5.41929         3.06522        0.355032 
        5.43502         3.04035        0.352411 
         5.4507         3.02315        0.349824 
        5.46639          3.0003        0.347261 
        5.48212         2.98107        0.344719 
        5.49786         2.95973        0.342199 
        5.51353         2.94706        0.339717 
        5.52921         2.91744        0.337256 
        5.54495         2.89795        0.334813 
        5.56066         2.88402        0.332397 
        5.57637         2.86769        0.330005 
        5.59207         2.84767        0.327638 
        5.60778         2.82802        0.325294 
        5.62346         2.81383        0.322976 
        5.63916         2.78984        0.320678 
        5.65487         2.77741        0.318402 
         5.6706         2.75152        0.316145 
        5.68633         2.73881        0.313909 
        5.70203         2.72313        0.311699 
        5.71773         2.70492        0.309511 
        5.73344         2.68999        0.307343 
        5.74916         2.67353        0.305193 
        5.76486         2.65941        0.303067 
        5.78054          2.6406        0.300964 
        5.79626         2.62956        0.298876 
          5.812         2.60842        0.296805 
         5.8277         2.59065         0.29476 
        5.84339         2.57217        0.292734 
        5.85911         2.56034        0.290723 
        5.87484         2.54783        0.288732 
        5.89053         2.52908        0.286763 
        5.90623         2.51416        0.284811 
        5.92195         2.50369        0.282874 
        5.93767          2.4822        0.280957 
        5.95336         2.46648         0.27906 
        5.96905         2.45417        0.277182 
        5.98476         2.43922        0.275318 
        6.00048         2.42575         0.27347 
        6.01617         2.41414        0.271642 
        6.03185         2.39865        0.269833 
        6.04756         2.38669        0.268037 
        6.06331         2.36811        0.266252 
        6.07903         2.36063        0.264488 
        6.09473         2.34287        0.262741 
        6.11044         2.32972        0.261008 
        6.12616         2.31102        0.259292 
        6.14186          2.3004        0.257592 
        6.15755         2.28587        0.255908 
        6.17326         2.27601        0.254238 
        6.18898         2.26032        0.252581 
        6.20467         2.24856        0.250943 
        6.22036         2.23824        0.249319 
         6.2361         2.22204        0.247705 
         6.2518         2.21149        0.246107 
        6.26748         2.20074        0.244528 
        6.28319         2.18835        0.242958 
        6.29893         2.17728          0.2414 
        6.31463         2.16491        0.239859 
        6.33033          2.1519        0.238332 
        6.34604         2.14185        0.236817 
        6.36177         2.12669        0.235313 
        6.37747         2.11542        0.233826 
