# k  (h/Mpc)    Pcb(k)  (Mpc/h)^3    Pcb_linear(k) (Mpc/h)^3   ShotnoiseSubtracted = true
      0.0200456         4422.53          3840.3 
      0.0350414          3107.4         2743.38 
      0.0492313         2138.13         1987.72 
      0.0637834         1609.43         1655.47 
      0.0800726         1257.69         1298.51 
       0.096163         910.097         933.847 
       0.111083          791.84         751.495 
       0.126058         677.694         668.607 
       0.142273         541.896         558.406 
       0.158546         455.429         438.435 
        0.17375         382.319         373.649 
       0.188953         352.185          339.43 
       0.204907         290.456          296.85 
       0.220756         269.348         249.756 
        0.23588         226.859         219.105 
         0.2514         211.751         199.929 
       0.267535         194.548         179.509 
       0.283568         170.542         157.504 
       0.299022         147.677         141.014 
       0.314451         146.844         129.358 
       0.330372         129.272         118.205 
       0.346141         124.778         106.871 
       0.361624         111.787         97.3096 
       0.377134         103.283          89.777 
       0.392932         98.1276         82.9578 
       0.408854         92.9932         76.2747 
       0.424564         84.4266         70.3209 
       0.440253         79.5536         65.2934 
       0.455999         75.2023         60.8149 
       0.471626         71.3886         56.6332 
        0.48727         66.0189         52.7846 
       0.502856         62.2563         49.3777 
       0.518488         60.9442         46.3082 
       0.534347         56.9938         43.4272 
       0.550082         54.6926         40.7787 
       0.565732         52.0962         38.3802 
       0.581496         49.3432         36.1775 
       0.597222         46.9573         34.1475 
       0.612804         45.0381         32.2796 
       0.628434         43.4699          30.546 
       0.644267         41.4084         28.9278 
       0.660051         40.1311         27.4331 
       0.675724         38.4429         26.0524 
       0.691403         37.0491         24.7655 
       0.707174           35.43         23.5583 
       0.722871         33.8281         22.4364 
        0.73838         32.7816         21.3995 
       0.754018         31.9438         20.4204 
       0.769845          30.578          19.492 
        0.78569          29.781         18.6205 
       0.801365         28.3979         17.8111 
       0.817031         27.5006         17.0506 
       0.832809         26.7691           16.33 
       0.848511         26.2197         15.6544 
       0.864097         25.2745         15.0219 
       0.879701         24.6806         14.4239 
       0.895507         23.6869         13.8516 
       0.911279         23.1381         13.3116 
        0.92691         22.5896         12.8051 
       0.942635          22.007         12.3222 
       0.958396         21.4523         11.8633 
       0.974128         20.9848         11.4288 
       0.989692         20.3441         11.0203 
        1.00528         19.8035         10.6313 
        1.02113         19.2104         10.2551 
        1.03692         18.7044         9.89851 
        1.05264         18.3246          9.5606 
        1.06832         17.9259         9.23905 
        1.08405         17.3536          8.9315 
        1.09979           17.01         8.63783 
        1.11537         16.6965         8.36032 
        1.13105         16.2923          8.0934 
        1.14679         15.9598         7.83714 
        1.16256         15.5754         7.59153 
        1.17828         15.1942         7.35729 
        1.19395         14.9548         7.13376 
         1.2097         14.7885         6.91842 
        1.22537         14.4054         6.71304 
          1.241         14.0444         6.51665 
        1.25666         13.6312         6.32766 
        1.27241         13.5925          6.1453 
        1.28819         13.3155         5.96984 
        1.30392         13.0883         5.80178 
        1.31957         12.8408         5.64094 
        1.33529         12.5719         5.48564 
        1.35108         12.3149         5.33559 
        1.36674         12.1756         5.19224 
         1.3824         11.8463         5.05431 
        1.39811         11.7057         4.92094 
        1.41389          11.456         4.79189 
        1.42964         11.2551          4.6677 
        1.44531         11.0657         4.54853 
        1.46101         10.8832         4.43328 
        1.47667         10.7027         4.32238 
        1.49229         10.4837         4.21557 
        1.50793         10.2673         4.11227 
        1.52367         10.1906         4.01177 
        1.53953         10.0365         3.91396 
        1.55526          9.9093         3.82021 
        1.57092         9.73936         3.72992 
        1.58662         9.53634         3.64234 
        1.60235         9.41483         3.55741 
        1.61809         9.27268         3.47515 
        1.63369         9.12215         3.39623 
        1.64941          8.9816          3.3192 
        1.66519         8.89776         3.24429 
        1.68085         8.66626         3.17223 
        1.69652         8.59963         3.10234 
        1.71228         8.49873         3.03416 
        1.72806         8.38933         2.96798 
        1.74368         8.27389         2.90445 
        1.75933         8.20616         2.84265 
        1.77505         8.06555         2.78236 
        1.79081         7.96747         2.72373 
         1.8065         7.80885         2.66703 
        1.82218         7.70866           2.612 
        1.83797         7.61505         2.55815 
        1.85367         7.50648         2.50612 
        1.86928         7.39757         2.45585 
        1.88497         7.33621         2.40669 
        1.90073         7.23529         2.35869 
        1.91647         7.07882         2.31205 
        1.93218         6.97405         2.26677 
        1.94787          6.9957         2.22278 
        1.96363         6.81567         2.17977 
        1.97935         6.71576           2.138 
        1.99499         6.67292         2.09756 
        2.01064         6.53222         2.05811 
         2.0264         6.51079         2.01942 
        2.04216         6.44546         1.98175 
        2.05781         6.36058         1.94528 
        2.07353         6.27605          1.9096 
        2.08928         6.20052         1.87474 
        2.10499         6.13422         1.84085 
        2.12065         6.06195         1.80789 
        2.13633         5.94364         1.77571 
        2.15211          5.9102         1.74411 
        2.16785         5.81542         1.71337 
        2.18349          5.7975         1.68357 
        2.19916         5.72488         1.65441 
        2.21489         5.61839         1.62584 
        2.23063         5.58976         1.59793 
         2.2463         5.54613          1.5708 
        2.26194         5.46449         1.54438 
        2.27765         5.40812         1.51842 
        2.29341         5.36133         1.49299 
        2.30914         5.27379          1.4682 
        2.32486         5.23174         1.44399 
        2.34061         5.16676         1.42028 
        2.35635         5.13122         1.39713 
        2.37203         5.05607         1.37457 
        2.38768         5.01739         1.35256 
        2.40339         4.93156         1.33095 
        2.41914         4.90515         1.30976 
        2.43483         4.83011         1.28911 
         2.4505         4.78736         1.26894 
        2.46622         4.73959         1.24913 
        2.48195         4.70209         1.22975 
        2.49759         4.64682         1.21088 
        2.51328         4.58744         1.19235 
        2.52906         4.55987          1.1741 
        2.54479         4.50144          1.1563 
        2.56049         4.47062          1.1389 
        2.57618         4.40309         1.12187 
        2.59189         4.38094         1.10517 
        2.60758         4.34963         1.08883 
        2.62325         4.28505         1.07285 
        2.63898         4.24849         1.05713 
        2.65468         4.18661         1.04176 
        2.67044         4.16584         1.02662 
        2.68618         4.11859         1.01183 
        2.70184         4.07547        0.997382 
        2.71755         4.04789        0.983183 
        2.73329         3.97856        0.969238 
        2.74897         3.96891         0.95561 
        2.76462         3.90919        0.942274 
        2.78034         3.89584        0.929137 
        2.79607         3.84625        0.916237 
        2.81179         3.81433        0.903597 
        2.82749         3.76804         0.89121 
        2.84321         3.74286        0.879041 
        2.85893         3.70486        0.867103 
        2.87462         3.67374        0.855407 
        2.89033          3.6425        0.843917 
        2.90605         3.61641        0.832627 
        2.92176         3.57166         0.82155 
        2.93747         3.53631        0.810681 
        2.95318         3.51559        0.800005 
        2.96891         3.46977        0.789517 
        2.98456         3.45242        0.779264 
        3.00023         3.41745        0.769178 
        3.01596          3.3886        0.759239 
        3.03164         3.36251        0.749504 
        3.04738         3.33948        0.739911 
         3.0631         3.29796         0.73049 
        3.07883         3.27874        0.721232 
        3.09456         3.24817        0.712136 
        3.11026         3.22282        0.703211 
        3.12596         3.18814         0.69444 
        3.14163         3.16795        0.685839 
        3.15734         3.13734        0.677363 
        3.17308         3.10014        0.669011 
        3.18879         3.09774        0.660822 
        3.20447         3.05884        0.652782 
         3.2202         3.03298        0.644851 
         3.2359           3.012        0.637065 
        3.25157         2.98598        0.629427 
        3.26729         2.95549        0.621891 
        3.28304         2.93542        0.614464 
        3.29877         2.91339        0.607167 
        3.31446         2.90339        0.600005 
        3.33014         2.87116        0.592965 
        3.34585         2.82978        0.586027 
        3.36158         2.81885         0.57919 
        3.37727         2.79076        0.572483 
        3.39294         2.78362        0.565889 
        3.40867         2.74129        0.559374 
        3.42439         2.72702        0.552966 
        3.44008         2.71523        0.546671 
        3.45578          2.6902        0.540469 
        3.47153           2.673        0.534349 
        3.48724         2.64514        0.528335 
        3.50292         2.62929        0.522428 
        3.51859         2.61061        0.516614 
        3.53431         2.58876         0.51087 
        3.55007         2.57431        0.505199 
        3.56577         2.54802        0.499637 
        3.58146         2.53629        0.494161 
        3.59719         2.50595        0.488755 
        3.61292         2.48819        0.483431 
        3.62859         2.47198        0.478206 
        3.64429         2.46008        0.473049 
        3.66003         2.43277        0.467952 
        3.67578         2.41704        0.462932 
        3.69146           2.405        0.458004 
        3.70712         2.38614        0.453157 
        3.72284         2.37851        0.448363 
        3.73853          2.3456        0.443646 
        3.75422         2.33279        0.438995 
        3.76993         2.31372        0.434407 
        3.78564         2.29743        0.429886 
        3.80137         2.29023        0.425422 
        3.81707         2.26648        0.421031 
        3.83279         2.25292        0.416698 
        3.84853          2.2333        0.412419 
        3.86424          2.2215        0.408209 
        3.87992         2.20189        0.404064 
        3.89561         2.18695        0.399976 
        3.91134         2.17122        0.395936 
        3.92704         2.16602        0.391956 
        3.94273         2.14961        0.388036 
        3.95845         2.12213        0.384162 
        3.97418         2.10641        0.380339 
        3.98988         2.09434        0.376574 
        4.00554         2.07509         0.37287 
        4.02125         2.05973        0.369206 
        4.03698         2.04963        0.365585 
        4.05268         2.03286         0.36202 
        4.06839         2.01827        0.358501 
         4.0841         1.99938        0.355029 
        4.09983         1.99203        0.351599 
        4.11555         1.97417        0.348215 
        4.13124         1.95681        0.344885 
        4.14693         1.94355        0.341596 
        4.16266         1.93145        0.338342 
        4.17839         1.91626        0.335132 
        4.19408         1.90336        0.331972 
        4.20977          1.8887         0.32885 
        4.22551         1.87621        0.325761 
        4.24123         1.86699        0.322716 
        4.25691         1.84853        0.319717 
        4.27259         1.83187        0.316755 
        4.28831          1.8232        0.313825 
        4.30404         1.81832         0.31093 
        4.31974         1.80458        0.308077 
        4.33543         1.78382        0.305261 
        4.35116         1.78045        0.302474 
        4.36688         1.76981        0.299723 
        4.38255         1.75558        0.297016 
        4.39825         1.74467        0.294337 
        4.41398         1.73376        0.291686 
         4.4297         1.71869         0.28907 
        4.44541         1.70929        0.286486 
        4.46111         1.69823        0.283936 
        4.47683         1.68591        0.281415 
        4.49251         1.67486         0.27893 
        4.50819         1.66754        0.276476 
         4.5239         1.65941        0.274047 
        4.53962         1.64873        0.271645 
        4.55535          1.6382        0.269271 
        4.57106         1.62459        0.266928 
        4.58678         1.61453        0.264612 
         4.6025         1.60638        0.262324 
        4.61821         1.59828        0.260062 
        4.63391         1.58667        0.257831 
         4.6496         1.58215        0.255626 
        4.66532         1.57097        0.253444 
        4.68103         1.55906        0.251288 
        4.69673         1.55141         0.24916 
        4.71241         1.54211        0.247058 
        4.72811         1.53462        0.244977 
        4.74384         1.52745        0.242917 
        4.75955         1.51547        0.240884 
        4.77525         1.50576        0.238876 
        4.79096          1.5025        0.236887 
        4.80669         1.49001        0.234921 
         4.8224          1.4825        0.232979 
        4.83809         1.47476        0.231061 
        4.85379         1.46634        0.229164 
         4.8695         1.46024        0.227286 
        4.88521         1.45268         0.22543 
        4.90093         1.44381        0.223594 
        4.91663         1.43735        0.221781 
        4.93234         1.42926        0.219986 
        4.94807         1.42602        0.218209 
        4.96377         1.41516        0.216456 
        4.97943         1.40923        0.214725 
        4.99514         1.39865        0.213009 
        5.01086         1.39218         0.21131 
        5.02654         1.38692        0.209634 
        5.04227         1.38247        0.207971 
          5.058         1.37296        0.206326 
        5.07371         1.36569        0.204701 
        5.08942         1.36108        0.203094 
        5.10513         1.35122        0.201504 
        5.12084         1.34526         0.19993 
        5.13656         1.33948        0.198373 
        5.15225         1.33401        0.196836 
        5.16796         1.32728        0.195312 
        5.18369         1.32117        0.193803 
         5.1994         1.31301        0.192313 
        5.21509         1.30703        0.190839 
        5.23079         1.29692         0.18938 
        5.24649         1.29514        0.187936 
        5.26217         1.28999        0.186509 
        5.27788         1.28225        0.185095 
        5.29359         1.27792        0.183695 
        5.30933         1.27277        0.182307 
        5.32504         1.26556        0.180936 
        5.34073         1.26245        0.179581 
        5.35646         1.25675        0.178237 
        5.37218         1.24887        0.176906 
        5.38789         1.24294        0.175591 
        5.40357         1.23764        0.174291 
        5.41929         1.23537        0.173001 
        5.43502         1.22978        0.171725 
         5.4507         1.22187        0.170464 
        5.46639         1.21902        0.169215 
        5.48212          1.2094        0.167976 
        5.49786          1.2063        0.166748 
        5.51353         1.20395        0.165539 
        5.52921         1.19567         0.16434 
        5.54495         1.19131        0.163149 
        5.56066         1.18525        0.161972 
        5.57637         1.18119        0.160806 
        5.59207         1.17686        0.159653 
        5.60778         1.17317        0.158511 
        5.62346         1.16845        0.157381 
        5.63916         1.16386        0.156262 
        5.65487         1.15705        0.155152 
         5.6706         1.15407        0.154052 
        5.68633         1.14885        0.152963 
        5.70203         1.14563        0.151886 
        5.71773         1.14083         0.15082 
        5.73344           1.137        0.149763 
        5.74916          1.1342        0.148716 
        5.76486         1.12609         0.14768 
        5.78054         1.12512        0.146655 
        5.79626         1.11991        0.145638 
          5.812         1.11506        0.144628 
         5.8277          1.1118        0.143632 
        5.84339         1.10927        0.142645 
        5.85911           1.104        0.141665 
        5.87484         1.10204        0.140694 
        5.89053         1.09719        0.139735 
        5.90623         1.09052        0.138784 
        5.92195         1.08647         0.13784 
        5.93767         1.08231        0.136906 
        5.95336         1.08087        0.135982 
        5.96905         1.07543        0.135066 
        5.98476         1.07085        0.134158 
        6.00048         1.06829        0.133258 
        6.01617         1.06337        0.132367 
        6.03185         1.06234        0.131486 
        6.04756         1.05766         0.13061 
        6.06331           1.053        0.129741 
        6.07903         1.04895        0.128881 
        6.09473         1.04687         0.12803 
        6.11044         1.04501        0.127185 
        6.12616         1.03971        0.126349 
        6.14186         1.03593        0.125521 
        6.15755         1.03232          0.1247 
        6.17326          1.0299        0.123886 
        6.18898         1.02563        0.123079 
        6.20467         1.02108         0.12228 
        6.22036         1.01891        0.121489 
         6.2361         1.01573        0.120703 
         6.2518         1.01213        0.119924 
        6.26748         1.01084        0.119155 
        6.28319         1.00692         0.11839 
        6.29893         1.00278        0.117631 
        6.31463         1.00208         0.11688 
        6.33033        0.995033        0.116135 
        6.34604        0.993184        0.115397 
        6.36177        0.990428        0.114664 
        6.37747        0.988479         0.11394 
