# k  (h/Mpc)    Pcb(k)  (Mpc/h)^3    Pcb_linear(k) (Mpc/h)^3   ShotnoiseSubtracted = true
      0.0200456         4432.67          3849.1 
      0.0350414         3114.46         2749.67 
      0.0492313         2142.97         1992.28 
      0.0637834         1613.13         1659.26 
      0.0800726         1260.53         1301.49 
       0.096163         912.174         935.988 
       0.111083         793.661         753.218 
       0.126058         679.262          670.14 
       0.142273         543.165         559.686 
       0.158546         456.505          439.44 
        0.17375          383.21         374.506 
       0.188953         353.004         340.208 
       0.204907         291.135          297.53 
       0.220756         269.994         250.328 
        0.23588         227.412         219.607 
         0.2514         212.253         200.387 
       0.267535         195.013          179.92 
       0.283568         170.963         157.865 
       0.299022         148.042         141.338 
       0.314451          147.21         129.655 
       0.330372         129.595         118.476 
       0.346141          125.09         107.116 
       0.361624         112.063         97.5326 
       0.377134         103.545         89.9828 
       0.392932         98.3819         83.1479 
       0.408854         93.2337         76.4496 
       0.424564         84.6455         70.4821 
       0.440253         79.7636         65.4431 
       0.455999            75.4         60.9543 
       0.471626         71.5802         56.7631 
        0.48727         66.1938         52.9056 
       0.502856          62.424         49.4909 
       0.518488         61.1122         46.4143 
       0.534347         57.1476         43.5268 
       0.550082         54.8438         40.8722 
       0.565732         52.2415         38.4681 
       0.581496         49.4788         36.2604 
       0.597222         47.0904         34.2258 
       0.612804         45.1667         32.3535 
       0.628434         43.5912          30.616 
       0.644267         41.5267         28.9941 
       0.660051         40.2475          27.496 
       0.675724         38.5528         26.1121 
       0.691403         37.1578         24.8223 
       0.707174         35.5318         23.6123 
       0.722871         33.9261         22.4878 
        0.73838         32.8784         21.4486 
       0.754018         32.0382         20.4672 
       0.769845         30.6692         19.5367 
        0.78569         29.8713         18.6632 
       0.801365         28.4831          17.852 
       0.817031         27.5829         17.0897 
       0.832809         26.8496         16.3674 
       0.848511         26.2993         15.6903 
       0.864097         25.3508         15.0563 
       0.879701         24.7554          14.457 
       0.895507         23.7597         13.8833 
       0.911279         23.2084         13.3422 
        0.92691         22.6589         12.8344 
       0.942635         22.0747         12.3505 
       0.958396         21.5196         11.8905 
       0.974128         21.0492          11.455 
       0.989692         20.4074         11.0456 
        1.00528         19.8655         10.6557 
        1.02113         19.2711         10.2786 
        1.03692         18.7635          9.9212 
        1.05264         18.3825         9.58251 
        1.06832         17.9826         9.26023 
        1.08405         17.4085         8.95198 
        1.09979         17.0643         8.65763 
        1.11537         16.7495         8.37948 
        1.13105         16.3434         8.11195 
        1.14679         16.0105         7.85511 
        1.16256         15.6249         7.60893 
        1.17828         15.2422         7.37416 
        1.19395         15.0024         7.15012 
         1.2097         14.8355         6.93428 
        1.22537         14.4514         6.72843 
          1.241         14.0888         6.53159 
        1.25666         13.6746         6.34216 
        1.27241         13.6363         6.15939 
        1.28819         13.3584         5.98353 
        1.30392           13.13         5.81507 
        1.31957         12.8816         5.65387 
        1.33529         12.6119         5.49822 
        1.35108         12.3545         5.34782 
        1.36674         12.2143         5.20414 
         1.3824         11.8845         5.06589 
        1.39811         11.7433         4.93222 
        1.41389         11.4929         4.80288 
        1.42964         11.2911          4.6784 
        1.44531         11.1011         4.55896 
        1.46101         10.9181         4.44344 
        1.47667         10.7368         4.33228 
        1.49229         10.5171         4.22524 
        1.50793         10.2998          4.1217 
        1.52367         10.2229         4.02097 
        1.53953         10.0683         3.92294 
        1.55526         9.94124         3.82896 
        1.57092         9.77049         3.73847 
        1.58662         9.56701         3.65069 
        1.60235         9.44482         3.56556 
        1.61809         9.30199         3.48311 
        1.63369         9.15102         3.40401 
        1.64941         9.01023         3.32681 
        1.66519         8.92581         3.25172 
        1.68085         8.69359          3.1795 
        1.69652         8.62673         3.10945 
        1.71228         8.52547         3.04112 
        1.72806         8.41509         2.97479 
        1.74368         8.30022         2.91111 
        1.75933         8.23193         2.84917 
        1.77505          8.0908         2.78874 
        1.79081         7.99261         2.72997 
         1.8065         7.83303         2.67314 
        1.82218         7.73292         2.61799 
        1.83797         7.63874         2.56401 
        1.85367         7.52987         2.51186 
        1.86928          7.4207         2.46148 
        1.88497         7.35932         2.41221 
        1.90073         7.25758          2.3641 
        1.91647         7.10049         2.31735 
        1.93218         6.99578         2.27197 
        1.94787         7.01768         2.22787 
        1.96363         6.83663         2.18477 
        1.97935         6.73653          2.1429 
        1.99499         6.69315         2.10237 
        2.01064          6.5521         2.06282 
         2.0264         6.53051         2.02405 
        2.04216         6.46478          1.9863 
        2.05781         6.37934         1.94974 
        2.07353         6.29493         1.91398 
        2.08928         6.21921         1.87904 
        2.10499         6.15254         1.84507 
        2.12065         6.07994         1.81204 
        2.13633         5.96133         1.77978 
        2.15211         5.92791         1.74811 
        2.16785         5.83254          1.7173 
        2.18349         5.81457         1.68743 
        2.19916         5.74154          1.6582 
        2.21489         5.63499         1.62957 
        2.23063         5.60579          1.6016 
         2.2463         5.56225         1.57441 
        2.26194         5.48003         1.54792 
        2.27765         5.42401          1.5219 
        2.29341         5.37677         1.49641 
        2.30914         5.28903         1.47157 
        2.32486         5.24666          1.4473 
        2.34061         5.18168         1.42353 
        2.35635          5.1459         1.40033 
        2.37203         5.07034         1.37772 
        2.38768         5.03157         1.35566 
        2.40339         4.94553           1.334 
        2.41914         4.91886         1.31276 
        2.43483         4.84348         1.29207 
         2.4505         4.80064         1.27185 
        2.46622         4.75261           1.252 
        2.48195         4.71502         1.23257 
        2.49759         4.65953         1.21365 
        2.51328         4.59985         1.19509 
        2.52906          4.5724         1.17679 
        2.54479         4.51359         1.15895 
        2.56049         4.48273         1.14151 
        2.57618         4.41483         1.12445 
        2.59189         4.39265          1.1077 
        2.60758         4.36115         1.09133 
        2.62325         4.29637         1.07531 
        2.63898         4.25962         1.05955 
        2.65468          4.1977         1.04414 
        2.67044         4.17672         1.02898 
        2.68618         4.12933         1.01415 
        2.70184         4.08607        0.999669 
        2.71755         4.05857        0.985437 
        2.73329          3.9888         0.97146 
        2.74897         3.97921          0.9578 
        2.76462         3.91917        0.944434 
        2.78034         3.90581        0.931267 
        2.79607         3.85611        0.918337 
        2.81179         3.82395        0.905668 
        2.82749         3.77746        0.893253 
        2.84321         3.75229        0.881056 
        2.85893         3.71412        0.869091 
        2.87462         3.68278        0.857368 
        2.89033         3.65155        0.845851 
        2.90605         3.62513        0.834536 
        2.92176         3.58043        0.823434 
        2.93747         3.54493        0.812539 
        2.95318         3.52409        0.801839 
        2.96891         3.47804        0.791327 
        2.98456         3.46073         0.78105 
        3.00023         3.42562        0.770941 
        3.01596         3.39675        0.760979 
        3.03164         3.37043        0.751222 
        3.04738         3.34728        0.741607 
         3.0631          3.3057        0.732164 
        3.07883          3.2865        0.722885 
        3.09456         3.25553        0.713768 
        3.11026         3.23021        0.704823 
        3.12596         3.19549        0.696032 
        3.14163         3.17531        0.687411 
        3.15734         3.14439        0.678916 
        3.17308         3.10713        0.670544 
        3.18879         3.10478        0.662336 
        3.20447         3.06568        0.654278 
         3.2202         3.03986        0.646329 
         3.2359          3.0188        0.638526 
        3.25157         2.99263         0.63087 
        3.26729         2.96196        0.623317 
        3.28304         2.94176        0.615872 
        3.29877         2.91975        0.608559 
        3.31446         2.90968        0.601381 
        3.33014         2.87728        0.594324 
        3.34585         2.83588        0.587371 
        3.36158         2.82482        0.580518 
        3.37727         2.79665        0.573795 
        3.39294         2.78955        0.567186 
        3.40867         2.74709        0.560657 
        3.42439          2.7328        0.554234 
        3.44008         2.72085        0.547924 
        3.45578         2.69574        0.541708 
        3.47153         2.67853        0.535574 
        3.48724         2.65066        0.529546 
        3.50292         2.63465        0.523626 
        3.51859          2.6159        0.517798 
        3.53431         2.59399        0.512041 
        3.55007         2.57948        0.506357 
        3.56577         2.55313        0.500783 
        3.58146         2.54131        0.495294 
        3.59719          2.5108        0.489875 
        3.61292         2.49303        0.484539 
        3.62859         2.47679        0.479302 
        3.64429         2.46478        0.474133 
        3.66003          2.4374        0.469025 
        3.67578         2.42171        0.463993 
        3.69146         2.40957        0.459054 
        3.70712         2.39069        0.454196 
        3.72284         2.38296         0.44939 
        3.73853         2.34993        0.444663 
        3.75422         2.33717        0.440001 
        3.76993         2.31806        0.435402 
        3.78564         2.30166        0.430871 
        3.80137         2.29433        0.426397 
        3.81707         2.27062        0.421996 
        3.83279           2.257        0.417653 
        3.84853         2.23729        0.413365 
        3.86424         2.22546        0.409145 
        3.87992         2.20579         0.40499 
        3.89561         2.19085        0.400892 
        3.91134          2.1751        0.396843 
        3.92704         2.16973        0.392855 
        3.94273         2.15339        0.388925 
        3.95845          2.1259        0.385042 
        3.97418         2.11018        0.381211 
        3.98988         2.09797        0.377437 
        4.00554         2.07869        0.373725 
        4.02125         2.06321        0.370052 
        4.03698         2.05311        0.366423 
        4.05268         2.03625         0.36285 
        4.06839         2.02171        0.359323 
         4.0841         2.00269        0.355843 
        4.09983         1.99538        0.352405 
        4.11555         1.97744        0.349013 
        4.13124         1.96003        0.345676 
        4.14693         1.94666        0.342379 
        4.16266         1.93452        0.339118 
        4.17839         1.91946        0.335901 
        4.19408         1.90641        0.332733 
        4.20977         1.89168        0.329604 
        4.22551         1.87914        0.326508 
        4.24123         1.86994        0.323455 
        4.25691         1.85142         0.32045 
        4.27259         1.83478        0.317481 
        4.28831         1.82596        0.314545 
        4.30404         1.82104        0.311642 
        4.31974         1.80732        0.308783 
        4.33543         1.78655        0.305961 
        4.35116         1.78314        0.303168 
        4.36688         1.77248         0.30041 
        4.38255         1.75815        0.297697 
        4.39825         1.74721        0.295012 
        4.41398         1.73626        0.292354 
         4.4297         1.72128        0.289732 
        4.44541         1.71177        0.287143 
        4.46111         1.70072        0.284587 
        4.47683         1.68829         0.28206 
        4.49251         1.67722         0.27957 
        4.50819          1.6699         0.27711 
         4.5239         1.66173        0.274676 
        4.53962         1.65106        0.272268 
        4.55535         1.64049        0.269888 
        4.57106         1.62688         0.26754 
        4.58678         1.61673        0.265219 
         4.6025         1.60847        0.262925 
        4.61821         1.60045        0.260659 
        4.63391          1.5888        0.258422 
         4.6496         1.58427        0.256212 
        4.66532         1.57309        0.254025 
        4.68103         1.56103        0.251864 
        4.69673         1.55341        0.249731 
        4.71241         1.54412        0.247624 
        4.72811         1.53658        0.245538 
        4.74384         1.52937        0.243474 
        4.75955         1.51737        0.241436 
        4.77525         1.50767        0.239423 
        4.79096         1.50442         0.23743 
        4.80669          1.4919         0.23546 
         4.8224         1.48429        0.233513 
        4.83809         1.47649        0.231591 
        4.85379         1.46809        0.229689 
         4.8695         1.46199        0.227807 
        4.88521         1.45448        0.225947 
        4.90093         1.44552        0.224107 
        4.91663         1.43901        0.222289 
        4.93234         1.43088         0.22049 
        4.94807         1.42762        0.218709 
        4.96377         1.41673        0.216952 
        4.97943         1.41084        0.215217 
        4.99514         1.40023        0.213497 
        5.01086          1.3937        0.211794 
        5.02654         1.38845        0.210114 
        5.04227         1.38399        0.208448 
          5.058         1.37441        0.206799 
        5.07371         1.36716         0.20517 
        5.08942         1.36257         0.20356 
        5.10513          1.3526        0.201966 
        5.12084         1.34661        0.200388 
        5.13656         1.34087        0.198828 
        5.15225         1.33543        0.197287 
        5.16796         1.32861         0.19576 
        5.18369         1.32246        0.194247 
         5.1994         1.31435        0.192753 
        5.21509          1.3083        0.191277 
        5.23079          1.2982        0.189814 
        5.24649         1.29638        0.188367 
        5.26217         1.29122        0.186937 
        5.27788          1.2834        0.185519 
        5.29359         1.27907        0.184116 
        5.30933         1.27401        0.182725 
        5.32504         1.26668        0.181351 
        5.34073          1.2636        0.179993 
        5.35646         1.25786        0.178646 
        5.37218         1.24999        0.177312 
        5.38789         1.24401        0.175994 
        5.40357         1.23868        0.174691 
        5.41929         1.23643        0.173398 
        5.43502         1.23085        0.172118 
         5.4507         1.22283        0.170854 
        5.46639         1.22004        0.169603 
        5.48212         1.21036        0.168361 
        5.49786         1.20729         0.16713 
        5.51353         1.20494        0.165918 
        5.52921         1.19657        0.164716 
        5.54495         1.19226        0.163523 
        5.56066         1.18613        0.162343 
        5.57637         1.18206        0.161175 
        5.59207         1.17775        0.160019 
        5.60778         1.17401        0.158874 
        5.62346         1.16929        0.157742 
        5.63916         1.16465         0.15662 
        5.65487         1.15786        0.155508 
         5.6706         1.15485        0.154406 
        5.68633         1.14973        0.153314 
        5.70203         1.14646        0.152234 
        5.71773         1.14153        0.151166 
        5.73344         1.13782        0.150107 
        5.74916         1.13497        0.149057 
        5.76486         1.12679        0.148018 
        5.78054         1.12581        0.146991 
        5.79626          1.1206        0.145971 
          5.812         1.11572         0.14496 
         5.8277         1.11243        0.143961 
        5.84339         1.10993        0.142972 
        5.85911         1.10462         0.14199 
        5.87484         1.10271        0.141017 
        5.89053          1.0978        0.140055 
        5.90623         1.09115        0.139102 
        5.92195         1.08701        0.138156 
        5.93767         1.08295         0.13722 
        5.95336         1.08145        0.136293 
        5.96905         1.07599        0.135376 
        5.98476         1.07138        0.134466 
        6.00048         1.06884        0.133563 
        6.01617         1.06388        0.132671 
        6.03185          1.0628        0.131787 
        6.04756         1.05813        0.130909 
        6.06331         1.05357        0.130038 
        6.07903         1.04948        0.129176 
        6.09473         1.04734        0.128323 
        6.11044         1.04547        0.127477 
        6.12616         1.04018        0.126639 
        6.14186          1.0364        0.125808 
        6.15755         1.03275        0.124986 
        6.17326         1.03032         0.12417 
        6.18898         1.02601        0.123361 
        6.20467         1.02148        0.122561 
        6.22036         1.01934        0.121768 
         6.2361          1.0161        0.120979 
         6.2518         1.01253        0.120199 
        6.26748         1.01123        0.119428 
        6.28319         1.00729        0.118661 
        6.29893         1.00319          0.1179 
        6.31463         1.00242        0.117148 
        6.33033        0.995347        0.116402 
        6.34604        0.993528        0.115662 
        6.36177        0.990739        0.114927 
        6.37747        0.988801        0.114201 
