# k  (h/Mpc)    Pcb(k)  (Mpc/h)^3    Pcb_linear(k) (Mpc/h)^3   ShotnoiseSubtracted = true
      0.0200456         218.463          189.98 
      0.0350414         155.799         135.715 
      0.0492313         107.513         98.3328 
      0.0637834         79.3328         81.8962 
      0.0800726         63.1848         64.2374 
       0.096163         45.3535         46.1975 
       0.111083         38.9298         37.1765 
       0.126058         32.9317         33.0761 
       0.142273         25.9699         27.6244 
       0.158546         21.5173         21.6894 
        0.17375         18.6374         18.4845 
       0.188953         17.0638         16.7916 
       0.204907         14.1679         14.6852 
       0.220756         12.4239         12.3554 
        0.23588         10.3936         10.8391 
         0.2514         10.0456         9.89051 
       0.267535         9.09224         8.88033 
       0.283568         7.63518         7.79173 
       0.299022         6.74978         6.97599 
       0.314451         6.46385         6.39937 
       0.330372         5.72209          5.8476 
       0.346141         5.37346         5.28691 
       0.361624         4.94638         4.81391 
       0.377134          4.4607         4.44128 
       0.392932         4.07742         4.10393 
       0.408854          3.8272         3.77332 
       0.424564         3.54438         3.47878 
       0.440253         3.24056         3.23007 
       0.455999         3.01395         3.00852 
       0.471626         2.82704         2.80165 
        0.48727         2.57912         2.61126 
       0.502856         2.45071         2.44272 
       0.518488         2.28939         2.29087 
       0.534347         2.16859         2.14835 
       0.550082         2.02002         2.01733 
       0.565732          1.8963         1.89867 
       0.581496         1.79733          1.7897 
       0.597222         1.70771         1.68928 
       0.612804         1.59569         1.59687 
       0.628434         1.54216         1.51111 
       0.644267         1.44423         1.43106 
       0.660051         1.38218         1.35712 
       0.675724         1.29745         1.28881 
       0.691403         1.22612         1.22515 
       0.707174           1.192         1.16543 
       0.722871         1.12319         1.10993 
        0.73838         1.05766         1.05864 
       0.754018         1.00451          1.0102 
       0.769845        0.962111         0.96427 
        0.78569        0.919096         0.92116 
       0.801365         0.89204        0.881119 
       0.817031        0.857919        0.843497 
       0.832809        0.806808        0.807846 
       0.848511         0.77942        0.774425 
       0.864097        0.748014        0.743135 
       0.879701         0.71532        0.713553 
       0.895507        0.692582        0.685239 
       0.911279        0.660825        0.658529 
        0.92691        0.640019        0.633469 
       0.942635         0.61101        0.609582 
       0.958396        0.593345        0.586881 
       0.974128        0.568175        0.565382 
       0.989692        0.545421        0.545176 
        1.00528        0.532123        0.525933 
        1.02113        0.514596         0.50732 
        1.03692        0.495741         0.48968 
        1.05264        0.480214        0.472964 
        1.06832        0.466505        0.457057 
        1.08405         0.44428        0.441842 
        1.09979        0.427157        0.427314 
        1.11537        0.421298        0.413586 
        1.13105        0.406368        0.400381 
        1.14679        0.389574        0.387704 
        1.16256        0.379772        0.375554 
        1.17828        0.367874        0.363966 
        1.19395        0.356813        0.352908 
         1.2097        0.345573        0.342255 
        1.22537         0.33494        0.332095 
          1.241        0.325544        0.322379 
        1.25666        0.316306         0.31303 
        1.27241        0.308236        0.304009 
        1.28819        0.295381        0.295329 
        1.30392        0.289711        0.287014 
        1.31957        0.280769        0.279058 
        1.33529        0.274832        0.271375 
        1.35108        0.267922        0.263952 
        1.36674        0.259855        0.256861 
         1.3824        0.252064        0.250037 
        1.39811        0.246072         0.24344 
        1.41389          0.2381        0.237055 
        1.42964        0.233926        0.230912 
        1.44531        0.227526        0.225016 
        1.46101        0.220701        0.219315 
        1.47667        0.215857        0.213828 
        1.49229        0.209392        0.208545 
        1.50793        0.204697        0.203434 
        1.52367        0.200854        0.198463 
        1.53953        0.194678        0.193624 
        1.55526        0.190314        0.188986 
        1.57092        0.185514        0.184519 
        1.58662        0.180631        0.180187 
        1.60235        0.177642        0.175985 
        1.61809        0.171877        0.171916 
        1.63369        0.168623        0.168012 
        1.64941        0.164425        0.164201 
        1.66519        0.162051        0.160495 
        1.68085        0.157619         0.15693 
        1.69652        0.154655        0.153473 
        1.71228        0.150316          0.1501 
        1.72806        0.147122        0.146826 
        1.74368        0.142636        0.143683 
        1.75933        0.140939        0.140626 
        1.77505        0.138319        0.137644 
        1.79081        0.135421        0.134743 
         1.8065        0.132195        0.131938 
        1.82218        0.129034        0.129216 
        1.83797        0.126416        0.126552 
        1.85367        0.124346        0.123978 
        1.86928         0.12154        0.121491 
        1.88497        0.118386        0.119059 
        1.90073          0.1162        0.116685 
        1.91647         0.11408        0.114377 
        1.93218        0.111958        0.112138 
        1.94787        0.109025        0.109961 
        1.96363        0.107773        0.107834 
        1.97935        0.105194        0.105767 
        1.99499        0.103341        0.103766 
        2.01064        0.101346        0.101815 
         2.0264       0.0992837       0.0999011 
        2.04216       0.0968679       0.0980376 
        2.05781       0.0954273       0.0962334 
        2.07353       0.0937603       0.0944684 
        2.08928       0.0925986       0.0927437 
        2.10499       0.0897493       0.0910669 
        2.12065       0.0886274       0.0894365 
        2.13633       0.0867631       0.0878448 
        2.15211       0.0857244       0.0862815 
        2.16785       0.0834307       0.0847607 
        2.18349       0.0820375       0.0832862 
        2.19916        0.081281       0.0818436 
        2.21489       0.0790167       0.0804305 
        2.23063       0.0776234       0.0790499 
         2.2463       0.0769999       0.0777079 
        2.26194       0.0747797       0.0764004 
        2.27765       0.0739731       0.0751163 
        2.29341       0.0721211       0.0738585 
        2.30914       0.0714785        0.072632 
        2.32486       0.0698976       0.0714342 
        2.34061       0.0690382       0.0702614 
        2.35635       0.0675983       0.0691159 
        2.37203       0.0666631           0.068 
        2.38768       0.0652933       0.0669111 
        2.40339       0.0645022       0.0658421 
        2.41914       0.0633306        0.064794 
        2.43483       0.0626399       0.0637724 
         2.4505       0.0615465       0.0627746 
        2.46622       0.0605184       0.0617947 
        2.48195       0.0593245       0.0608357 
        2.49759       0.0585373       0.0599022 
        2.51328       0.0577173       0.0589858 
        2.52906       0.0565024       0.0580828 
        2.54479       0.0558164       0.0572021 
        2.56049       0.0548664       0.0563414 
        2.57618       0.0542742       0.0554992 
        2.59189       0.0533286       0.0546729 
        2.60758       0.0523902       0.0538648 
        2.62325       0.0516739        0.053074 
        2.63898       0.0508543       0.0522963 
        2.65468       0.0500724       0.0515358 
        2.67044       0.0491707       0.0507872 
        2.68618       0.0484353       0.0500552 
        2.70184       0.0477063       0.0493406 
        2.71755       0.0471928       0.0486382 
        2.73329        0.046448       0.0479483 
        2.74897       0.0456659       0.0472741 
        2.76462       0.0450338       0.0466144 
        2.78034       0.0443368       0.0459645 
        2.79607       0.0435067       0.0453263 
        2.81179       0.0431556        0.044701 
        2.82749       0.0424062       0.0440882 
        2.84321       0.0419724       0.0434862 
        2.85893       0.0413856       0.0428957 
        2.87462        0.040834       0.0423171 
        2.89033       0.0401164       0.0417486 
        2.90605       0.0396458       0.0411902 
        2.92176       0.0391756       0.0406422 
        2.93747       0.0386152       0.0401045 
        2.95318       0.0380525       0.0395763 
        2.96891       0.0375498       0.0390575 
        2.98456       0.0370173       0.0385503 
        3.00023       0.0365399       0.0380513 
        3.01596       0.0361499       0.0375596 
        3.03164       0.0356456        0.037078 
        3.04738       0.0349697       0.0366035 
         3.0631       0.0347329       0.0361374 
        3.07883       0.0341742       0.0356794 
        3.09456       0.0337651       0.0352294 
        3.11026       0.0332853       0.0347879 
        3.12596       0.0328296        0.034354 
        3.14163       0.0324393       0.0339285 
        3.15734        0.032026       0.0335092 
        3.17308       0.0316534        0.033096 
        3.18879        0.031332       0.0326909 
        3.20447       0.0308885       0.0322932 
         3.2202       0.0305426       0.0319008 
         3.2359         0.03021       0.0315157 
        3.25157       0.0297854       0.0311378 
        3.26729       0.0294701        0.030765 
        3.28304       0.0291083       0.0303976 
        3.29877       0.0288757       0.0300366 
        3.31446       0.0283835       0.0296823 
        3.33014       0.0280009       0.0293341 
        3.34585       0.0278048       0.0289908 
        3.36158       0.0274914       0.0286526 
        3.37727       0.0272253       0.0283208 
        3.39294       0.0268408       0.0279946 
        3.40867       0.0265413       0.0276723 
        3.42439       0.0262048       0.0273553 
        3.44008       0.0260506       0.0270439 
        3.45578       0.0257016        0.026737 
        3.47153       0.0254093       0.0264343 
        3.48724        0.025131       0.0261368 
        3.50292       0.0248901       0.0258446 
        3.51859       0.0245676       0.0255569 
        3.53431       0.0243053       0.0252728 
        3.55007       0.0240681       0.0249923 
        3.56577       0.0239608       0.0247171 
        3.58146       0.0235986       0.0244462 
        3.59719       0.0234691       0.0241787 
        3.61292       0.0231721       0.0239154 
        3.62859       0.0228564       0.0236569 
        3.64429       0.0226909       0.0234018 
        3.66003       0.0224783       0.0231496 
        3.67578       0.0223276       0.0229013 
        3.69146       0.0222068       0.0226575 
        3.70712       0.0219474       0.0224177 
        3.72284       0.0217542       0.0221805 
        3.73853       0.0214702       0.0219472 
        3.75422       0.0213533       0.0217171 
        3.76993       0.0211776       0.0214901 
        3.78564       0.0209738       0.0212665 
        3.80137       0.0207511       0.0210457 
        3.81707       0.0205752       0.0208284 
        3.83279       0.0204375       0.0206141 
        3.84853       0.0203107       0.0204024 
        3.86424       0.0201501       0.0201941 
        3.87992       0.0199914       0.0199891 
        3.89561       0.0198024       0.0197868 
        3.91134       0.0196588        0.019587 
        3.92704        0.019444       0.0193901 
        3.94273       0.0193098       0.0191962 
        3.95845        0.019227       0.0190045 
        3.97418       0.0190974       0.0188154 
        3.98988       0.0189094       0.0186292 
        4.00554       0.0186902       0.0184459 
        4.02125       0.0185533       0.0182646 
        4.03698        0.018317       0.0180855 
        4.05268       0.0180594       0.0179092 
        4.06839       0.0177992       0.0177351 
         4.0841       0.0174933       0.0175633 
        4.09983       0.0172363       0.0173936 
        4.11555       0.0170253       0.0172262 
        4.13124       0.0167997       0.0170615 
        4.14693       0.0166083       0.0168988 
        4.16266       0.0163422       0.0167378 
        4.17839       0.0161923        0.016579 
        4.19408       0.0159574       0.0164227 
        4.20977       0.0158097       0.0162683 
        4.22551       0.0156368       0.0161155 
        4.24123       0.0154631       0.0159648 
        4.25691         0.01532       0.0158164 
        4.27259       0.0151671       0.0156699 
        4.28831       0.0149542        0.015525 
        4.30404       0.0148573       0.0153817 
        4.31974       0.0147108       0.0152406 
        4.33543       0.0145679       0.0151013 
        4.35116       0.0145119       0.0149634 
        4.36688       0.0143973       0.0148273 
        4.38255       0.0142721       0.0146934 
        4.39825        0.014188       0.0145609 
        4.41398        0.014081       0.0144297 
         4.4297       0.0139994       0.0143003 
        4.44541       0.0139213       0.0141725 
        4.46111       0.0138063       0.0140463 
        4.47683       0.0137556       0.0139216 
        4.49251       0.0137172       0.0137987 
        4.50819        0.013662       0.0136773 
         4.5239       0.0136447       0.0135572 
        4.53962       0.0135843       0.0134383 
        4.55535       0.0135808       0.0133208 
        4.57106       0.0135258       0.0132049 
        4.58678       0.0135135       0.0130904 
         4.6025       0.0134899       0.0129772 
        4.61821       0.0135194       0.0128653 
        4.63391       0.0135412       0.0127549 
         4.6496       0.0135244       0.0126459 
        4.66532        0.013544       0.0125379 
        4.68103       0.0135217       0.0124313 
        4.69673       0.0135548        0.012326 
        4.71241       0.0136061        0.012222 
        4.72811       0.0135829        0.012119 
        4.74384       0.0137138       0.0120171 
        4.75955       0.0137155       0.0119166 
        4.77525       0.0137473       0.0118172 
        4.79096       0.0138591       0.0117188 
        4.80669       0.0138958       0.0116216 
         4.8224       0.0139701       0.0115255 
        4.83809       0.0139921       0.0114306 
        4.85379        0.014116       0.0113367 
         4.8695       0.0142452       0.0112439 
        4.88521       0.0142914        0.011152 
        4.90093       0.0144249       0.0110612 
        4.91663       0.0145637       0.0109715 
        4.93234       0.0146701       0.0108827 
        4.94807       0.0147306       0.0107948 
        4.96377       0.0148755       0.0107081 
        4.97943       0.0150864       0.0106225 
        4.99514       0.0151872       0.0105376 
        5.01086       0.0153342       0.0104535 
        5.02654       0.0154543       0.0103706 
        5.04227       0.0156155       0.0102884 
          5.058       0.0157937        0.010207 
        5.07371       0.0159349       0.0101266 
        5.08942       0.0162265       0.0100471 
        5.10513       0.0164244      0.00996842 
        5.12084       0.0165865      0.00989056 
        5.13656       0.0167738      0.00981355 
        5.15225       0.0170131      0.00973748 
        5.16796       0.0172817       0.0096621 
        5.18369       0.0175173      0.00958745 
         5.1994        0.017787      0.00951373 
        5.21509       0.0179529      0.00944084 
        5.23079       0.0182406      0.00936863 
        5.24649       0.0185155      0.00929724 
        5.26217       0.0187226      0.00922663 
        5.27788        0.019077      0.00915666 
        5.29359       0.0193991       0.0090874 
        5.30933       0.0196819      0.00901876 
        5.32504       0.0200155      0.00895094 
        5.34073       0.0203159      0.00888389 
        5.35646       0.0206888       0.0088174 
        5.37218       0.0210672      0.00875157 
        5.38789       0.0213403      0.00868652 
        5.40357       0.0217514      0.00862221 
        5.41929       0.0220321       0.0085584 
        5.43502       0.0225949      0.00849523 
         5.4507       0.0229124      0.00843285 
        5.46639       0.0233349      0.00837109 
        5.48212       0.0236839       0.0083098 
        5.49786       0.0242158      0.00824905 
        5.51353       0.0246541      0.00818921 
        5.52921       0.0250462      0.00812991 
        5.54495       0.0255178      0.00807101 
        5.56066       0.0258927      0.00801276 
        5.57637       0.0266018       0.0079551 
        5.59207       0.0270375      0.00789805 
        5.60778       0.0276765      0.00784154 
        5.62346       0.0281704      0.00778566 
        5.63916       0.0285834      0.00773028 
        5.65487       0.0293462       0.0076754 
         5.6706       0.0297883      0.00762099 
        5.68633       0.0305428      0.00756709 
        5.70203       0.0312765      0.00751382 
        5.71773       0.0318845      0.00746107 
        5.73344        0.032358       0.0074088 
        5.74916       0.0332499      0.00735699 
        5.76486       0.0339335      0.00730573 
        5.78054       0.0346523      0.00725505 
        5.79626       0.0353707       0.0072047 
          5.812        0.036233      0.00715479 
         5.8277       0.0368714      0.00710548 
        5.84339       0.0379389      0.00705665 
        5.85911       0.0387749      0.00700818 
        5.87484        0.039563      0.00696017 
        5.89053       0.0406113      0.00691271 
        5.90623       0.0414593      0.00686567 
        5.92195       0.0426486      0.00681898 
        5.93767       0.0433744      0.00677275 
        5.95336       0.0441481      0.00672703 
        5.96905       0.0453418      0.00668175 
        5.98476       0.0461071      0.00663682 
        6.00048       0.0473547      0.00659228 
        6.01617       0.0486235      0.00654822 
        6.03185       0.0498673      0.00650461 
        6.04756        0.050679      0.00646129 
        6.06331       0.0521779      0.00641828 
        6.07903       0.0536638      0.00637575 
        6.09473       0.0549366      0.00633364 
        6.11044       0.0558558      0.00629188 
        6.12616       0.0579215      0.00625049 
        6.14186       0.0587604      0.00620952 
        6.15755       0.0604026      0.00616892 
        6.17326       0.0617593      0.00612866 
        6.18898        0.063587      0.00608873 
        6.20467       0.0652244      0.00604923 
        6.22036       0.0666161      0.00601008 
         6.2361       0.0686796      0.00597117 
         6.2518       0.0705288      0.00593267 
        6.26748       0.0725747       0.0058946 
        6.28319       0.0735106      0.00585675 
        6.29893       0.0758908       0.0058192 
        6.31463       0.0784181      0.00578205 
        6.33033       0.0797633      0.00574523 
        6.34604       0.0821604       0.0057087 
        6.36177       0.0846572      0.00567246 
        6.37747       0.0874069       0.0056366 
