# k  (h/Mpc)    Pcb(k)  (Mpc/h)^3    Pcb_linear(k) (Mpc/h)^3   ShotnoiseSubtracted = true
      0.0200456          45.744         46.3659 
      0.0350414          35.447         35.2993 
      0.0492313         26.4016         26.2958 
      0.0637834         22.0496         22.0898 
      0.0800726         17.7517          17.825 
       0.096163         13.2742         13.1824 
       0.111083         10.6707         10.5779 
       0.126058         9.36855         9.38717 
       0.142273         8.00461         8.03991 
       0.158546         6.44297         6.42694 
        0.17375         5.45551         5.42496 
       0.188953         4.90945         4.91113 
       0.204907         4.34346         4.37714 
       0.220756         3.73592         3.73628 
        0.23588          3.2569         3.25498 
         0.2514         2.95514         2.95587 
       0.267535         2.68414          2.6874 
       0.283568         2.38416         2.38486 
       0.299022         2.12955         2.12894 
       0.314451         1.95428         1.94603 
       0.330372         1.79068         1.79028 
       0.346141          1.6329         1.63212 
       0.361624          1.4862         1.48679 
       0.377134         1.36647         1.36897 
       0.392932         1.27733         1.26898 
       0.408854          1.1716         1.17333 
       0.424564         1.08857         1.08384 
       0.440253         1.00716         1.00598 
       0.455999        0.935771        0.938559 
       0.471626        0.874451        0.877106 
        0.48727        0.821468        0.819286 
       0.502856         0.76934        0.766886 
       0.518488        0.717361        0.720088 
       0.534347        0.672379        0.676751 
       0.550082         0.63715        0.636772 
       0.565732        0.603396        0.599984 
       0.581496        0.566315        0.566198 
       0.597222         0.53482        0.535235 
       0.612804        0.506359        0.506761 
       0.628434        0.478968         0.48016 
       0.644267        0.455504        0.455217 
       0.660051        0.432827        0.432216 
       0.675724        0.410041        0.410961 
       0.691403        0.390065        0.391125 
       0.707174        0.371736        0.372492 
       0.722871        0.356939        0.355153 
        0.73838        0.337894        0.339108 
       0.754018        0.322538        0.323938 
       0.769845        0.307241        0.309534 
        0.78569        0.295004        0.295998 
       0.801365        0.283042        0.283409 
       0.817031        0.271227        0.271568 
       0.832809        0.259237        0.260333 
       0.848511        0.249024        0.249791 
       0.864097        0.239828         0.23991 
       0.879701        0.230948         0.23056 
       0.895507        0.220255        0.221602 
       0.911279        0.212759        0.213142 
        0.92691        0.205544        0.205199 
       0.942635        0.196679         0.19762 
       0.958396         0.18996        0.190411 
       0.974128        0.183045        0.183578 
       0.989692        0.176637        0.177151 
        1.00528        0.169916        0.171025 
        1.02113        0.165073        0.165095 
        1.03692        0.159404         0.15947 
        1.05264        0.153552        0.154135 
        1.06832        0.148573        0.149055 
        1.08405        0.143482        0.144193 
        1.09979        0.139148        0.139546 
        1.11537        0.134035        0.135152 
        1.13105        0.129751        0.130922 
        1.14679        0.125989        0.126858 
        1.16256        0.122541        0.122961 
        1.17828        0.118837        0.119241 
        1.19395        0.115261        0.115689 
         1.2097        0.111595        0.112265 
        1.22537        0.108047        0.108997 
          1.241        0.105035         0.10587 
        1.25666        0.102305        0.102858 
        1.27241       0.0991873       0.0999512 
        1.28819       0.0962677       0.0971523 
        1.30392       0.0939253       0.0944695 
        1.31957       0.0911523       0.0919008 
        1.33529       0.0889967       0.0894188 
        1.35108       0.0861758       0.0870194 
        1.36674       0.0842345       0.0847258 
         1.3824       0.0817253       0.0825176 
        1.39811       0.0794747       0.0803814 
        1.41389       0.0777654       0.0783131 
        1.42964       0.0755413       0.0763216 
        1.44531       0.0736585       0.0744096 
        1.46101       0.0717362       0.0725595 
        1.47667       0.0700712       0.0707783 
        1.49229       0.0683374        0.069062 
        1.50793       0.0667035       0.0674011 
        1.52367       0.0650871       0.0657844 
        1.53953       0.0632872       0.0642103 
        1.55526       0.0618566       0.0627007 
        1.57092       0.0606609       0.0612461 
        1.58662       0.0591485       0.0598345 
        1.60235       0.0576901        0.058465 
        1.61809         0.05642       0.0571379 
        1.63369        0.055101        0.055864 
        1.64941       0.0538302       0.0546202 
        1.66519       0.0527073       0.0534099 
        1.68085       0.0514776       0.0522452 
        1.69652        0.050437       0.0511151 
        1.71228        0.049166       0.0500122 
        1.72806       0.0483018       0.0489411 
        1.74368       0.0471925       0.0479124 
        1.75933       0.0461921       0.0469114 
        1.77505       0.0453155       0.0459344 
        1.79081       0.0442465       0.0449838 
         1.8065       0.0434271       0.0440642 
        1.82218       0.0423898       0.0431714 
        1.83797       0.0415682       0.0422973 
        1.85367       0.0406775       0.0414523 
        1.86928       0.0397519       0.0406357 
        1.88497       0.0390309       0.0398367 
        1.90073       0.0381457       0.0390564 
        1.91647       0.0376659       0.0382979 
        1.93218       0.0370137       0.0375612 
        1.94787       0.0360782        0.036845 
        1.96363       0.0353768       0.0361448 
        1.97935        0.034685       0.0354644 
        1.99499       0.0340976       0.0348054 
        2.01064       0.0333883       0.0341623 
         2.0264       0.0328187       0.0335315 
        2.04216       0.0322435        0.032917 
        2.05781       0.0315442       0.0323219 
        2.07353        0.031025       0.0317394 
        2.08928       0.0304592       0.0311701 
        2.10499       0.0299596       0.0306164 
        2.12065       0.0293891       0.0300778 
        2.13633       0.0288761       0.0295519 
        2.15211       0.0283716       0.0290351 
        2.16785       0.0277144       0.0285323 
        2.18349       0.0273263       0.0280445 
        2.19916       0.0267958       0.0275672 
        2.21489       0.0263424       0.0270995 
        2.23063       0.0259893       0.0266424 
         2.2463        0.025518       0.0261979 
        2.26194       0.0251004       0.0257647 
        2.27765       0.0246728       0.0253392 
        2.29341       0.0241982       0.0249222 
        2.30914       0.0238031       0.0245154 
        2.32486       0.0233698       0.0241181 
        2.34061         0.02298       0.0237289 
        2.35635       0.0226704       0.0233487 
        2.37203       0.0223719       0.0229782 
        2.38768       0.0220508       0.0226166 
        2.40339       0.0216032       0.0222614 
        2.41914       0.0212501       0.0219131 
        2.43483       0.0209887       0.0215735 
         2.4505        0.020589       0.0212417 
        2.46622       0.0202489       0.0209158 
        2.48195       0.0199164       0.0205967 
        2.49759       0.0196332        0.020286 
        2.51328       0.0192762        0.019981 
        2.52906       0.0190184       0.0196803 
        2.54479       0.0187492        0.019387 
        2.56049       0.0184162       0.0191002 
        2.57618       0.0181552       0.0188195 
        2.59189       0.0178565       0.0185441 
        2.60758       0.0176745       0.0182746 
        2.62325       0.0173257       0.0180108 
        2.63898       0.0171326       0.0177514 
        2.65468       0.0168156       0.0174976 
        2.67044       0.0165922       0.0172477 
        2.68618       0.0163282       0.0170033 
        2.70184        0.016186       0.0167646 
        2.71755       0.0159112         0.01653 
        2.73329       0.0157272       0.0162995 
        2.74897       0.0154407       0.0160741 
        2.76462       0.0152331       0.0158535 
        2.78034       0.0150443       0.0156362 
        2.79607       0.0148129       0.0154228 
        2.81179       0.0146048       0.0152135 
        2.82749       0.0144341       0.0150085 
        2.84321       0.0142076        0.014807 
        2.85893       0.0140178       0.0146092 
        2.87462       0.0138203       0.0144154 
        2.89033       0.0136404        0.014225 
        2.90605        0.013438       0.0140379 
        2.92176       0.0132876       0.0138542 
        2.93747       0.0131041        0.013674 
        2.95318       0.0129147       0.0134969 
        2.96891       0.0127148       0.0133229 
        2.98456       0.0125593       0.0131527 
        3.00023       0.0124642       0.0129853 
        3.01596       0.0122514       0.0128203 
        3.03164        0.012092       0.0126586 
        3.04738       0.0119525       0.0124993 
         3.0631       0.0117498       0.0123428 
        3.07883       0.0116448       0.0121889 
        3.09456       0.0114886       0.0120377 
        3.11026       0.0113103       0.0118893 
        3.12596        0.011223       0.0117435 
        3.14163       0.0110701       0.0116004 
        3.15734       0.0109597       0.0114594 
        3.17308       0.0108066       0.0113204 
        3.18879       0.0106307       0.0111841 
        3.20447         0.01055       0.0110503 
         3.2202       0.0104014       0.0109182 
         3.2359       0.0102798       0.0107886 
        3.25157       0.0101462       0.0106613 
        3.26729       0.0100236       0.0105358 
        3.28304      0.00993822        0.010412 
        3.29877      0.00980629       0.0102904 
        3.31446       0.0096778        0.010171 
        3.33014      0.00956455       0.0100536 
        3.34585      0.00948434      0.00993785 
        3.36158      0.00935469      0.00982379 
        3.37727      0.00923778      0.00971188 
        3.39294      0.00912749      0.00960183 
        3.40867       0.0090393      0.00949309 
        3.42439      0.00892323       0.0093861 
        3.44008      0.00883495      0.00928098 
        3.45578      0.00873497      0.00917739 
        3.47153      0.00863307      0.00907517 
        3.48724      0.00854744      0.00897468 
        3.50292      0.00845638      0.00887596 
        3.51859      0.00840409      0.00877877 
        3.53431      0.00827755      0.00868274 
        3.55007      0.00818932      0.00858793 
        3.56577      0.00809206       0.0084949 
        3.58146      0.00801846       0.0084033 
        3.59719      0.00794979      0.00831284 
        3.61292      0.00785504      0.00822375 
        3.62859      0.00774414      0.00813631 
        3.64429       0.0076977      0.00804997 
        3.66003      0.00763782      0.00796463 
        3.67578      0.00753487      0.00788056 
        3.69146      0.00747949      0.00779803 
        3.70712      0.00738295      0.00771683 
        3.72284      0.00732231      0.00763649 
        3.73853      0.00723468      0.00755744 
        3.75422      0.00717859      0.00747948 
        3.76993      0.00711986      0.00740257 
        3.78564      0.00705203      0.00732676 
        3.80137      0.00697715       0.0072519 
        3.81707       0.0069046      0.00717824 
        3.83279      0.00683265      0.00710556 
        3.84853      0.00678817      0.00703376 
        3.86424      0.00671418       0.0069631 
        3.87992      0.00666416      0.00689352 
        3.89561       0.0066129      0.00682489 
        3.91134       0.0065451      0.00675706 
        3.92704      0.00649381      0.00669023 
        3.94273      0.00644162      0.00662438 
        3.95845      0.00639345      0.00655929 
        3.97418      0.00632995      0.00649507 
        3.98988      0.00625436       0.0064318 
        4.00554      0.00620252      0.00636954 
        4.02125      0.00613168      0.00630794 
        4.03698      0.00603989      0.00624705 
        4.05268      0.00596919      0.00618711 
        4.06839      0.00591199      0.00612792 
         4.0841      0.00582034      0.00606952 
        4.09983      0.00577192       0.0060118 
        4.11555      0.00567722      0.00595487 
        4.13124      0.00562731      0.00589882 
        4.14693      0.00556155      0.00584345 
        4.16266      0.00550151      0.00578867 
        4.17839      0.00544254      0.00573463 
        4.19408      0.00537322       0.0056814 
        4.20977      0.00531562      0.00562882 
        4.22551      0.00527199      0.00557679 
        4.24123      0.00522431      0.00552547 
        4.25691      0.00519058      0.00547494 
        4.27259      0.00512774      0.00542502 
        4.28831      0.00508905      0.00537563 
        4.30404      0.00503601      0.00532681 
        4.31974       0.0050179      0.00527871 
        4.33543      0.00496107      0.00523123 
        4.35116      0.00493284      0.00518422 
        4.36688      0.00489658       0.0051378 
        4.38255      0.00487667      0.00509213 
        4.39825      0.00485385      0.00504692 
        4.41398      0.00480522      0.00500217 
         4.4297      0.00478161      0.00495801 
        4.44541      0.00476634       0.0049144 
        4.46111      0.00473991      0.00487134 
        4.47683      0.00473302      0.00482877 
        4.49251      0.00470413       0.0047868 
        4.50819      0.00468103      0.00474534 
         4.5239      0.00466805      0.00470431 
        4.53962      0.00466961      0.00466372 
        4.55535      0.00465036      0.00462359 
        4.57106      0.00465548      0.00458399 
        4.58678      0.00464468      0.00454485 
         4.6025      0.00464355      0.00450615 
        4.61821      0.00463904      0.00446792 
        4.63391      0.00463782      0.00443018 
         4.6496      0.00461796      0.00439289 
        4.66532      0.00464099      0.00435598 
        4.68103      0.00463732      0.00431951 
        4.69673      0.00463543      0.00428349 
        4.71241      0.00468281      0.00424792 
        4.72811      0.00468072      0.00421269 
        4.74384      0.00468061      0.00417782 
        4.75955      0.00470926       0.0041434 
        4.77525      0.00471955      0.00410939 
        4.79096      0.00474293      0.00407572 
        4.80669      0.00476378      0.00404241 
         4.8224      0.00478707      0.00400952 
        4.83809      0.00480355      0.00397702 
        4.85379      0.00485176      0.00394487 
         4.8695       0.0048872      0.00391305 
        4.88521      0.00491089      0.00388159 
        4.90093      0.00493307      0.00385048 
        4.91663      0.00499608      0.00381973 
        4.93234      0.00500158      0.00378929 
        4.94807      0.00505149      0.00375916 
        4.96377      0.00509207      0.00372942 
        4.97943      0.00516346      0.00370006 
        4.99514      0.00518503      0.00367095 
        5.01086      0.00523897      0.00364213 
        5.02654      0.00529471      0.00361369 
        5.04227      0.00533173      0.00358547 
          5.058      0.00542022      0.00355754 
        5.07371      0.00545884      0.00352996 
        5.08942      0.00555642      0.00350267 
        5.10513      0.00559559      0.00347567 
        5.12084      0.00565867      0.00344895 
        5.13656      0.00574192      0.00342251 
        5.15225      0.00582388      0.00339639 
        5.16796      0.00589869       0.0033705 
        5.18369      0.00597091      0.00334486 
         5.1994      0.00607621      0.00331954 
        5.21509      0.00612832       0.0032945 
        5.23079      0.00621235      0.00326969 
        5.24649      0.00631556      0.00324515 
        5.26217      0.00640907      0.00322089 
        5.27788      0.00649403      0.00319684 
        5.29359      0.00659178      0.00317303 
        5.30933      0.00670766      0.00314943 
        5.32504      0.00677723      0.00312611 
        5.34073       0.0069206      0.00310305 
        5.35646      0.00703129      0.00308019 
        5.37218      0.00718853      0.00305754 
        5.38789      0.00729131      0.00303517 
        5.40357      0.00738832      0.00301304 
        5.41929      0.00750955      0.00299108 
        5.43502       0.0076976      0.00296934 
         5.4507      0.00780804      0.00294788 
        5.46639      0.00791067      0.00292662 
        5.48212      0.00806002      0.00290552 
        5.49786      0.00827699       0.0028846 
        5.51353      0.00842146        0.002864 
        5.52921      0.00853618      0.00284357 
        5.54495      0.00874343      0.00282329 
        5.56066      0.00892236      0.00280322 
        5.57637      0.00910726      0.00278336 
        5.59207        0.009269       0.0027637 
        5.60778      0.00946847      0.00274423 
        5.62346         0.00964      0.00272498 
        5.63916      0.00981478      0.00270589 
        5.65487       0.0100442      0.00268697 
         5.6706       0.0102146      0.00266822 
        5.68633       0.0104729      0.00264963 
        5.70203        0.010721      0.00263126 
        5.71773        0.010903      0.00261307 
        5.73344       0.0110776      0.00259505 
        5.74916       0.0114169      0.00257717 
        5.76486       0.0116215      0.00255949 
        5.78054       0.0118767      0.00254201 
        5.79626       0.0121234      0.00252464 
          5.812       0.0124204      0.00250741 
         5.8277       0.0126653      0.00249039 
        5.84339       0.0130177      0.00247354 
        5.85911       0.0133591      0.00245681 
        5.87484       0.0135903      0.00244023 
        5.89053       0.0139066      0.00242385 
        5.90623        0.014302       0.0024076 
        5.92195       0.0145403      0.00239148 
        5.93767       0.0148694      0.00237551 
        5.95336       0.0153082      0.00235972 
        5.96905       0.0157571      0.00234408 
        5.98476       0.0160147      0.00232855 
        6.00048       0.0165062      0.00231317 
        6.01617        0.016742      0.00229794 
        6.03185       0.0171395      0.00228287 
        6.04756       0.0177069      0.00226789 
        6.06331        0.018034      0.00225303 
        6.07903        0.018586      0.00223832 
        6.09473       0.0189298      0.00222376 
        6.11044       0.0196202      0.00220932 
        6.12616       0.0199656      0.00219501 
        6.14186       0.0204581      0.00218084 
        6.15755       0.0211599       0.0021668 
        6.17326       0.0214072      0.00215287 
        6.18898       0.0221376      0.00213905 
        6.20467       0.0226169      0.00212539 
        6.22036        0.023345      0.00211184 
         6.2361       0.0237466      0.00209837 
         6.2518        0.024504      0.00208505 
        6.26748       0.0250233      0.00207187 
        6.28319       0.0259336      0.00205877 
        6.29893       0.0265788      0.00204577 
        6.31463       0.0272472       0.0020329 
        6.33033       0.0278803      0.00202015 
        6.34604         0.02861       0.0020075 
        6.36177       0.0293962      0.00199495 
        6.37747       0.0303816      0.00198253 
