# k  (h/Mpc)    Pcb(k)  (Mpc/h)^3    Pcb_linear(k) (Mpc/h)^3   ShotnoiseSubtracted = true
      0.0200456         5759.53         5841.09 
      0.0350414         4531.32         4446.94 
      0.0492313          3299.7          3312.7 
      0.0637834         2711.57         2782.83 
      0.0800726         2174.98         2245.56 
       0.096163         1698.57          1660.7 
       0.111083         1384.56         1332.58 
       0.126058         1169.57         1182.58 
       0.142273         1006.98         1012.85 
       0.158546         830.282         809.654 
        0.17375         720.176         683.427 
       0.188953         656.385         618.695 
       0.204907           562.1         551.424 
       0.220756         503.403          470.69 
        0.23588          444.62         410.057 
         0.2514         400.138         372.375 
       0.267535         382.359         338.554 
       0.283568         334.986          300.44 
       0.299022         314.703           268.2 
       0.314451         306.519         245.157 
       0.330372         267.363         225.536 
       0.346141         247.713         205.611 
       0.361624         233.595         187.303 
       0.377134         214.214         172.461 
       0.392932         209.259         159.864 
       0.408854         196.853         147.814 
       0.424564         188.283          136.54 
       0.440253         170.657         126.731 
       0.455999         160.272         118.238 
       0.471626         155.411         110.496 
        0.48727         150.418         103.212 
       0.502856         137.909         96.6109 
       0.518488         135.055         90.7154 
       0.534347         126.979         85.2559 
       0.550082         123.687         80.2195 
       0.565732         120.812          75.585 
       0.581496         111.757         71.3286 
       0.597222         108.836         67.4279 
       0.612804         105.566         63.8409 
       0.628434         102.742         60.4897 
       0.644267          97.496         57.3475 
       0.660051         94.1692         54.4498 
       0.675724         92.1989         51.7722 
       0.691403         90.3735         49.2732 
       0.707174         87.3924         46.9259 
       0.722871         85.2923         44.7415 
        0.73838         82.4184         42.7202 
       0.754018         77.9992         40.8091 
       0.769845         77.3455         38.9946 
        0.78569         74.8026         37.2893 
       0.801365         72.8794         35.7034 
       0.817031         70.3129         34.2116 
       0.832809         69.2063         32.7963 
       0.848511         67.3717         31.4682 
       0.864097         66.1988         30.2235 
       0.879701         64.8696         29.0455 
       0.895507         62.5445          27.917 
       0.911279         61.5725         26.8513 
        0.92691         59.7648         25.8506 
       0.942635         58.6921         24.8958 
       0.958396         58.2974         23.9877 
       0.974128         56.8044         23.1269 
       0.989692         55.3168         22.3172 
        1.00528         54.4236         21.5454 
        1.02113         53.2804         20.7983 
        1.03692         52.7936         20.0897 
        1.05264         51.5789         19.4177 
        1.06832         50.4529         18.7777 
        1.08405         49.4325         18.1651 
        1.09979         49.2383         17.5797 
        1.11537         47.8186         17.0261 
        1.13105          46.714         16.4933 
        1.14679         46.1052         15.9814 
        1.16256         45.5035         15.4904 
        1.17828         44.8554         15.0218 
        1.19395         43.8634         14.5743 
         1.2097         43.5325         14.1429 
        1.22537         42.6746         13.7312 
          1.241         41.9165         13.3373 
        1.25666         41.2983         12.9579 
        1.27241         40.9619         12.5917 
        1.28819         39.6646         12.2391 
        1.30392         39.7507         11.9011 
        1.31957         39.0945         11.5775 
        1.33529         38.3562         11.2648 
        1.35108          37.749         10.9626 
        1.36674         37.4434         10.6736 
         1.3824         36.7761         10.3954 
        1.39811         36.0133         10.1263 
        1.41389         35.6675         9.86575 
        1.42964          35.341         9.61486 
        1.44531         34.6061         9.37399 
        1.46101          34.415         9.14092 
        1.47667         33.9668         8.91652 
        1.49229         33.3536         8.70031 
        1.50793         33.0043         8.49107 
        1.52367         32.5238         8.28741 
        1.53953         32.2927         8.08911 
        1.55526         31.7718         7.89892 
        1.57092         31.4704         7.71567 
        1.58662         30.9855         7.53784 
        1.60235         30.5737         7.36531 
        1.61809         30.2973         7.19813 
        1.63369         29.9999         7.03765 
        1.64941         29.6204         6.88095 
        1.66519          29.068         6.72849 
        1.68085         28.6686         6.58176 
        1.69652         28.5488         6.43939 
        1.71228         28.2102         6.30044 
        1.72806         27.7696         6.16552 
        1.74368         27.4832         6.03592 
        1.75933         27.2206         5.90981 
        1.77505         26.9794         5.78674 
        1.79081         26.6668         5.66698 
         1.8065         26.2892         5.55113 
        1.82218         26.0198         5.43865 
        1.83797         25.8681         5.32854 
        1.85367         25.5876         5.22209 
        1.86928         25.4213         5.11921 
        1.88497         25.0009         5.01856 
        1.90073         24.7311         4.92026 
        1.91647         24.4351          4.8247 
        1.93218         24.5099         4.73189 
        1.94787         24.0689         4.64167 
        1.96363          23.879         4.55346 
        1.97935         23.4691         4.46774 
        1.99499         23.2856         4.38472 
        2.01064         23.0477          4.3037 
         2.0264          22.805         4.22423 
        2.04216         22.6781         4.14682 
        2.05781         22.4185         4.07185 
        2.07353         22.1924         3.99847 
        2.08928         21.8348         3.92676 
        2.10499         21.6875           3.857 
        2.12065         21.4823         3.78915 
        2.13633         21.3536         3.72289 
        2.15211         21.0143         3.65779 
        2.16785         20.9729         3.59444 
        2.18349         20.6728           3.533 
        2.19916         20.4788         3.47287 
        2.21489         20.2624         3.41395 
        2.23063         20.1645         3.35636 
         2.2463         19.8826         3.30036 
        2.26194         19.7244         3.24579 
        2.27765         19.4095         3.19218 
        2.29341         19.3248         3.13965 
        2.30914         19.1005         3.08841 
        2.32486         19.0394         3.03835 
        2.34061         18.8359         2.98933 
        2.35635         18.5817         2.94143 
        2.37203         18.4558         2.89475 
        2.38768         18.2668         2.84919 
        2.40339         18.1696         2.80445 
        2.41914         17.9405         2.76057 
        2.43483         17.7487         2.71779 
         2.4505         17.5569         2.67599 
        2.46622         17.4965         2.63493 
        2.48195         17.3024         2.59474 
        2.49759         17.0237          2.5556 
        2.51328         17.0458         2.51717 
        2.52906         16.8561         2.47929 
        2.54479         16.6595         2.44234 
        2.56049         16.4845         2.40621 
        2.57618         16.4494         2.37085 
        2.59189         16.2723         2.33615 
        2.60758           16.05          2.3022 
        2.62325         15.9317         2.26897 
        2.63898         15.8517         2.23629 
        2.65468         15.5923         2.20432 
        2.67044         15.5386         2.17284 
        2.68618          15.443         2.14205 
        2.70184         15.2424         2.11198 
        2.71755         15.1415         2.08242 
        2.73329         14.9632         2.05338 
        2.74897         14.8872         2.02499 
        2.76462         14.7495          1.9972 
        2.78034         14.5987         1.96982 
        2.79607         14.4896         1.94293 
        2.81179         14.3487         1.91658 
        2.82749         14.2405         1.89074 
        2.84321         14.1138         1.86535 
        2.85893         13.9571         1.84044 
        2.87462         13.9233         1.81603 
        2.89033         13.7528         1.79204 
        2.90605         13.6591         1.76847 
        2.92176          13.514         1.74533 
        2.93747         13.4065         1.72262 
        2.95318         13.2855         1.70032 
        2.96891         13.2001         1.67839 
        2.98456         13.0689         1.65696 
        3.00023         12.9866         1.63587 
        3.01596          12.873         1.61508 
        3.03164         12.8016         1.59471 
        3.04738         12.6729         1.57464 
         3.0631         12.4976         1.55492 
        3.07883         12.4258         1.53554 
        3.09456          12.371         1.51649 
        3.11026         12.2892          1.4978 
        3.12596         12.1512         1.47942 
        3.14163         12.0795          1.4614 
        3.15734         11.9313         1.44364 
        3.17308         11.8697         1.42613 
        3.18879         11.7662         1.40896 
        3.20447         11.6628         1.39209 
         3.2202          11.567         1.37546 
         3.2359         11.4509         1.35912 
        3.25157         11.4067         1.34309 
        3.26729         11.2888         1.32728 
        3.28304         11.1776         1.31168 
        3.29877         11.1206         1.29636 
        3.31446         11.0136         1.28132 
        3.33014         10.9274         1.26653 
        3.34585         10.8507         1.25195 
        3.36158         10.7663         1.23758 
        3.37727         10.7033         1.22349 
        3.39294         10.6029         1.20962 
        3.40867         10.5156         1.19592 
        3.42439         10.4258         1.18244 
        3.44008          10.349          1.1692 
        3.45578         10.2564         1.15615 
        3.47153         10.1764         1.14327 
        3.48724         10.1085         1.13061 
        3.50292         9.99788         1.11818 
        3.51859         9.94171         1.10593 
        3.53431         9.82378         1.09384 
        3.55007         9.77099         1.08189 
        3.56577         9.67604         1.07017 
        3.58146         9.61521         1.05863 
        3.59719         9.53594         1.04724 
        3.61292         9.49302         1.03601 
        3.62859         9.42736           1.025 
        3.64429         9.31779         1.01412 
        3.66003         9.28435         1.00337 
        3.67578         9.17046        0.992779 
        3.69146         9.14281        0.982382 
        3.70712         9.06956        0.972153 
        3.72284         8.95861        0.962032 
        3.73853         8.90753        0.952073 
        3.75422         8.84858        0.942252 
        3.76993         8.75563        0.932562 
        3.78564         8.68917        0.923012 
        3.80137         8.66029        0.913582 
        3.81707         8.56519        0.904303 
        3.83279         8.47925        0.895145 
        3.84853         8.43987        0.886101 
        3.86424         8.40064        0.877199 
        3.87992         8.32647        0.868434 
        3.89561          8.2409        0.859788 
        3.91134         8.16514        0.851243 
        3.92704         8.12008        0.842824 
        3.94273         8.04942        0.834527 
        3.95845          8.0154        0.826328 
        3.97418         7.93549        0.818237 
        3.98988         7.89063        0.810266 
        4.00554         7.82706        0.802424 
        4.02125         7.77813        0.794663 
        4.03698         7.70202        0.786993 
        4.05268         7.63347        0.779442 
        4.06839         7.56213        0.771984 
         4.0841         7.53117        0.764628 
        4.09983         7.46745        0.757357 
        4.11555         7.38188        0.750183 
        4.13124         7.33656        0.743123 
        4.14693          7.2826        0.736148 
        4.16266         7.23903        0.729247 
        4.17839          7.1895        0.722438 
        4.19408         7.13159        0.715732 
        4.20977         7.07189        0.709109 
        4.22551         7.03226        0.702554 
        4.24123         6.97177        0.696089 
        4.25691         6.91883        0.689723 
        4.27259         6.85669        0.683435 
        4.28831         6.81932        0.677213 
        4.30404         6.75054        0.671062 
        4.31974         6.70886        0.665002 
        4.33543         6.66783        0.659021 
        4.35116         6.60236        0.653098 
        4.36688         6.55657        0.647251 
        4.38255         6.50228        0.641498 
        4.39825          6.4645        0.635802 
        4.41398         6.40899        0.630165 
         4.4297         6.38205        0.624602 
        4.44541         6.31709        0.619107 
        4.46111         6.29545        0.613683 
        4.47683         6.23484         0.60832 
        4.49251         6.19372        0.603033 
        4.50819         6.15346         0.59781 
         4.5239         6.09861        0.592641 
        4.53962         6.05206        0.587527 
        4.55535         6.01071        0.582472 
        4.57106         5.96051        0.577483 
        4.58678         5.93052        0.572552 
         4.6025         5.88343        0.567677 
        4.61821         5.84742        0.562861 
        4.63391         5.78664        0.558106 
         4.6496         5.76113        0.553409 
        4.66532         5.70562        0.548758 
        4.68103         5.67312        0.544164 
        4.69673         5.64118        0.539626 
        4.71241          5.6034        0.535145 
        4.72811         5.55222        0.530707 
        4.74384          5.5312        0.526315 
        4.75955         5.48169        0.521979 
        4.77525         5.43165        0.517694 
        4.79096         5.41047        0.513452 
        4.80669         5.36473        0.509256 
         4.8224         5.31869        0.505112 
        4.83809         5.28906        0.501018 
        4.85379         5.23952        0.496968 
         4.8695         5.22143        0.492959 
        4.88521         5.19131        0.488996 
        4.90093         5.13591        0.485076 
        4.91663         5.10797        0.481203 
        4.93234         5.07437        0.477368 
        4.94807         5.04232        0.473573 
        4.96377         5.00593        0.469826 
        4.97943         4.97867        0.466128 
        4.99514         4.93098         0.46246 
        5.01086          4.9102        0.458829 
        5.02654         4.87024        0.455246 
        5.04227         4.83195        0.451691 
          5.058          4.7998        0.448172 
        5.07371         4.76793        0.444698 
        5.08942         4.73388        0.441261 
        5.10513         4.69939        0.437859 
        5.12084         4.67494        0.434492 
        5.13656         4.64196        0.431161 
        5.15225         4.60521        0.427871 
        5.16796         4.58649         0.42461 
        5.18369         4.54119         0.42138 
         5.1994         4.51731        0.418189 
        5.21509         4.47829        0.415035 
        5.23079         4.45326        0.411909 
        5.24649         4.42772        0.408818 
        5.26217         4.39176        0.405762 
        5.27788         4.37215        0.402732 
        5.29359         4.33752        0.399733 
        5.30933         4.31152         0.39676 
        5.32504         4.29221        0.393822 
        5.34073         4.26464        0.390917 
        5.35646         4.22832        0.388036 
        5.37218         4.19729        0.385184 
        5.38789         4.17644        0.382365 
        5.40357         4.14935        0.379577 
        5.41929         4.11379        0.376811 
        5.43502         4.09018        0.374073 
         5.4507         4.07191        0.371368 
        5.46639         4.02985         0.36869 
        5.48212         4.01844        0.366032 
        5.49786         3.99361        0.363397 
        5.51353         3.96626        0.360801 
        5.52921          3.9416        0.358228 
        5.54495         3.91456        0.355673 
        5.56066         3.89657        0.353145 
        5.57637          3.8614        0.350643 
        5.59207         3.83751        0.348167 
        5.60778         3.81956        0.345714 
        5.62346         3.79467        0.343288 
        5.63916         3.77314        0.340883 
        5.65487         3.74529          0.3385 
         5.6706         3.71383        0.336137 
        5.68633         3.70491        0.333796 
        5.70203         3.68213        0.331482 
        5.71773         3.65057         0.32919 
        5.73344         3.63348        0.326919 
        5.74916         3.60783        0.324668 
        5.76486         3.58539         0.32244 
        5.78054         3.56281        0.320238 
        5.79626          3.5369        0.318049 
          5.812         3.51611        0.315879 
         5.8277         3.49659        0.313736 
        5.84339         3.48251        0.311612 
        5.85911         3.45607        0.309504 
        5.87484         3.43525        0.307416 
        5.89053         3.41266        0.305352 
        5.90623          3.3962        0.303305 
        5.92195         3.37565        0.301274 
        5.93767         3.35458        0.299263 
        5.95336         3.33347        0.297273 
        5.96905         3.30886        0.295303 
        5.98476         3.29056        0.293347 
        6.00048         3.27515        0.291408 
        6.01617         3.25187         0.28949 
        6.03185         3.23733        0.287592 
        6.04756         3.21023        0.285705 
        6.06331         3.19725        0.283832 
        6.07903         3.17753         0.28198 
        6.09473         3.15725        0.280146 
        6.11044         3.13673        0.278326 
        6.12616          3.1187        0.276524 
        6.14186         3.10592        0.274738 
        6.15755         3.08176        0.272969 
        6.17326         3.06403        0.271214 
        6.18898         3.04121        0.269474 
        6.20467         3.02874        0.267752 
        6.22036         3.01562        0.266046 
         6.2361         2.99181         0.26435 
         6.2518         2.97546        0.262671 
        6.26748         2.96141        0.261011 
        6.28319         2.94188         0.25936 
        6.29893         2.92959        0.257722 
        6.31463         2.91315        0.256102 
        6.33033         2.89742        0.254495 
        6.34604         2.87409        0.252902 
        6.36177         2.86195        0.251321 
        6.37747         2.84498        0.249756 
