# k  (h/Mpc)    Pcb(k)  (Mpc/h)^3    Pcb_linear(k) (Mpc/h)^3   ShotnoiseSubtracted = true
      0.0200456         4832.69         4900.09 
      0.0350414         3797.26         3730.54 
      0.0492313         2771.82         2779.02 
      0.0637834         2280.61         2334.52 
      0.0800726         1830.31          1883.8 
       0.096163         1423.65         1393.16 
       0.111083         1159.16          1117.9 
       0.126058         982.151         992.066 
       0.142273         844.144         849.683 
       0.158546         694.749         679.219 
        0.17375         601.271         573.327 
       0.188953         546.365         519.024 
       0.204907         468.057          462.59 
       0.220756         418.388         394.862 
        0.23588         368.814         343.997 
         0.2514         332.358         312.386 
       0.267535         315.793         284.013 
       0.283568         277.021         252.039 
       0.299022          258.87         224.993 
       0.314451         250.116         205.663 
       0.330372         219.347         189.202 
       0.346141         202.876         172.487 
       0.361624         190.377         157.129 
       0.377134         174.239         144.677 
       0.392932         170.107          134.11 
       0.408854         159.253         124.002 
       0.424564         152.167         114.544 
       0.440253         138.247         106.315 
       0.455999         128.932         99.1899 
       0.471626         124.201         92.6953 
        0.48727         120.627         86.5847 
       0.502856         110.981         81.0469 
       0.518488         107.646         76.1012 
       0.534347         101.537         71.5212 
       0.550082         98.5561         67.2961 
       0.565732         95.9009         63.4083 
       0.581496         88.9082         59.8376 
       0.597222          86.073         56.5653 
       0.612804         83.4167         53.5561 
       0.628434         81.3752         50.7449 
       0.644267          77.128         48.1088 
       0.660051         74.2966          45.678 
       0.675724         72.2265         43.4317 
       0.691403         71.0025         41.3353 
       0.707174         68.6616         39.3661 
       0.722871         66.7305         37.5337 
        0.73838          64.117          35.838 
       0.754018         60.8852         34.2347 
       0.769845          60.207         32.7125 
        0.78569         58.0834          31.282 
       0.801365         56.6683         29.9516 
       0.817031         54.5778         28.7001 
       0.832809         53.7496         27.5129 
       0.848511          52.164         26.3987 
       0.864097         51.1378         25.3545 
       0.879701         50.1389         24.3663 
       0.895507         48.3874         23.4196 
       0.911279         47.3195         22.5256 
        0.92691         46.1836         21.6861 
       0.942635         45.3397         20.8851 
       0.958396         44.7828         20.1233 
       0.974128         43.5775         19.4011 
       0.989692         42.2434         18.7219 
        1.00528         41.7124         18.0744 
        1.02113         40.7493         17.4477 
        1.03692         40.1982         16.8533 
        1.05264          39.293         16.2895 
        1.06832         38.5733         15.7526 
        1.08405         37.6001         15.2387 
        1.09979         37.3875         14.7476 
        1.11537         36.2443         14.2832 
        1.13105         35.5411         13.8362 
        1.14679         34.8638         13.4068 
        1.16256          34.426         12.9949 
        1.17828         33.9285         12.6018 
        1.19395         33.2695         12.2264 
         1.2097         32.7371         11.8645 
        1.22537         32.1707         11.5191 
          1.241         31.6015         11.1886 
        1.25666         31.2019         10.8704 
        1.27241         30.7787         10.5632 
        1.28819         29.6679         10.2674 
        1.30392          30.001         9.98384 
        1.31957         29.3108         9.71236 
        1.33529         28.7248         9.45007 
        1.35108         28.4456         9.19649 
        1.36674         28.0932          8.9541 
         1.3824         27.5542         8.72073 
        1.39811          26.956         8.49496 
        1.41389         26.7217         8.27638 
        1.42964          26.457         8.06591 
        1.44531          25.981         7.86385 
        1.46101         25.6943         7.66832 
        1.47667         25.3774         7.48007 
        1.49229         24.8774         7.29869 
        1.50793         24.6575         7.12316 
        1.52367         24.3145         6.95231 
        1.53953         24.0462         6.78595 
        1.55526         23.6267         6.62641 
        1.57092         23.5446         6.47268 
        1.58662         23.2096          6.3235 
        1.60235         22.7909         6.17876 
        1.61809         22.6204         6.03851 
        1.63369         22.3451         5.90389 
        1.64941         22.1024         5.77243 
        1.66519         21.6725         5.64453 
        1.68085         21.3206         5.52144 
        1.69652         21.3733           5.402 
        1.71228         20.9469         5.28545 
        1.72806         20.6661         5.17226 
        1.74368         20.4914         5.06354 
        1.75933         20.2784         4.95775 
        1.77505          20.058          4.8545 
        1.79081           19.84         4.75403 
         1.8065         19.6228         4.65685 
        1.82218         19.4441         4.56249 
        1.83797         19.2982         4.47011 
        1.85367         19.1643         4.38082 
        1.86928         18.9174         4.29451 
        1.88497         18.6929         4.21007 
        1.90073         18.4468         4.12761 
        1.91647         18.1177         4.04744 
        1.93218         18.1801         3.96958 
        1.94787          17.815          3.8939 
        1.96363         17.7772          3.8199 
        1.97935         17.4889         3.74799 
        1.99499         17.2894         3.67834 
        2.01064         17.1685         3.61038 
         2.0264         16.9183         3.54371 
        2.04216         16.8876         3.47877 
        2.05781         16.6978         3.41588 
        2.07353         16.5148         3.35432 
        2.08928         16.3108         3.29416 
        2.10499         16.1195         3.23564 
        2.12065         16.0088         3.17872 
        2.13633         15.8761         3.12313 
        2.15211         15.6922         3.06852 
        2.16785         15.5902         3.01538 
        2.18349         15.3668         2.96383 
        2.19916         15.2262         2.91339 
        2.21489         15.0983         2.86396 
        2.23063         15.0218         2.81565 
         2.2463         14.7798         2.76868 
        2.26194         14.6848          2.7229 
        2.27765         14.4846         2.67792 
        2.29341         14.3632         2.63385 
        2.30914         14.2469         2.59087 
        2.32486         14.1704         2.54888 
        2.34061         14.0393         2.50775 
        2.35635         13.8953         2.46757 
        2.37203          13.728         2.42841 
        2.38768         13.5687         2.39019 
        2.40339         13.5312         2.35266 
        2.41914         13.3487         2.31585 
        2.43483          13.235         2.27996 
         2.4505         13.1242         2.24489 
        2.46622          13.032         2.21045 
        2.48195         12.9515         2.17673 
        2.49759         12.7383         2.14389 
        2.51328         12.7367         2.11165 
        2.52906         12.5686         2.07988 
        2.54479         12.4301         2.04888 
        2.56049           12.31         2.01857 
        2.57618          12.261         1.98891 
        2.59189         12.2229          1.9598 
        2.60758         12.0133         1.93132 
        2.62325         11.9364         1.90344 
        2.63898         11.8736         1.87602 
        2.65468         11.7103          1.8492 
        2.67044          11.661         1.82279 
        2.68618         11.5587         1.79696 
        2.70184         11.4497         1.77174 
        2.71755         11.3721         1.74694 
        2.73329         11.2194         1.72258 
        2.74897         11.1691         1.69876 
        2.76462         11.1001         1.67545 
        2.78034         10.9665         1.65249 
        2.79607         10.9115         1.62993 
        2.81179         10.7806         1.60782 
        2.82749         10.7139         1.58614 
        2.84321         10.6355         1.56485 
        2.85893         10.5615         1.54395 
        2.87462         10.4875         1.52347 
        2.89033         10.3635         1.50335 
        2.90605         10.3058         1.48357 
        2.92176         10.2008         1.46416 
        2.93747         10.1244         1.44511 
        2.95318         10.0383          1.4264 
        2.96891         9.97628         1.40801 
        2.98456         9.89471         1.39002 
        3.00023         9.81855         1.37233 
        3.01596         9.68854         1.35489 
        3.03164         9.69213          1.3378 
        3.04738         9.56373         1.32096 
         3.0631         9.46298         1.30442 
        3.07883         9.42079         1.28816 
        3.09456         9.34931         1.27218 
        3.11026         9.29244          1.2565 
        3.12596         9.18368         1.24109 
        3.14163          9.1652         1.22597 
        3.15734         9.04384         1.21107 
        3.17308         9.00342         1.19638 
        3.18879         8.91879         1.18197 
        3.20447         8.83357         1.16783 
         3.2202         8.78987         1.15387 
         3.2359          8.7046         1.14017 
        3.25157         8.67287         1.12672 
        3.26729         8.58313         1.11345 
        3.28304         8.51214         1.10037 
        3.29877         8.46199         1.08752 
        3.31446         8.41364          1.0749 
        3.33014         8.33566         1.06249 
        3.34585         8.29898         1.05026 
        3.36158         8.22184         1.03821 
        3.37727         8.16058         1.02638 
        3.39294         8.07472         1.01475 
        3.40867         8.05043         1.00326 
        3.42439          7.9551        0.991953 
        3.44008         7.89481        0.980843 
        3.45578         7.84727        0.969896 
        3.47153         7.76846        0.959092 
        3.48724         7.72791        0.948473 
        3.50292         7.65258        0.938039 
        3.51859          7.6258        0.927768 
        3.53431          7.5598         0.91762 
        3.55007         7.50208        0.907599 
        3.56577         7.41835        0.897768 
        3.58146         7.40704        0.888087 
        3.59719         7.34011        0.878527 
        3.61292         7.28069        0.869112 
        3.62859         7.23411        0.859871 
        3.64429          7.1831        0.850747 
        3.66003         7.12968        0.841727 
        3.67578          7.0716        0.832843 
        3.69146         7.02897         0.82412 
        3.70712         6.97916        0.815539 
        3.72284          6.9055        0.807049 
        3.73853         6.87617        0.798695 
        3.75422         6.81326        0.790456 
        3.76993         6.77222        0.782327 
        3.78564         6.73281        0.774315 
        3.80137          6.6961        0.766404 
        3.81707         6.60876         0.75862 
        3.83279         6.59124        0.750938 
        3.84853         6.52779         0.74335 
        3.86424         6.46716        0.735883 
        3.87992         6.43795        0.728529 
        3.89561         6.40755        0.721276 
        3.91134         6.34385        0.714108 
        3.92704         6.30214        0.707045 
        3.94273         6.25161        0.700085 
        3.95845         6.22475        0.693207 
        3.97418         6.16476        0.686419 
        3.98988         6.12136        0.679733 
        4.00554          6.0857        0.673153 
        4.02125         6.02861        0.666643 
        4.03698         6.00446        0.660208 
        4.05268         5.93474        0.653874 
        4.06839         5.89491        0.647618 
         4.0841         5.85556        0.641446 
        4.09983         5.81652        0.635347 
        4.11555         5.76239        0.629329 
        4.13124         5.72516        0.623406 
        4.14693         5.70282        0.617555 
        4.16266         5.65875        0.611765 
        4.17839         5.62789        0.606054 
        4.19408         5.58142        0.600428 
        4.20977         5.53973        0.594872 
        4.22551         5.49914        0.589373 
        4.24123         5.45203        0.583949 
        4.25691          5.4203        0.578609 
        4.27259         5.37578        0.573334 
        4.28831         5.32502        0.568114 
        4.30404         5.29505        0.562954 
        4.31974         5.25749        0.557871 
        4.33543         5.21975        0.552853 
        4.35116         5.19181        0.547884 
        4.36688         5.15601        0.542979 
        4.38255         5.12105        0.538153 
        4.39825         5.08684        0.533375 
        4.41398         5.05852        0.528646 
         4.4297         5.02694        0.523979 
        4.44541         4.98741        0.519369 
        4.46111         4.95528        0.514819 
        4.47683         4.90961         0.51032 
        4.49251         4.88897        0.505884 
        4.50819         4.85491        0.501503 
         4.5239         4.82486        0.497167 
        4.53962         4.77643        0.492877 
        4.55535          4.7561        0.488636 
        4.57106         4.72584        0.484451 
        4.58678         4.68218        0.480314 
         4.6025         4.66941        0.476225 
        4.61821         4.61838        0.472184 
        4.63391         4.58357        0.468196 
         4.6496          4.5554        0.464255 
        4.66532         4.52488        0.460354 
        4.68103         4.50495        0.456499 
        4.69673         4.47973        0.452692 
        4.71241         4.44222        0.448933 
        4.72811         4.42077        0.445211 
        4.74384         4.38941        0.441526 
        4.75955          4.3537        0.437888 
        4.77525         4.32227        0.434294 
        4.79096         4.30693        0.430735 
        4.80669          4.2737        0.427215 
         4.8224         4.23822        0.423739 
        4.83809         4.21935        0.420304 
        4.85379         4.17513        0.416906 
         4.8695         4.15781        0.413543 
        4.88521         4.13931        0.410219 
        4.90093         4.11109        0.406931 
        4.91663         4.08425        0.403682 
        4.93234         4.05219        0.400464 
        4.94807         4.03503        0.397281 
        4.96377         4.00214        0.394137 
        4.97943         3.97859        0.391035 
        4.99514         3.95837        0.387958 
        5.01086         3.92957        0.384911 
        5.02654         3.90212        0.381906 
        5.04227          3.8736        0.378924 
          5.058         3.86235        0.375972 
        5.07371         3.82832        0.373058 
        5.08942         3.79986        0.370174 
        5.10513         3.77695         0.36732 
        5.12084         3.75507        0.364496 
        5.13656         3.73464        0.361701 
        5.15225         3.71873        0.358941 
        5.16796         3.69263        0.356205 
        5.18369         3.65584        0.353496 
         5.1994         3.63735        0.350819 
        5.21509          3.6127        0.348173 
        5.23079         3.59329        0.345551 
        5.24649         3.57336        0.342958 
        5.26217         3.54306        0.340394 
        5.27788         3.52757        0.337852 
        5.29359         3.51028        0.335336 
        5.30933          3.4923        0.332842 
        5.32504         3.46522        0.330377 
        5.34073         3.44999        0.327941 
        5.35646         3.41859        0.325524 
        5.37218         3.40662        0.323131 
        5.38789         3.38618        0.320766 
        5.40357         3.36131        0.318427 
        5.41929         3.34288        0.316107 
        5.43502         3.32335         0.31381 
         5.4507         3.29095        0.311541 
        5.46639         3.27861        0.309294 
        5.48212           3.258        0.307064 
        5.49786         3.24216        0.304854 
        5.51353         3.22269        0.302676 
        5.52921         3.19829        0.300518 
        5.54495         3.18512        0.298374 
        5.56066         3.16653        0.296254 
        5.57637         3.14639        0.294154 
        5.59207         3.12451        0.292077 
        5.60778         3.11067        0.290019 
        5.62346         3.09043        0.287984 
        5.63916         3.07415        0.285967 
        5.65487         3.04794        0.283968 
         5.6706         3.03872        0.281986 
        5.68633         3.02161        0.280022 
        5.70203         3.00464         0.27808 
        5.71773         2.98186        0.276158 
        5.73344          2.9672        0.274253 
        5.74916         2.95011        0.272364 
        5.76486          2.9365        0.270495 
        5.78054         2.91492        0.268647 
        5.79626         2.89954        0.266811 
          5.812         2.87818        0.264991 
         5.8277         2.86238        0.263193 
        5.84339         2.84664        0.261411 
        5.85911          2.8353        0.259643 
        5.87484         2.81774        0.257892 
        5.89053         2.80242         0.25616 
        5.90623         2.78265        0.254443 
        5.92195           2.773        0.252739 
        5.93767         2.75708        0.251052 
        5.95336          2.7393        0.249383 
        5.96905         2.72516        0.247729 
        5.98476         2.70364        0.246089 
        6.00048         2.69723        0.244463 
        6.01617          2.6715        0.242853 
        6.03185         2.66252        0.241261 
        6.04756         2.64791        0.239678 
        6.06331         2.63517        0.238107 
        6.07903         2.61636        0.236553 
        6.09473         2.60322        0.235014 
        6.11044         2.59166        0.233488 
        6.12616         2.57725        0.231976 
        6.14186         2.56312        0.230478 
        6.15755         2.55125        0.228994 
        6.17326         2.53831        0.227522 
        6.18898         2.51811        0.226062 
        6.20467         2.50773        0.224618 
        6.22036         2.49518        0.223186 
         6.2361         2.48167        0.221763 
         6.2518         2.47088        0.220355 
        6.26748         2.45344        0.218962 
        6.28319         2.44177        0.217577 
        6.29893         2.42882        0.216203 
        6.31463         2.42007        0.214844 
        6.33033         2.40879        0.213496 
        6.34604         2.38976         0.21216 
        6.36177         2.38108        0.210833 
        6.37747         2.36813         0.20952 
