# k  (h/Mpc)    Pcb(k)  (Mpc/h)^3    Pcb_linear(k) (Mpc/h)^3   ShotnoiseSubtracted = true
      0.0200456         18376.3         18699.4 
      0.0350414         14616.6         14236.3 
      0.0492313         10375.7         10605.1 
      0.0637834         8452.26         8908.85 
      0.0800726         6736.52         7188.86 
       0.096163         5452.37         5316.49 
       0.111083         4472.55         4266.07 
       0.126058         3704.79         3785.86 
       0.142273         3258.17         3242.51 
       0.158546         2698.32            2592 
        0.17375         2406.98          2187.9 
       0.188953         2270.15         1980.67 
       0.204907         1960.97         1765.31 
       0.220756         1773.82         1506.85 
        0.23588         1586.18         1312.74 
         0.2514         1435.57         1192.11 
       0.267535         1390.56         1083.83 
       0.283568         1236.44         961.816 
       0.299022         1183.17         858.604 
       0.314451         1226.67         784.837 
       0.330372         1078.65         722.023 
       0.346141         993.584         658.235 
       0.361624         954.579         599.625 
       0.377134         912.212         552.109 
       0.392932          876.69         511.781 
       0.408854         836.918         473.208 
       0.424564         818.192         437.114 
       0.440253         756.674         405.712 
       0.455999         724.354         378.523 
       0.471626         737.809         353.738 
        0.48727         697.871         330.419 
       0.502856         661.445         309.286 
       0.518488         649.259         290.413 
       0.534347         616.555         272.935 
       0.550082         590.199         256.811 
       0.565732         584.173         241.975 
       0.581496         572.037         228.349 
       0.597222         557.503         215.861 
       0.612804         545.973         204.378 
       0.628434         523.304         193.649 
       0.644267         507.214          183.59 
       0.660051         500.691         174.314 
       0.675724         492.002         165.741 
       0.691403         479.426         157.741 
       0.707174         463.205         150.227 
       0.722871         455.597         143.234 
        0.73838         449.411         136.763 
       0.754018         435.762         130.645 
       0.769845         431.293         124.836 
        0.78569         422.956         119.376 
       0.801365         409.057           114.3 
       0.817031         405.103         109.524 
       0.832809         399.486         104.993 
       0.848511         390.934         100.741 
       0.864097         382.415         96.7563 
       0.879701         379.085         92.9852 
       0.895507         366.131         89.3723 
       0.911279          359.95         85.9607 
        0.92691         356.596         82.7571 
       0.942635         353.772         79.7005 
       0.958396         341.546         76.7931 
       0.974128         338.132         74.0374 
       0.989692         326.057         71.4453 
        1.00528         325.543         68.9746 
        1.02113         319.664          66.583 
        1.03692         313.879         64.3145 
        1.05264         308.857         62.1631 
        1.06832         305.824         60.1143 
        1.08405          300.43         58.1532 
        1.09979         296.232         56.2791 
        1.11537         288.344         54.5068 
        1.13105          284.85          52.801 
        1.14679         281.285         51.1621 
        1.16256         278.835         49.5902 
        1.17828         274.414         48.0901 
        1.19395         267.561         46.6575 
         1.2097         267.234         45.2765 
        1.22537         262.399         43.9585 
          1.241         256.902         42.6974 
        1.25666           254.3          41.483 
        1.27241         249.925         40.3105 
        1.28819         246.052         39.1817 
        1.30392          243.92         38.0997 
        1.31957         237.471         37.0637 
        1.33529         234.712         36.0628 
        1.35108         233.273         35.0951 
        1.36674         227.582         34.1701 
         1.3824         225.965         33.2795 
        1.39811          223.46          32.418 
        1.41389         217.129         31.5838 
        1.42964         215.492         30.7807 
        1.44531         212.916         30.0095 
        1.46101         209.501         29.2634 
        1.47667         206.654          28.545 
        1.49229         203.952         27.8528 
        1.50793          200.99          27.183 
        1.52367         198.586          26.531 
        1.53953         193.929         25.8961 
        1.55526         193.374         25.2873 
        1.57092         191.309         24.7007 
        1.58662         186.684         24.1314 
        1.60235         184.745          23.579 
        1.61809         182.064         23.0438 
        1.63369         179.058         22.5301 
        1.64941          177.37         22.0284 
        1.66519         174.872         21.5403 
        1.68085         171.957         21.0706 
        1.69652         169.813         20.6148 
        1.71228         167.476           20.17 
        1.72806         165.495          19.738 
        1.74368         163.828         19.3232 
        1.75933         162.149         18.9194 
        1.77505         159.454         18.5254 
        1.79081         156.222          18.142 
         1.8065         154.634         17.7712 
        1.82218         152.062         17.4111 
        1.83797         151.296         17.0586 
        1.85367         148.877         16.7178 
        1.86928         146.669         16.3885 
        1.88497         145.318         16.0662 
        1.90073         143.662         15.7515 
        1.91647         141.071         15.4456 
        1.93218         139.655         15.1485 
        1.94787         137.485         14.8597 
        1.96363         136.751         14.5773 
        1.97935          134.65         14.3028 
        1.99499         133.329         14.0371 
        2.01064          130.54         13.7777 
         2.0264         129.332         13.5233 
        2.04216         127.559         13.2755 
        2.05781         125.972         13.0355 
        2.07353         124.158         12.8006 
        2.08928         122.867          12.571 
        2.10499         121.424         12.3476 
        2.12065         120.401         12.1304 
        2.13633         119.117         11.9183 
        2.15211         117.073         11.7099 
        2.16785          115.41         11.5071 
        2.18349         113.944         11.3104 
        2.19916         112.932         11.1179 
        2.21489         111.772         10.9293 
        2.23063         109.795         10.7449 
         2.2463         108.864         10.5657 
        2.26194         107.496          10.391 
        2.27765         106.152         10.2193 
        2.29341         105.079         10.0511 
        2.30914         103.907         9.88712 
        2.32486          101.97         9.72687 
        2.34061         101.362         9.56991 
        2.35635         100.018         9.41658 
        2.37203         98.4359         9.26716 
        2.38768         97.5881          9.1213 
        2.40339         96.7304         8.97807 
        2.41914         94.9839         8.83759 
        2.43483         94.2399         8.70063 
         2.4505         93.2877         8.56682 
        2.46622         92.0411         8.43538 
        2.48195          91.069          8.3067 
        2.49759         89.9027          8.1814 
        2.51328         89.1929         8.05837 
        2.52906         87.4349         7.93711 
        2.54479         86.5918          7.8188 
        2.56049         85.4854         7.70315 
        2.57618         84.3969         7.58994 
        2.59189         84.2031         7.47886 
        2.60758         82.3434         7.37018 
        2.62325         82.1726          7.2638 
        2.63898         81.0645         7.15916 
        2.65468         80.0396         7.05681 
        2.67044         78.8771         6.95603 
        2.68618         78.3748         6.85746 
        2.70184         77.0817         6.76121 
        2.71755         76.3195         6.66657 
        2.73329         75.2298          6.5736 
        2.74897         74.9052         6.48272 
        2.76462         73.8054         6.39376 
        2.78034          72.773         6.30612 
        2.79607         72.1911         6.22003 
        2.81179         71.4871         6.13565 
        2.82749         70.8994         6.05294 
        2.84321         70.0049         5.97167 
        2.85893         69.2385         5.89193 
        2.87462         68.3858         5.81378 
        2.89033         67.7462         5.73698 
        2.90605         67.2717         5.66151 
        2.92176         66.1684         5.58744 
        2.93747         65.5786         5.51474 
        2.95318         64.7559         5.44333 
        2.96891         64.1751         5.37315 
        2.98456         63.5191         5.30452 
        3.00023         62.7312           5.237 
        3.01596         62.3443         5.17045 
        3.03164         61.5187         5.10525 
        3.04738         60.9597         5.04098 
         3.0631         60.0807         4.97785 
        3.07883          59.555         4.91581 
        3.09456         58.9371         4.85483 
        3.11026         58.2218         4.79499 
        3.12596         57.7735         4.73616 
        3.14163         57.1132         4.67847 
        3.15734         56.4859          4.6216 
        3.17308         55.8958         4.56554 
        3.18879          55.205         4.51058 
        3.20447         54.9119          4.4566 
         3.2202          54.167         4.40334 
         3.2359         53.5795         4.35105 
        3.25157         53.1534         4.29973 
        3.26729         52.4355         4.24909 
        3.28304         52.0321         4.19917 
        3.29877         51.4553         4.15012 
        3.31446         51.0282         4.10197 
        3.33014         50.4896         4.05462 
        3.34585         49.8659         4.00795 
        3.36158         49.3977         3.96195 
        3.37727          49.009         3.91682 
        3.39294         48.6178         3.87244 
        3.40867         48.1323         3.82858 
        3.42439         47.5221         3.78543 
        3.44008         47.0928         3.74304 
        3.45578         46.6245         3.70126 
        3.47153         46.1453         3.66003 
        3.48724         45.6336          3.6195 
        3.50292         45.0958         3.57969 
        3.51859         44.8289         3.54049 
        3.53431         44.1488         3.50177 
        3.55007         43.9018         3.46353 
        3.56577         43.4788         3.42601 
        3.58146         42.9758         3.38907 
        3.59719         42.5914         3.35258 
        3.61292         42.1347         3.31665 
        3.62859         41.8836         3.28139 
        3.64429         41.5314         3.24657 
        3.66003          41.026         3.21215 
        3.67578         40.7155         3.17824 
        3.69146         40.3213         3.14496 
        3.70712          39.934         3.11221 
        3.72284         39.4859         3.07981 
        3.73853         39.1913         3.04793 
        3.75422         38.8131         3.01649 
        3.76993         38.5407         2.98547 
        3.78564         38.1795          2.9549 
        3.80137         37.7399          2.9247 
        3.81707         37.3535           2.895 
        3.83279         37.0509         2.86568 
        3.84853         36.6829         2.83673 
        3.86424         36.3809         2.80823 
        3.87992           36.11         2.78017 
        3.89561         35.8361         2.75249 
        3.91134         35.5478         2.72514 
        3.92704         35.0899         2.69818 
        3.94273         34.8238         2.67162 
        3.95845         34.4933         2.64537 
        3.97418         34.1673         2.61947 
        3.98988         33.8029         2.59396 
        4.00554          33.532         2.56885 
        4.02125         33.2724           2.544 
        4.03698          32.983         2.51945 
        4.05268          32.776         2.49527 
        4.06839         32.3014          2.4714 
         4.0841         32.1873         2.44785 
        4.09983         31.7975         2.42457 
        4.11555         31.5345         2.40161 
        4.13124         31.3166         2.37901 
        4.14693         31.0199         2.35668 
        4.16266         30.6463         2.33458 
        4.17839         30.4823         2.31279 
        4.19408         30.1939         2.29132 
        4.20977         29.9262         2.27011 
        4.22551         29.7611         2.24913 
        4.24123         29.4289         2.22843 
        4.25691         29.1592         2.20805 
        4.27259         28.9185         2.18792 
        4.28831         28.6834           2.168 
        4.30404         28.3856         2.14831 
        4.31974         28.1547         2.12891 
        4.33543         27.9574         2.10976 
        4.35116         27.7174          2.0908 
        4.36688         27.4721         2.07209 
        4.38255         27.3007         2.05367 
        4.39825         26.9745         2.03543 
        4.41398         26.8292         2.01739 
         4.4297         26.5317         1.99958 
        4.44541         26.3983         1.98199 
        4.46111         26.1782         1.96462 
        4.47683          25.893         1.94745 
        4.49251         25.7334         1.93053 
        4.50819          25.508          1.9138 
         4.5239         25.2197         1.89726 
        4.53962         25.1036         1.88089 
        4.55535         24.8514          1.8647 
        4.57106         24.6439         1.84873 
        4.58678         24.4563         1.83295 
         4.6025          24.223         1.81734 
        4.61821           24.03         1.80192 
        4.63391         23.8173          1.7867 
         4.6496         23.6434         1.77166 
        4.66532         23.4064         1.75677 
        4.68103         23.2305         1.74206 
        4.69673         23.0692         1.72754 
        4.71241         22.8897         1.71319 
        4.72811         22.6927         1.69899 
        4.74384         22.5233         1.68492 
        4.75955          22.336         1.67104 
        4.77525          22.187         1.65732 
        4.79096         21.9878         1.64375 
        4.80669         21.8585         1.63031 
         4.8224         21.6603         1.61705 
        4.83809         21.4556         1.60394 
        4.85379         21.2734         1.59097 
         4.8695         21.1131         1.57814 
        4.88521         20.9379         1.56545 
        4.90093         20.8481          1.5529 
        4.91663         20.6233         1.54051 
        4.93234         20.4426         1.52823 
        4.94807         20.3354         1.51608 
        4.96377         20.1259         1.50408 
        4.97943         19.9935         1.49224 
        4.99514         19.8155          1.4805 
        5.01086         19.6712         1.46888 
        5.02654         19.5491         1.45741 
        5.04227         19.3855         1.44603 
          5.058         19.2299         1.43476 
        5.07371         19.1209         1.42364 
        5.08942         18.9253         1.41263 
        5.10513         18.8073         1.40175 
        5.12084          18.636         1.39097 
        5.13656         18.4956          1.3803 
        5.15225         18.3182         1.36977 
        5.16796         18.2339         1.35933 
        5.18369         18.0962         1.34899 
         5.1994          17.972         1.33877 
        5.21509         17.8325         1.32868 
        5.23079         17.7249         1.31867 
        5.24649         17.5985         1.30878 
        5.26217         17.3921         1.29899 
        5.27788         17.2759         1.28929 
        5.29359         17.1955         1.27969 
        5.30933         17.0042         1.27017 
        5.32504         16.8708         1.26077 
        5.34073         16.7739         1.25147 
        5.35646         16.6542         1.24224 
        5.37218         16.5184         1.23311 
        5.38789         16.4284         1.22409 
        5.40357         16.2905         1.21516 
        5.41929         16.1776         1.20631 
        5.43502         16.0213         1.19754 
         5.4507         15.9389         1.18888 
        5.46639         15.8235         1.18031 
        5.48212         15.6927          1.1718 
        5.49786         15.5739         1.16337 
        5.51353         15.4815         1.15505 
        5.52921         15.3436         1.14682 
        5.54495         15.2261         1.13864 
        5.56066         15.1433         1.13055 
        5.57637         15.0241         1.12253 
        5.59207         14.8868         1.11461 
        5.60778         14.8062         1.10675 
        5.62346         14.7225         1.09899 
        5.63916         14.5702         1.09129 
        5.65487         14.5033         1.08366 
         5.6706         14.3806          1.0761 
        5.68633         14.2801          1.0686 
        5.70203         14.1631         1.06119 
        5.71773         14.0744         1.05386 
        5.73344         13.9806         1.04659 
        5.74916         13.8731         1.03938 
        5.76486         13.7832         1.03225 
        5.78054          13.664          1.0252 
        5.79626         13.5826         1.01819 
          5.812         13.4934         1.01124 
         5.8277         13.4104         1.00438 
        5.84339         13.2803        0.997583 
        5.85911         13.2136        0.990835 
        5.87484         13.1284         0.98415 
        5.89053         13.0366        0.977541 
        5.90623         12.9083         0.97099 
        5.92195         12.8323        0.964488 
        5.93767         12.7646        0.958049 
        5.95336         12.6894        0.951679 
        5.96905         12.5844         0.94537 
        5.98476         12.5164         0.93911 
        6.00048         12.4165        0.932904 
        6.01617         12.3309        0.926763 
        6.03185         12.2404        0.920684 
        6.04756         12.1593        0.914646 
        6.06331         12.0319         0.90865 
        6.07903         11.9738        0.902719 
        6.09473         11.9022        0.896848 
        6.11044         11.8156        0.891023 
        6.12616         11.7313        0.885252 
        6.14186         11.6583        0.879537 
        6.15755         11.5848        0.873873 
        6.17326         11.5127        0.868255 
        6.18898         11.4153        0.862684 
        6.20467         11.3456        0.857172 
        6.22036         11.2782        0.851709 
         6.2361         11.1994        0.846278 
         6.2518         11.1533        0.840904 
        6.26748         11.0566        0.835589 
        6.28319         10.9901        0.830305 
        6.29893         10.8922        0.825062 
        6.31463          10.838        0.819874 
        6.33033         10.7547        0.814732 
        6.34604         10.6893         0.80963 
        6.36177         10.6102        0.804568 
        6.37747           10.54        0.799558 
