# k  (h/Mpc)    Pcb(k)  (Mpc/h)^3    Pcb_linear(k) (Mpc/h)^3   ShotnoiseSubtracted = true
      0.0200456           15127         15379.5 
      0.0350414         12005.9         11708.7 
      0.0492313         8571.67         8722.28 
      0.0637834         6991.88         7327.16 
      0.0800726         5580.75         5912.54 
       0.096163         4483.88         4372.59 
       0.111083         3675.62         3508.66 
       0.126058         3052.54         3113.71 
       0.142273         2671.67         2666.83 
       0.158546         2213.98         2131.81 
        0.17375         1960.59         1799.45 
       0.188953         1834.96         1629.02 
       0.204907         1581.45         1451.89 
       0.220756         1427.33         1239.32 
        0.23588         1274.53         1079.67 
         0.2514         1148.25         980.458 
       0.267535         1115.46         891.408 
       0.283568         985.198         791.054 
       0.299022         942.891         706.165 
       0.314451         969.435         645.496 
       0.330372          842.28         593.833 
       0.346141         778.729         541.371 
       0.361624         747.503         493.167 
       0.377134         709.364         454.087 
       0.392932         685.163         420.919 
       0.408854         652.705         389.193 
       0.424564         635.274         359.508 
       0.440253         582.107         333.681 
       0.455999         557.926         311.319 
       0.471626         566.891         290.935 
        0.48727         536.742         271.756 
       0.502856         500.807         254.375 
       0.518488         497.927         238.852 
       0.534347         466.842         224.477 
       0.550082         449.737         211.217 
       0.565732         446.433         199.014 
       0.581496         434.007         187.807 
       0.597222         421.757         177.537 
       0.612804         412.675         168.092 
       0.628434         395.676         159.269 
       0.644267         381.219         150.995 
       0.660051         375.591         143.366 
       0.675724         370.761         136.315 
       0.691403         360.965         129.736 
       0.707174         347.844         123.555 
       0.722871         342.319         117.804 
        0.73838          338.53         112.482 
       0.754018         325.368          107.45 
       0.769845         323.479         102.672 
        0.78569         316.904         98.1821 
       0.801365         308.125         94.0066 
       0.817031         302.581         90.0787 
       0.832809         298.404         86.3523 
       0.848511         290.845         82.8554 
       0.864097           284.3          79.578 
       0.879701          282.34         76.4764 
       0.895507         274.543          73.505 
       0.911279         267.359         70.6991 
        0.92691         265.275         68.0642 
       0.942635         263.349         65.5503 
       0.958396         255.935         63.1591 
       0.974128         252.065         60.8927 
       0.989692         243.475         58.7608 
        1.00528           242.8         56.7287 
        1.02113         239.094         54.7617 
        1.03692         233.626          52.896 
        1.05264         230.163         51.1266 
        1.06832         229.615         49.4415 
        1.08405         223.066         47.8285 
        1.09979         221.849         46.2872 
        1.11537         216.702         44.8296 
        1.13105          213.27         43.4266 
        1.14679          211.17         42.0787 
        1.16256         208.473         40.7859 
        1.17828         205.824         39.5521 
        1.19395         200.147         38.3739 
         1.2097         199.703         37.2381 
        1.22537         197.888         36.1541 
          1.241         193.238         35.1168 
        1.25666         190.371          34.118 
        1.27241         186.409         33.1537 
        1.28819         184.759         32.2253 
        1.30392         181.656         31.3354 
        1.31957         177.875         30.4834 
        1.33529         175.916         29.6601 
        1.35108         173.838         28.8642 
        1.36674         171.052         28.1035 
         1.3824         169.619          27.371 
        1.39811         166.051         26.6624 
        1.41389         163.873         25.9764 
        1.42964         161.422         25.3158 
        1.44531         159.593         24.6816 
        1.46101         156.464         24.0679 
        1.47667         155.796         23.4771 
        1.49229         153.222         22.9078 
        1.50793         150.537         22.3569 
        1.52367          149.04         21.8206 
        1.53953         146.144         21.2985 
        1.55526          145.63         20.7977 
        1.57092         143.427         20.3153 
        1.58662         140.395          19.847 
        1.60235         138.842         19.3928 
        1.61809         137.026         18.9526 
        1.63369         135.346           18.53 
        1.64941         134.404         18.1174 
        1.66519         131.884          17.716 
        1.68085         129.995         17.3297 
        1.69652         128.645         16.9548 
        1.71228          127.58          16.589 
        1.72806         125.585         16.2337 
        1.74368         123.782         15.8925 
        1.75933         122.698         15.5605 
        1.77505         120.328         15.2364 
        1.79081         119.085         14.9211 
         1.8065          116.96         14.6161 
        1.82218         115.646         14.3199 
        1.83797         115.291           14.03 
        1.85367          112.94         13.7497 
        1.86928          112.39         13.4788 
        1.88497         110.544         13.2138 
        1.90073         109.562          12.955 
        1.91647         107.706         12.7034 
        1.93218         106.378          12.459 
        1.94787         104.924         12.2214 
        1.96363         103.995         11.9892 
        1.97935         102.847         11.7635 
        1.99499          101.84         11.5449 
        2.01064         99.6107         11.3316 
         2.0264         98.9146         11.1223 
        2.04216         97.0373         10.9185 
        2.05781         96.4388         10.7211 
        2.07353         95.0629         10.5279 
        2.08928         93.7648         10.3391 
        2.10499          92.594         10.1554 
        2.12065         92.2911         9.97679 
        2.13633         90.9933         9.80232 
        2.15211         89.5698         9.63092 
        2.16785         88.2451         9.46412 
        2.18349         87.0286         9.30233 
        2.19916         86.2814         9.14401 
        2.21489         85.0383         8.98887 
        2.23063         84.1347         8.83724 
         2.2463         83.5366         8.68981 
        2.26194         82.3204         8.54612 
        2.27765         81.3529         8.40497 
        2.29341         80.4738         8.26665 
        2.30914         79.4321         8.13174 
        2.32486         77.7119         7.99994 
        2.34061          77.384         7.87085 
        2.35635         76.4217         7.74474 
        2.37203         75.4029         7.62185 
        2.38768         74.6195         7.50188 
        2.40339         73.7025         7.38408 
        2.41914         72.8173         7.26855 
        2.43483         72.1969         7.15591 
         2.4505         71.0466         7.04585 
        2.46622          70.554         6.93774 
        2.48195         69.5636         6.83191 
        2.49759         68.7222         6.72886 
        2.51328         67.9508         6.62767 
        2.52906         67.0169         6.52794 
        2.54479         66.3296         6.43064 
        2.56049         65.6101         6.33552 
        2.57618         64.6328         6.24241 
        2.59189         64.2767         6.15105 
        2.60758         63.3383         6.06166 
        2.62325         62.6566         5.97417 
        2.63898         61.8925         5.88811 
        2.65468         61.3251         5.80393 
        2.67044         60.7021         5.72104 
        2.68618          59.995         5.63998 
        2.70184         59.1156         5.56081 
        2.71755         58.5191         5.48297 
        2.73329         58.0305         5.40651 
        2.74897         57.5812         5.33176 
        2.76462         56.9479          5.2586 
        2.78034         56.2131         5.18652 
        2.79607         55.3276         5.11571 
        2.81179         54.7396         5.04632 
        2.82749         54.3653         4.97829 
        2.84321         53.9102         4.91145 
        2.85893         53.2044         4.84586 
        2.87462         52.4684         4.78159 
        2.89033         51.8746         4.71842 
        2.90605         51.3395         4.65635 
        2.92176         50.8101         4.59544 
        2.93747         50.1918         4.53564 
        2.95318         49.8431         4.47691 
        2.96891         49.1818         4.41919 
        2.98456         48.7367         4.36275 
        3.00023         48.0178         4.30721 
        3.01596          47.668         4.25248 
        3.03164         47.1357         4.19885 
        3.04738         46.6848           4.146 
         3.0631         46.1658         4.09408 
        3.07883         45.7235         4.04304 
        3.09456         45.1176          3.9929 
        3.11026         44.6117         3.94368 
        3.12596         44.2073          3.8953 
        3.14163         43.8698         3.84784 
        3.15734         43.3409         3.80107 
        3.17308         43.0916         3.75497 
        3.18879         42.5523         3.70976 
        3.20447         42.0108         3.66536 
         3.2202         41.6246         3.62156 
         3.2359         41.2911         3.57855 
        3.25157         40.7182         3.53635 
        3.26729         40.4052          3.4947 
        3.28304         39.9886         3.45364 
        3.29877          39.459          3.4133 
        3.31446         39.2068          3.3737 
        3.33014         38.7833         3.33476 
        3.34585         38.2875         3.29637 
        3.36158         37.9792         3.25854 
        3.37727         37.5543         3.22142 
        3.39294         37.1337         3.18492 
        3.40867         36.8745         3.14885 
        3.42439         36.4354         3.11336 
        3.44008         36.1303         3.07849 
        3.45578          35.743         3.04413 
        3.47153         35.5156         3.01022 
        3.48724         35.0737         2.97689 
        3.50292         34.7851         2.94414 
        3.51859         34.4898         2.91191 
        3.53431         34.1155         2.88006 
        3.55007         33.6652          2.8486 
        3.56577         33.4703         2.81775 
        3.58146         33.1246         2.78736 
        3.59719         32.7372         2.75736 
        3.61292         32.5408         2.72781 
        3.62859         32.0968          2.6988 
        3.64429         31.9072         2.67017 
        3.66003         31.5836         2.64186 
        3.67578          31.291         2.61397 
        3.69146         31.1079          2.5866 
        3.70712         30.6488         2.55966 
        3.72284         30.4553         2.53302 
        3.73853         30.2258         2.50679 
        3.75422         29.9289         2.48094 
        3.76993         29.5999         2.45542 
        3.78564         29.3291         2.43028 
        3.80137         29.1032         2.40545 
        3.81707         28.7822         2.38102 
        3.83279         28.4707          2.3569 
        3.84853         28.2755         2.33309 
        3.86424         27.8563         2.30965 
        3.87992         27.7108         2.28657 
        3.89561         27.5242         2.26381 
        3.91134         27.2906         2.24131 
        3.92704         26.9238         2.21914 
        3.94273         26.6657          2.1973 
        3.95845         26.5416         2.17571 
        3.97418          26.228         2.15441 
        3.98988         25.9695         2.13342 
        4.00554         25.6886         2.11277 
        4.02125         25.5478         2.09233 
        4.03698          25.346         2.07214 
        4.05268         25.0499         2.05226 
        4.06839         24.8235         2.03262 
         4.0841         24.7151         2.01325 
        4.09983          24.347         1.99411 
        4.11555         24.1766         1.97522 
        4.13124         24.0762         1.95663 
        4.14693         23.7847         1.93827 
        4.16266         23.5428          1.9201 
        4.17839         23.4627         1.90217 
        4.19408         23.1402         1.88451 
        4.20977         22.9881         1.86707 
        4.22551         22.7983         1.84981 
        4.24123         22.5815         1.83279 
        4.25691         22.3935         1.81603 
        4.27259         22.1979         1.79947 
        4.28831         22.0042         1.78309 
        4.30404         21.7739          1.7669 
        4.31974         21.5686         1.75094 
        4.33543         21.4654         1.73519 
        4.35116         21.2593          1.7196 
        4.36688         21.0896          1.7042 
        4.38255          20.891         1.68905 
        4.39825         20.7306         1.67406 
        4.41398         20.5346         1.65921 
         4.4297         20.3645         1.64457 
        4.44541         20.1284          1.6301 
        4.46111         19.9817         1.61582 
        4.47683         19.8028          1.6017 
        4.49251         19.7302         1.58778 
        4.50819         19.5426         1.57402 
         4.5239         19.3649         1.56042 
        4.53962         19.2201         1.54695 
        4.55535           19.06         1.53364 
        4.57106         18.9042          1.5205 
        4.58678         18.7276         1.50752 
         4.6025         18.5374         1.49469 
        4.61821         18.4414           1.482 
        4.63391         18.2841         1.46949 
         4.6496         18.1233         1.45712 
        4.66532         17.9824         1.44487 
        4.68103         17.8319         1.43278 
        4.69673         17.6742         1.42083 
        4.71241         17.5801         1.40903 
        4.72811         17.4074         1.39734 
        4.74384         17.2413         1.38578 
        4.75955         17.1323         1.37436 
        4.77525         16.9954         1.36308 
        4.79096         16.8311         1.35191 
        4.80669         16.7072         1.34086 
         4.8224         16.5619         1.32995 
        4.83809         16.4372         1.31917 
        4.85379          16.336         1.30851 
         4.8695         16.2018         1.29795 
        4.88521         16.0607         1.28752 
        4.90093         15.9327          1.2772 
        4.91663         15.7999           1.267 
        4.93234         15.6509          1.2569 
        4.94807         15.5686         1.24691 
        4.96377         15.4561         1.23704 
        4.97943         15.3134         1.22731 
        4.99514         15.2126         1.21765 
        5.01086         15.1173         1.20809 
        5.02654           14.96         1.19866 
        5.04227         14.8367          1.1893 
          5.058         14.7427         1.18003 
        5.07371         14.6159         1.17088 
        5.08942         14.5269         1.16183 
        5.10513         14.4147         1.15288 
        5.12084         14.2802         1.14401 
        5.13656         14.1969         1.13524 
        5.15225         14.0657         1.12658 
        5.16796         13.9374         1.11799 
        5.18369         13.8544         1.10949 
         5.1994          13.739         1.10109 
        5.21509          13.667         1.09278 
        5.23079         13.5531         1.08455 
        5.24649         13.4631         1.07641 
        5.26217         13.3261         1.06836 
        5.27788         13.2275         1.06039 
        5.29359         13.1333         1.05249 
        5.30933         13.0735         1.04466 
        5.32504         12.9493         1.03693 
        5.34073         12.8719         1.02928 
        5.35646         12.7509         1.02169 
        5.37218         12.6691         1.01418 
        5.38789         12.5568         1.00676 
        5.40357         12.4854        0.999421 
        5.41929          12.393        0.992139 
        5.43502          12.296        0.984928 
         5.4507         12.2069        0.977807 
        5.46639         12.1029        0.970755 
        5.48212         12.0099        0.963757 
        5.49786          11.961        0.956819 
        5.51353          11.856        0.949984 
        5.52921          11.785         0.94321 
        5.54495         11.7001        0.936481 
        5.56066         11.6115        0.929826 
        5.57637         11.5395        0.923237 
        5.59207         11.4319        0.916718 
        5.60778         11.3375        0.910259 
        5.62346         11.2541        0.903872 
        5.63916         11.1839         0.89754 
        5.65487         11.1172        0.891265 
         5.6706         11.0354        0.885044 
        5.68633         10.9403         0.87888 
        5.70203          10.875        0.872787 
        5.71773         10.7918        0.866754 
        5.73344         10.7365        0.860774 
        5.74916         10.6579        0.854845 
        5.76486          10.595        0.848981 
        5.78054         10.5049        0.843181 
        5.79626         10.4507        0.837419 
          5.812         10.3396        0.831705 
         5.8277         10.2754        0.826061 
        5.84339         10.1894         0.82047 
        5.85911         10.1328         0.81492 
        5.87484         10.0616        0.809422 
        5.89053         9.99235        0.803987 
        5.90623         9.92924        0.798599 
        5.92195         9.86644        0.793251 
        5.93767         9.79264        0.787955 
        5.95336         9.71197        0.782716 
        5.96905          9.6542        0.777527 
        5.98476         9.60055        0.772378 
        6.00048           9.524        0.767274 
        6.01617         9.44059        0.762223 
        6.03185         9.41017        0.757224 
        6.04756         9.33335        0.752258 
        6.06331         9.28785        0.747326 
        6.07903         9.19908        0.742449 
        6.09473         9.13972         0.73762 
        6.11044         9.08244        0.732829 
        6.12616         9.03759        0.728082 
        6.14186         8.96095        0.723382 
        6.15755         8.91185        0.718724 
        6.17326         8.83587        0.714104 
        6.18898          8.7835        0.709522 
        6.20467         8.72132        0.704988 
        6.22036         8.66671        0.700495 
         6.2361         8.60968        0.696028 
         6.2518          8.5662        0.691609 
        6.26748         8.50424        0.687237 
        6.28319         8.45823        0.682891 
        6.29893         8.39273        0.678579 
        6.31463         8.33869        0.674312 
        6.33033         8.26463        0.670083 
        6.34604         8.22294        0.665887 
        6.36177         8.17964        0.661723 
        6.37747         8.11018        0.657603 
