# k  (h/Mpc)    Pcb(k)  (Mpc/h)^3    Pcb_linear(k) (Mpc/h)^3   ShotnoiseSubtracted = true
      0.0200456         1875.62         1904.61 
      0.0350414         1435.23         1450.02 
      0.0492313         1081.84         1080.17 
      0.0637834         917.061         907.401 
      0.0800726         738.365         732.213 
       0.096163         537.598         541.505 
       0.111083         429.105         434.516 
       0.126058         387.973         385.605 
       0.142273         334.513         330.262 
       0.158546         269.958         264.005 
        0.17375         223.084         222.846 
       0.188953         206.265         201.739 
       0.204907          190.54         179.803 
       0.220756         160.121         153.478 
        0.23588         139.789         133.708 
         0.2514         125.087         121.421 
       0.267535         115.497         110.393 
       0.283568         103.756         97.9647 
       0.299022         94.1378         87.4521 
       0.314451         84.4107         79.9387 
       0.330372         78.6556         73.5408 
       0.346141         71.6505         67.0438 
       0.361624         66.4171         61.0741 
       0.377134         62.3779         56.2344 
       0.392932         55.5122         52.1269 
       0.408854         53.5118          48.198 
       0.424564         50.2361         44.5218 
       0.440253         46.3164         41.3234 
       0.455999         43.7855          38.554 
       0.471626         41.0763         36.0296 
        0.48727         38.9877         33.6545 
       0.502856         36.5124          31.502 
       0.518488         34.9419         29.5797 
       0.534347          33.502         27.7995 
       0.550082         30.6838         26.1572 
       0.565732         28.5652         24.6461 
       0.581496         28.0194         23.2582 
       0.597222         27.0386         21.9863 
       0.612804         25.2209         20.8167 
       0.628434         24.3185         19.7239 
       0.644267         23.6045         18.6993 
       0.660051         22.3403         17.7545 
       0.675724           21.21         16.8814 
       0.691403         20.5379         16.0666 
       0.707174         19.7435         15.3012 
       0.722871         18.9546         14.5889 
        0.73838         18.2812         13.9298 
       0.754018         17.6119         13.3067 
       0.769845         16.9354          12.715 
        0.78569         16.4099          12.159 
       0.801365         15.7697         11.6418 
       0.817031         15.3277         11.1554 
       0.832809         14.9653         10.6939 
       0.848511         14.0627         10.2609 
       0.864097         13.7494           9.855 
       0.879701         13.3533          9.4709 
       0.895507         12.8337         9.10291 
       0.911279         12.6046         8.75543 
        0.92691         12.2091         8.42912 
       0.942635         11.6887          8.1178 
       0.958396         11.3807         7.82168 
       0.974128         11.0943           7.541 
       0.989692         10.9693         7.27698 
        1.00528         10.5822         7.02533 
        1.02113         10.1656         6.78173 
        1.03692         9.96946         6.55068 
        1.05264         9.70778         6.33155 
        1.06832         9.49516         6.12287 
        1.08405          9.1549         5.92312 
        1.09979         8.95983         5.73224 
        1.11537         8.80562         5.55173 
        1.13105         8.57176         5.37798 
        1.14679          8.4066         5.21106 
        1.16256         8.14617         5.05096 
        1.17828          8.0499         4.89816 
        1.19395         7.78259         4.75225 
         1.2097         7.59029         4.61159 
        1.22537         7.40966         4.47735 
          1.241          7.2953          4.3489 
        1.25666         7.21033          4.2252 
        1.27241         6.97816         4.10578 
        1.28819         6.81654         3.99081 
        1.30392         6.72329          3.8806 
        1.31957         6.58311         3.77508 
        1.33529         6.45976         3.67313 
        1.35108         6.29035         3.57457 
        1.36674          6.2509         3.48035 
         1.3824         6.01998         3.38965 
        1.39811         5.94724         3.30189 
        1.41389         5.85452         3.21693 
        1.42964         5.74996         3.13513 
        1.44531         5.64768         3.05659 
        1.46101         5.53549         2.98059 
        1.47667         5.41791         2.90742 
        1.49229         5.36921         2.83692 
        1.50793         5.22058         2.76869 
        1.52367         5.18717         2.70228 
        1.53953         5.06023         2.63762 
        1.55526          4.9694         2.57561 
        1.57092         4.92431         2.51586 
        1.58662         4.80656         2.45787 
        1.60235          4.7431         2.40161 
        1.61809         4.66335          2.3471 
        1.63369         4.58639         2.29477 
        1.64941         4.51903         2.24368 
        1.66519         4.46217         2.19396 
        1.68085         4.36839         2.14612 
        1.69652         4.29763          2.0997 
        1.71228         4.24298         2.05439 
        1.72806         4.17299          2.0104 
        1.74368         4.10458         1.96814 
        1.75933         4.05834         1.92702 
        1.77505         4.00152         1.88689 
        1.79081         3.92007         1.84784 
         1.8065         3.88216         1.81006 
        1.82218         3.83667         1.77339 
        1.83797         3.79719         1.73748 
        1.85367         3.72869         1.70277 
        1.86928         3.68357         1.66923 
        1.88497         3.62157         1.63641 
        1.90073         3.56524         1.60435 
        1.91647         3.51717         1.57319 
        1.93218         3.49324         1.54293 
        1.94787         3.45193         1.51351 
        1.96363          3.3922         1.48475 
        1.97935         3.34469          1.4568 
        1.99499         3.28391         1.42973 
        2.01064         3.26093         1.40331 
         2.0264         3.22554          1.3774 
        2.04216         3.19072         1.35216 
        2.05781          3.1426         1.32771 
        2.07353         3.10792         1.30379 
        2.08928         3.07875          1.2804 
        2.10499         3.03345         1.25765 
        2.12065         3.01446         1.23553 
        2.13633         2.96391         1.21393 
        2.15211         2.92888          1.1927 
        2.16785         2.89984         1.17204 
        2.18349         2.87048         1.15201 
        2.19916         2.81208          1.1324 
        2.21489         2.79846         1.11319 
        2.23063         2.75823         1.09441 
         2.2463         2.73749         1.07615 
        2.26194         2.69858         1.05836 
        2.27765         2.67792         1.04088 
        2.29341         2.64618         1.02375 
        2.30914         2.61739         1.00704 
        2.32486         2.60064        0.990719 
        2.34061         2.56246        0.974732 
        2.35635         2.52367        0.959115 
        2.37203         2.51718        0.943895 
        2.38768         2.48815        0.929039 
        2.40339         2.46646        0.914451 
        2.41914         2.43397        0.900143 
        2.43483         2.41365        0.886193 
         2.4505         2.37585        0.872564 
        2.46622         2.36958        0.859176 
        2.48195         2.33551        0.846069 
        2.49759         2.31482        0.833307 
        2.51328         2.29092        0.820776 
        2.52906         2.27975        0.808425 
        2.54479         2.24878        0.796375 
        2.56049          2.2284        0.784595 
        2.57618         2.21013        0.773065 
        2.59189         2.20035         0.76175 
        2.60758         2.16351        0.750681 
        2.62325         2.14996        0.739846 
        2.63898         2.12335        0.729188 
        2.65468         2.10737        0.718763 
        2.67044         2.09535        0.708498 
        2.68618         2.06631        0.698459 
        2.70184         2.05161        0.688655 
        2.71755         2.03488        0.679015 
        2.73329         2.01369        0.669546 
        2.74897          2.0005         0.66029 
        2.76462         1.97919        0.651229 
        2.78034         1.97064        0.642302 
        2.79607         1.94328        0.633534 
        2.81179         1.92853         0.62494 
        2.82749         1.91545        0.616515 
        2.84321         1.89905        0.608238 
        2.85893         1.88365        0.600115 
        2.87462         1.86849        0.592155 
        2.89033         1.84344        0.584333 
        2.90605         1.83174        0.576646 
        2.92176         1.82277        0.569102 
        2.93747         1.80535        0.561698 
        2.95318         1.79105        0.554424 
        2.96891         1.77789        0.547276 
        2.98456         1.76465        0.540286 
        3.00023         1.74904        0.533408 
        3.01596          1.7393         0.52663 
        3.03164         1.72692        0.519989 
        3.04738         1.70304        0.513444 
         3.0631         1.69149        0.507013 
        3.07883         1.68318        0.500694 
        3.09456         1.67582        0.494483 
        3.11026         1.65609        0.488388 
        3.12596         1.64579        0.482396 
        3.14163         1.63398         0.47652 
        3.15734         1.62312        0.470728 
        3.17308         1.60824        0.465018 
        3.18879         1.60257         0.45942 
        3.20447           1.586        0.453921 
         3.2202         1.57354        0.448497 
         3.2359         1.56402        0.443171 
        3.25157         1.55436        0.437944 
        3.26729         1.53973        0.432786 
        3.28304         1.53441        0.427702 
        3.29877         1.51732        0.422706 
        3.31446         1.50628        0.417801 
        3.33014         1.50389        0.412979 
        3.34585         1.49123        0.408225 
        3.36158         1.47459         0.40354 
        3.37727         1.47213        0.398943 
        3.39294         1.45718        0.394422 
        3.40867         1.44624        0.389956 
        3.42439         1.43818        0.385561 
        3.44008         1.43026        0.381243 
        3.45578         1.42353        0.376987 
        3.47153         1.40927        0.372788 
        3.48724         1.40017         0.36866 
        3.50292         1.39566        0.364605 
        3.51859          1.3887        0.360613 
        3.53431         1.37671        0.356668 
        3.55007          1.3692        0.352773 
        3.56577         1.35978        0.348952 
        3.58146         1.35266        0.345189 
        3.59719         1.34123        0.341473 
        3.61292          1.3387        0.337814 
        3.62859         1.32495        0.334222 
        3.64429         1.31808        0.330675 
        3.66003         1.30764         0.32717 
        3.67578          1.3001        0.323716 
        3.69146         1.29522        0.320326 
        3.70712         1.28111        0.316991 
        3.72284         1.28055        0.313691 
        3.73853         1.26875        0.310443 
        3.75422         1.26269        0.307241 
        3.76993         1.25719        0.304081 
        3.78564         1.24916        0.300967 
        3.80137         1.23729        0.297892 
        3.81707         1.23433        0.294867 
        3.83279         1.22418        0.291881 
        3.84853         1.21764        0.288932 
        3.86424         1.21157        0.286029 
        3.87992         1.20743        0.283171 
        3.89561         1.19876        0.280352 
        3.91134         1.19139        0.277565 
        3.92704         1.18275         0.27482 
        3.94273         1.17918        0.272115 
        3.95845         1.17089        0.269441 
        3.97418         1.16354        0.266803 
        3.98988          1.1546        0.264204 
        4.00554         1.15041        0.261647 
        4.02125         1.14189        0.259116 
        4.03698         1.13127        0.256615 
        4.05268         1.12375        0.254153 
        4.06839         1.11204        0.251722 
         4.0841         1.10923        0.249323 
        4.09983         1.10135        0.246952 
        4.11555         1.09433        0.244613 
        4.13124         1.08588        0.242311 
        4.14693         1.07703        0.240036 
        4.16266         1.07078        0.237786 
        4.17839         1.06616        0.235566 
        4.19408         1.05903        0.233379 
        4.20977         1.05111         0.23122 
        4.22551         1.04586        0.229082 
        4.24123          1.0397        0.226974 
        4.25691         1.03256        0.224899 
        4.27259         1.02639        0.222848 
        4.28831         1.02051        0.220819 
        4.30404         1.01657        0.218814 
        4.31974         1.00477        0.216838 
        4.33543         1.00178        0.214887 
        4.35116          0.9974        0.212956 
        4.36688        0.990438         0.21105 
        4.38255         0.98554        0.209174 
        4.39825         0.98303        0.207317 
        4.41398        0.974854        0.205478 
         4.4297        0.969148        0.203665 
        4.44541        0.964615        0.201873 
        4.46111         0.96241        0.200104 
        4.47683         0.95711        0.198356 
        4.49251        0.951317        0.196631 
        4.50819        0.946613        0.194928 
         4.5239        0.940483        0.193243 
        4.53962        0.939061        0.191576 
        4.55535        0.932306        0.189927 
        4.57106        0.930139          0.1883 
        4.58678        0.923985        0.186693 
         4.6025        0.921071        0.185103 
        4.61821        0.917409        0.183533 
        4.63391         0.91094        0.181982 
         4.6496        0.906429        0.180451 
        4.66532        0.904728        0.178934 
        4.68103        0.899954        0.177436 
        4.69673        0.897504        0.175956 
        4.71241        0.891435        0.174495 
        4.72811        0.890918        0.173048 
        4.74384        0.884492        0.171616 
        4.75955        0.881627        0.170202 
        4.77525        0.877072        0.168805 
        4.79096        0.874836        0.167422 
        4.80669        0.873183        0.166054 
         4.8224        0.868991        0.164702 
        4.83809        0.865218        0.163368 
        4.85379        0.863995        0.162047 
         4.8695        0.861402         0.16074 
        4.88521        0.854522        0.159447 
        4.90093        0.854261        0.158169 
        4.91663        0.851899        0.156906 
        4.93234        0.846637        0.155656 
        4.94807        0.844724        0.154418 
        4.96377        0.842606        0.153197 
        4.97943        0.840314        0.151991 
        4.99514        0.837139        0.150795 
        5.01086        0.835702        0.149611 
        5.02654        0.832687        0.148442 
        5.04227        0.828911        0.147283 
          5.058        0.826987        0.146136 
        5.07371         0.82479        0.145003 
        5.08942         0.82265        0.143882 
        5.10513        0.820677        0.142773 
        5.12084        0.818946        0.141675 
        5.13656        0.816533        0.140589 
        5.15225        0.815264        0.139516 
        5.16796        0.811025        0.138453 
        5.18369        0.809187          0.1374 
         5.1994         0.80812        0.136359 
        5.21509          0.8057        0.135331 
        5.23079        0.805002        0.134312 
        5.24649        0.803754        0.133304 
        5.26217        0.799012        0.132307 
        5.27788        0.799025        0.131319 
        5.29359        0.797539        0.130341 
        5.30933        0.795071        0.129372 
        5.32504        0.794725        0.128414 
        5.34073        0.792662        0.127467 
        5.35646        0.791003        0.126527 
        5.37218        0.789705        0.125597 
        5.38789         0.78823        0.124678 
        5.40357        0.785113        0.123769 
        5.41929        0.785994        0.122867 
        5.43502        0.784195        0.121974 
         5.4507        0.784445        0.121092 
        5.46639        0.780688        0.120219 
        5.48212        0.778024        0.119352 
        5.49786        0.777724        0.118493 
        5.51353        0.775184        0.117647 
        5.52921        0.775212        0.116808 
        5.54495        0.774407        0.115975 
        5.56066        0.771756         0.11515 
        5.57637        0.772323        0.114334 
        5.59207        0.770499        0.113527 
        5.60778        0.769316        0.112727 
        5.62346        0.769455        0.111936 
        5.63916        0.766785        0.111152 
        5.65487        0.766199        0.110375 
         5.6706        0.768077        0.109605 
        5.68633        0.764553        0.108841 
        5.70203        0.763144        0.108087 
        5.71773        0.762693        0.107339 
        5.73344         0.75936        0.106599 
        5.74916        0.762452        0.105865 
        5.76486        0.759261        0.105138 
        5.78054        0.758863         0.10442 
        5.79626        0.757463        0.103707 
          5.812        0.758242        0.102999 
         5.8277        0.755814          0.1023 
        5.84339        0.754859        0.101608 
        5.85911        0.753017         0.10092 
        5.87484         0.75353         0.10024 
        5.89053        0.752313       0.0995663 
        5.90623        0.751152       0.0988991 
        5.92195        0.749646       0.0982368 
        5.93767        0.748923       0.0975809 
        5.95336        0.748641       0.0969322 
        5.96905        0.747451       0.0962896 
        5.98476        0.745688       0.0956519 
        6.00048         0.74766       0.0950198 
        6.01617        0.744859       0.0943943 
        6.03185        0.743773       0.0937752 
        6.04756        0.743856       0.0931602 
        6.06331        0.744444       0.0925495 
        6.07903        0.741773       0.0919454 
        6.09473        0.742382       0.0913474 
        6.11044        0.741583       0.0907542 
        6.12616        0.739405       0.0901663 
        6.14186        0.739576       0.0895842 
        6.15755         0.73863       0.0890074 
        6.17326        0.738844       0.0884352 
        6.18898         0.73726       0.0878677 
        6.20467        0.738266       0.0873063 
        6.22036        0.734372       0.0867498 
         6.2361        0.735292       0.0861967 
         6.2518        0.734296       0.0856493 
        6.26748        0.733775       0.0851079 
        6.28319        0.734269       0.0845697 
        6.29893        0.731292       0.0840358 
        6.31463        0.732304       0.0835073 
        6.33033        0.731296       0.0829836 
        6.34604        0.730794        0.082464 
        6.36177         0.72921       0.0819483 
        6.37747         0.72993       0.0814381 
