# k  (h/Mpc)    Pcb(k)  (Mpc/h)^3    Pcb_linear(k) (Mpc/h)^3   ShotnoiseSubtracted = true
      0.0200456         15593.5         15948.5 
      0.0350414         11653.1         12141.9 
      0.0492313         8882.57         9044.96 
      0.0637834         7716.04         7598.23 
      0.0800726         6180.52         6131.27 
       0.096163          4371.4         4534.36 
       0.111083         3508.01         3638.47 
       0.126058         3243.39         3228.91 
       0.142273         2821.33         2765.49 
       0.158546         2441.19         2210.67 
        0.17375         1958.32         1866.02 
       0.188953          1907.3         1689.28 
       0.204907         1801.87         1505.61 
       0.220756         1557.25         1285.17 
        0.23588         1381.73         1119.62 
         0.2514         1205.08         1016.73 
       0.267535         1198.94         924.386 
       0.283568         1089.84         820.319 
       0.299022         1025.48          732.29 
       0.314451         977.082         669.376 
       0.330372         900.392         615.803 
       0.346141         842.215         561.399 
       0.361624         808.978         511.412 
       0.377134          752.56         470.886 
       0.392932         725.959         436.491 
       0.408854         703.529         403.592 
       0.424564         659.742         372.808 
       0.440253          646.84         346.026 
       0.455999         614.951         322.836 
       0.471626         584.595         301.698 
        0.48727         565.389          281.81 
       0.502856         549.908         263.786 
       0.518488         543.582         247.689 
       0.534347         508.451         232.782 
       0.550082         488.872         219.031 
       0.565732         489.131         206.377 
       0.581496         460.617         194.755 
       0.597222         453.724         184.105 
       0.612804         441.148         174.311 
       0.628434         426.085         165.161 
       0.644267         414.522         156.581 
       0.660051         402.946         148.669 
       0.675724         399.185         141.358 
       0.691403         386.587         134.535 
       0.707174         373.128         128.126 
       0.722871         368.955         122.162 
        0.73838         363.734         116.643 
       0.754018         352.803         111.425 
       0.769845         342.912          106.47 
        0.78569         341.571         101.814 
       0.801365         330.664         97.4844 
       0.817031         320.798         93.4112 
       0.832809         318.175         89.5469 
       0.848511         309.883         85.9207 
       0.864097          304.47          82.522 
       0.879701         300.235         79.3057 
       0.895507         294.212         76.2243 
       0.911279         284.703         73.3146 
        0.92691         283.107         70.5823 
       0.942635         277.029         67.9753 
       0.958396           272.4         65.4957 
       0.974128         267.384         63.1454 
       0.989692         262.599         60.9347 
        1.00528         258.728         58.8274 
        1.02113         256.333         56.7876 
        1.03692         249.801         54.8529 
        1.05264          245.71          53.018 
        1.06832         241.132         51.2706 
        1.08405         236.482          49.598 
        1.09979         233.651         47.9996 
        1.11537         228.852         46.4881 
        1.13105         224.245         45.0332 
        1.14679         224.174         43.6354 
        1.16256         219.356         42.2948 
        1.17828         215.047         41.0153 
        1.19395          212.08         39.7935 
         1.2097         211.286         38.6157 
        1.22537         205.964         37.4916 
          1.241          204.65          36.416 
        1.25666         199.953         35.3802 
        1.27241         197.299         34.3802 
        1.28819          194.81         33.4175 
        1.30392         191.296         32.4947 
        1.31957          190.98         31.6111 
        1.33529         186.189         30.7574 
        1.35108         183.283         29.9321 
        1.36674         182.345         29.1432 
         1.3824         178.924         28.3836 
        1.39811         178.746         27.6488 
        1.41389         174.453         26.9374 
        1.42964         171.549         26.2524 
        1.44531         169.124         25.5947 
        1.46101         167.934         24.9583 
        1.47667         164.129         24.3456 
        1.49229         162.118         23.7553 
        1.50793         160.637          23.184 
        1.52367         158.995         22.6279 
        1.53953         155.685         22.0864 
        1.55526         153.543         21.5672 
        1.57092         152.045         21.0668 
        1.58662          149.46         20.5813 
        1.60235         147.973         20.1102 
        1.61809         146.229         19.6537 
        1.63369         143.956         19.2156 
        1.64941         141.666         18.7877 
        1.66519         139.971         18.3714 
        1.68085         138.894         17.9708 
        1.69652         135.791         17.5821 
        1.71228         134.737         17.2027 
        1.72806         132.977         16.8343 
        1.74368         131.919         16.4804 
        1.75933         129.655         16.1361 
        1.77505         127.902         15.8001 
        1.79081         127.008         15.4731 
         1.8065         125.027         15.1568 
        1.82218         122.803         14.8497 
        1.83797         121.299          14.549 
        1.85367         120.019         14.2584 
        1.86928         118.653         13.9775 
        1.88497         116.086         13.7027 
        1.90073         115.553         13.4343 
        1.91647         113.771         13.1733 
        1.93218         112.505         12.9199 
        1.94787         111.201         12.6736 
        1.96363         109.721         12.4327 
        1.97935         107.587         12.1987 
        1.99499         106.832          11.972 
        2.01064         105.577         11.7508 
         2.0264          104.04         11.5338 
        2.04216         103.204         11.3225 
        2.05781         101.816         11.1178 
        2.07353         100.466         10.9174 
        2.08928         99.0476         10.7216 
        2.10499         97.3879         10.5311 
        2.12065         96.9827         10.3459 
        2.13633          95.916          10.165 
        2.15211         94.5549         9.98722 
        2.16785         92.8248         9.81424 
        2.18349         91.7025         9.64647 
        2.19916         91.1465         9.48229 
        2.21489         89.8409         9.32141 
        2.23063         88.3862         9.16417 
         2.2463         87.7538         9.01129 
        2.26194          87.357         8.86229 
        2.27765         85.4504         8.71591 
        2.29341         84.6877         8.57248 
        2.30914         83.3071         8.43258 
        2.32486         82.7224          8.2959 
        2.34061         81.8024         8.16204 
        2.35635         80.3909         8.03126 
        2.37203         79.3071         7.90382 
        2.38768         78.5602         7.77942 
        2.40339         77.8754         7.65726 
        2.41914         76.5264         7.53745 
        2.43483         76.3115         7.42064 
         2.4505         75.0546         7.30651 
        2.46622         74.2841         7.19441 
        2.48195         73.2803         7.08466 
        2.49759         72.5884         6.97779 
        2.51328         71.7819         6.87286 
        2.52906         70.9847         6.76944 
        2.54479         70.2746         6.66854 
        2.56049         69.1447          6.5699 
        2.57618         68.5504         6.47335 
        2.59189         67.5254         6.37861 
        2.60758         66.8452         6.28591 
        2.62325         66.3354         6.19519 
        2.63898         65.3936         6.10594 
        2.65468         64.7192         6.01865 
        2.67044         63.8073          5.9327 
        2.68618         63.5119         5.84863 
        2.70184         62.9634         5.76653 
        2.71755         62.3361         5.68582 
        2.73329         61.1906         5.60653 
        2.74897         60.6586         5.52901 
        2.76462         59.9081         5.45314 
        2.78034         59.1622         5.37839 
        2.79607         58.5915         5.30497 
        2.81179         57.8827         5.23301 
        2.82749         57.4175         5.16246 
        2.84321         56.7527         5.09315 
        2.85893         56.0775         5.02514 
        2.87462         55.3858         4.95848 
        2.89033          54.926         4.89298 
        2.90605         54.0957         4.82862 
        2.92176         53.7718         4.76545 
        2.93747         53.1754         4.70344 
        2.95318         52.4226         4.64253 
        2.96891         51.8029         4.58268 
        2.98456          51.396         4.52415 
        3.00023         50.6808         4.46656 
        3.01596         50.3562          4.4098 
        3.03164         49.6245         4.35419 
        3.04738         49.1351         4.29938 
         3.0631         48.7474         4.24554 
        3.07883          48.174         4.19262 
        3.09456         47.9438         4.14061 
        3.11026         47.1448         4.08957 
        3.12596         46.6906          4.0394 
        3.14163         46.1606         3.99019 
        3.15734         45.6783         3.94169 
        3.17308         45.3236         3.89388 
        3.18879          44.954           3.847 
        3.20447         44.1916         3.80096 
         3.2202         43.9788         3.75554 
         3.2359         43.4508         3.71094 
        3.25157         43.0828         3.66718 
        3.26729         42.5737         3.62399 
        3.28304         42.0028         3.58141 
        3.29877         41.6511         3.53958 
        3.31446         41.2754         3.49851 
        3.33014         40.9907         3.45813 
        3.34585         40.5656         3.41832 
        3.36158         40.1354         3.37909 
        3.37727          39.586          3.3406 
        3.39294         39.2708         3.30274 
        3.40867          38.748         3.26534 
        3.42439         38.4532         3.22854 
        3.44008         38.1706         3.19238 
        3.45578         37.6334         3.15675 
        3.47153         37.2715         3.12159 
        3.48724         37.0426         3.08702 
        3.50292         36.7247         3.05306 
        3.51859         36.1432         3.01963 
        3.53431          35.866          2.9866 
        3.55007         35.5643         2.95399 
        3.56577         35.2355         2.92199 
        3.58146         34.7988         2.89048 
        3.59719         34.5444         2.85937 
        3.61292         34.2365         2.82872 
        3.62859         33.9216         2.79865 
        3.64429         33.5176         2.76895 
        3.66003         33.2217         2.73959 
        3.67578         32.9008         2.71068 
        3.69146         32.6802         2.68229 
        3.70712         32.2963         2.65436 
        3.72284         31.9942         2.62672 
        3.73853         31.8208         2.59953 
        3.75422         31.4105         2.57272 
        3.76993         31.1927         2.54626 
        3.78564         30.8601         2.52019 
        3.80137         30.5074         2.49444 
        3.81707         30.2353          2.4691 
        3.83279         29.9546          2.4441 
        3.84853         29.7885          2.4194 
        3.86424           29.45          2.3951 
        3.87992         29.2204         2.37117 
        3.89561         28.9019         2.34756 
        3.91134         28.6336         2.32423 
        3.92704          28.376         2.30124 
        3.94273         28.1351         2.27859 
        3.95845         27.7191          2.2562 
        3.97418         27.6816         2.23411 
        3.98988         27.3326         2.21235 
        4.00554         27.1126         2.19093 
        4.02125         26.8976         2.16974 
        4.03698         26.5522          2.1488 
        4.05268         26.4561         2.12818 
        4.06839         26.1309         2.10782 
         4.0841         25.9531         2.08773 
        4.09983         25.7511         2.06788 
        4.11555         25.5395          2.0483 
        4.13124         25.2507         2.02902 
        4.14693         25.0374         2.00997 
        4.16266         24.7409         1.99113 
        4.17839         24.5768         1.97254 
        4.19408         24.4011         1.95423 
        4.20977         24.1618         1.93615 
        4.22551         23.9434         1.91825 
        4.24123         23.7206          1.9006 
        4.25691         23.5499         1.88321 
        4.27259         23.2808         1.86605 
        4.28831         23.1234         1.84906 
        4.30404         22.8898         1.83226 
        4.31974         22.7912         1.81572 
        4.33543         22.4963         1.79939 
        4.35116         22.3582         1.78322 
        4.36688         22.1516         1.76725 
        4.38255         21.9871         1.75154 
        4.39825         21.8031         1.73599 
        4.41398         21.6043          1.7206 
         4.4297         21.4311         1.70541 
        4.44541         21.2465         1.69041 
        4.46111         21.0474          1.6756 
        4.47683         20.8417         1.66095 
        4.49251         20.7096         1.64652 
        4.50819         20.5604         1.63226 
         4.5239         20.3803         1.61814 
        4.53962         20.2361         1.60418 
        4.55535         20.0598         1.59038 
        4.57106         19.9292         1.57676 
        4.58678         19.7093         1.56329 
         4.6025         19.5492         1.54998 
        4.61821         19.4013         1.53683 
        4.63391         19.2136         1.52385 
         4.6496         19.0781         1.51102 
        4.66532         18.8965         1.49833 
        4.68103         18.7526         1.48578 
        4.69673         18.5935         1.47339 
        4.71241         18.4669         1.46116 
        4.72811         18.3057         1.44904 
        4.74384         18.1783         1.43705 
        4.75955           17.99         1.42521 
        4.77525         17.8477         1.41351 
        4.79096         17.7376         1.40193 
        4.80669         17.6243         1.39047 
         4.8224         17.4448         1.37915 
        4.83809         17.2902         1.36798 
        4.85379         17.2059         1.35692 
         4.8695         17.0604         1.34597 
        4.88521         16.9151         1.33515 
        4.90093         16.7752         1.32445 
        4.91663         16.6173         1.31387 
        4.93234         16.4932          1.3034 
        4.94807         16.3947         1.29304 
        4.96377         16.2675         1.28281 
        4.97943         16.1391         1.27271 
        4.99514         16.0243          1.2627 
        5.01086         15.8553         1.25278 
        5.02654         15.7198           1.243 
        5.04227         15.6414         1.23329 
          5.058         15.4745         1.22369 
        5.07371         15.4164          1.2142 
        5.08942         15.3174         1.20482 
        5.10513         15.1688         1.19553 
        5.12084         15.0526         1.18633 
        5.13656          14.936         1.17724 
        5.15225         14.8143         1.16826 
        5.16796         14.6576         1.15935 
        5.18369         14.5785         1.15053 
         5.1994         14.4775         1.14182 
        5.21509         14.3542         1.13321 
        5.23079          14.251         1.12467 
        5.24649         14.1453         1.11624 
        5.26217         14.0724         1.10789 
        5.27788         13.9427         1.09962 
        5.29359         13.8234         1.09143 
        5.30933         13.6975         1.08331 
        5.32504         13.6277         1.07529 
        5.34073         13.5283         1.06736 
        5.35646         13.4355         1.05949 
        5.37218         13.3069          1.0517 
        5.38789         13.2351         1.04401 
        5.40357         13.1215          1.0364 
        5.41929         13.0226         1.02884 
        5.43502         12.9499         1.02137 
         5.4507         12.8454         1.01398 
        5.46639         12.7256         1.00667 
        5.48212         12.6627        0.999411 
        5.49786         12.5559        0.992217 
        5.51353         12.4766        0.985129 
        5.52921         12.3667        0.978104 
        5.54495         12.2872        0.971127 
        5.56066         12.2052        0.964225 
        5.57637         12.0945        0.957392 
        5.59207          12.014        0.950632 
        5.60778         11.9461        0.943934 
        5.62346         11.8606        0.937311 
        5.63916         11.7829        0.930744 
        5.65487         11.6902        0.924238 
         5.6706         11.6166        0.917786 
        5.68633         11.5146        0.911394 
        5.70203         11.4277        0.905076 
        5.71773         11.3554        0.898819 
        5.73344         11.2781        0.892618 
        5.74916         11.2099        0.886471 
        5.76486         11.1268        0.880389 
        5.78054         11.0388        0.874374 
        5.79626         10.9557        0.868399 
          5.812         10.8868        0.862474 
         5.8277         10.8087        0.856621 
        5.84339         10.7277        0.850823 
        5.85911         10.6511        0.845068 
        5.87484         10.6003        0.839367 
        5.89053         10.5162         0.83373 
        5.90623         10.4394        0.828143 
        5.92195         10.3761        0.822597 
        5.93767         10.2939        0.817105 
        5.95336          10.215        0.811673 
        5.96905         10.1735        0.806292 
        5.98476         10.1056        0.800952 
        6.00048         10.0171         0.79566 
        6.01617         9.93928        0.790422 
        6.03185         9.86585        0.785238 
        6.04756          9.8037        0.780088 
        6.06331         9.74035        0.774974 
        6.07903         9.67869        0.769916 
        6.09473         9.61908        0.764908 
        6.11044          9.5401        0.759941 
        6.12616          9.4867        0.755018 
        6.14186         9.41129        0.750144 
        6.15755         9.36874        0.745314 
        6.17326          9.2852        0.740522 
        6.18898         9.23023        0.735771 
        6.20467         9.16371        0.731069 
        6.22036         9.09207         0.72641 
         6.2361           9.033        0.721778 
         6.2518         8.98173        0.717195 
        6.26748         8.92118        0.712661 
        6.28319         8.87267        0.708155 
        6.29893         8.80074        0.703683 
        6.31463         8.74722        0.699258 
        6.33033         8.70679        0.694873 
        6.34604         8.63393        0.690522 
        6.36177         8.58129        0.686204 
        6.37747         8.51743        0.681931 
