# k  (h/Mpc)    Pcb(k)  (Mpc/h)^3    Pcb_linear(k) (Mpc/h)^3   ShotnoiseSubtracted = true
      0.0200456         1332.43         1347.75 
      0.0350414          902.99         888.307 
      0.0492313         607.758         604.903 
      0.0637834         486.259         490.659 
      0.0800726         378.058         383.341 
       0.096163         272.504         267.337 
       0.111083         211.508         206.284 
       0.126058         181.408         182.123 
       0.142273         153.149          154.29 
       0.158546          120.39         119.118 
        0.17375         100.279         97.8952 
       0.188953         89.6994         88.2696 
       0.204907         77.4454         78.4357 
       0.220756         66.7091          65.654 
        0.23588         57.1904         56.0501 
         0.2514         51.4488          50.542 
       0.267535         47.0758         45.8528 
       0.283568         41.2346          40.254 
       0.299022         36.7828         35.4262 
       0.314451         34.0646         32.1202 
       0.330372         30.6594         29.4533 
       0.346141         27.8251         26.6792 
       0.361624         25.1778         24.0727 
       0.377134         22.9228         21.9958 
       0.392932         21.8478         20.2969 
       0.408854         19.7254         18.6784 
       0.424564          18.633         17.1428 
       0.440253         16.9258         15.8076 
       0.455999         15.4369         14.6774 
       0.471626         14.4548           13.66 
        0.48727         13.8432         12.6971 
       0.502856          12.936         11.8251 
       0.518488         11.8782         11.0532 
       0.534347         11.0821         10.3467 
       0.550082         10.5879         9.69578 
       0.565732          10.091         9.09733 
       0.581496         9.44233         8.55035 
       0.597222         8.87371         8.05327 
       0.612804         8.33514         7.59772 
       0.628434         8.04495         7.17347 
       0.644267         7.60708         6.77637 
       0.660051         7.17432         6.41213 
       0.675724         6.76863         6.07731 
       0.691403         6.51951         5.76585 
       0.707174         6.17933          5.4742 
       0.722871         6.00274         5.20364 
        0.73838         5.60375         4.95404 
       0.754018         5.32126         4.71876 
       0.769845         5.07036         4.49606 
        0.78569         4.93059         4.28739 
       0.801365         4.69651         4.09392 
       0.817031         4.51605         3.91246 
       0.832809         4.28904         3.74081 
       0.848511         4.15002          3.5802 
       0.864097         3.98925         3.43011 
       0.879701         3.87459         3.28846 
       0.895507         3.69809         3.15312 
       0.911279         3.55158         3.02565 
        0.92691         3.44301         2.90627 
       0.942635         3.28655         2.79265 
       0.958396         3.18198         2.68485 
       0.974128         3.08527         2.58292 
       0.989692         2.93741         2.48726 
        1.00528         2.86735         2.39629 
        1.02113         2.77353         2.30842 
        1.03692         2.70047         2.22527 
        1.05264         2.58259         2.14658 
        1.06832         2.51102         2.07179 
        1.08405         2.42555         2.00036 
        1.09979         2.36055         1.93224 
        1.11537         2.28318         1.86795 
        1.13105         2.20258         1.80618 
        1.14679         2.14345         1.74697 
        1.16256          2.0723         1.69027 
        1.17828         2.03726         1.63627 
        1.19395         1.95711          1.5848 
         1.2097         1.89628         1.53527 
        1.22537         1.83314         1.48809 
          1.241         1.79224         1.44303 
        1.25666         1.76203         1.39971 
        1.27241         1.71383         1.35795 
        1.28819         1.64205         1.31782 
        1.30392         1.60138         1.27943 
        1.31957         1.57323         1.24272 
        1.33529         1.50716         1.20732 
        1.35108         1.47899         1.17315 
        1.36674         1.43697         1.14054 
         1.3824         1.41699         1.10919 
        1.39811         1.37587         1.07891 
        1.41389         1.33506         1.04964 
        1.42964          1.3028          1.0215 
        1.44531         1.27595        0.994521 
        1.46101         1.24423        0.968457 
        1.47667         1.21734        0.943399 
        1.49229         1.17586         0.91929 
        1.50793         1.14438        0.895993 
        1.52367         1.12241        0.873348 
        1.53953         1.09124        0.851331 
        1.55526         1.08517        0.830244 
        1.57092         1.05737        0.809954 
        1.58662         1.04358        0.790291 
        1.60235         1.00525        0.771239 
        1.61809        0.985667        0.752802 
        1.63369        0.958429        0.735128 
        1.64941        0.943516        0.717892 
        1.66519         0.92759        0.701144 
        1.68085        0.902339        0.685046 
        1.69652        0.883906        0.669445 
        1.71228        0.863475         0.65424 
        1.72806        0.848508        0.639492 
        1.74368         0.82989        0.625343 
        1.75933        0.816759        0.611593 
        1.77505        0.801313        0.598188 
        1.79081        0.776283         0.58516 
         1.8065          0.7687        0.572573 
        1.82218        0.747301        0.560365 
        1.83797        0.732551        0.548428 
        1.85367        0.721546        0.536902 
        1.86928        0.706699        0.525774 
        1.88497         0.69086          0.5149 
        1.90073        0.684151        0.504291 
        1.91647        0.664234        0.493988 
        1.93218        0.654325        0.483994 
        1.94787        0.643406        0.474289 
        1.96363        0.632135         0.46481 
        1.97935        0.619154        0.455608 
        1.99499        0.608605        0.446705 
        2.01064        0.597523        0.438026 
         2.0264        0.583136        0.429522 
        2.04216        0.576577        0.421247 
        2.05781         0.56507         0.41324 
        2.07353        0.556263        0.405411 
        2.08928        0.546844        0.397767 
        2.10499        0.536732        0.390339 
        2.12065        0.526198        0.383122 
        2.13633        0.519372         0.37608 
        2.15211        0.506296        0.369169 
        2.16785        0.501634        0.362449 
        2.18349        0.491887        0.355938 
        2.19916        0.484808        0.349572 
        2.21489        0.476754        0.343339 
        2.23063        0.466293        0.337254 
         2.2463         0.45981        0.331342 
        2.26194        0.453962        0.325585 
        2.27765        0.445849        0.319935 
        2.29341        0.438929        0.314404 
        2.30914        0.429498        0.309014 
        2.32486        0.425109        0.303752 
        2.34061        0.416578        0.298603 
        2.35635        0.410303        0.293578 
        2.37203        0.405017        0.288685 
        2.38768        0.399028        0.283912 
        2.40339        0.392923         0.27923 
        2.41914        0.387614        0.274641 
        2.43483         0.38135        0.270171 
         2.4505        0.374774        0.265808 
        2.46622        0.370028        0.261525 
        2.48195         0.36422        0.257336 
        2.49759        0.359006         0.25326 
        2.51328        0.351642        0.249261 
        2.52906        0.348441        0.245322 
        2.54479        0.342144        0.241483 
        2.56049        0.337971        0.237733 
        2.57618        0.334077        0.234065 
        2.59189        0.328233        0.230469 
        2.60758        0.324482        0.226953 
        2.62325        0.319506        0.223514 
        2.63898        0.316178        0.220134 
        2.65468        0.308997        0.216831 
        2.67044        0.306142        0.213581 
        2.68618        0.302714        0.210404 
        2.70184        0.298006        0.207304 
        2.71755        0.293606        0.204259 
        2.73329        0.290151        0.201269 
        2.74897          0.2855        0.198349 
        2.76462        0.282052        0.195493 
        2.78034        0.277602        0.192681 
        2.79607        0.274741         0.18992 
        2.81179        0.270762        0.187217 
        2.82749         0.26717        0.184569 
        2.84321        0.262795        0.181969 
        2.85893         0.26026        0.179419 
        2.87462        0.256612        0.176922 
        2.89033        0.254632         0.17447 
        2.90605        0.251073        0.172062 
        2.92176        0.248277        0.169701 
        2.93747        0.244524        0.167384 
        2.95318        0.241592        0.165111 
        2.96891        0.239891        0.162877 
        2.98456        0.235418        0.160695 
        3.00023        0.232996         0.15855 
        3.01596        0.229999        0.156436 
        3.03164        0.227204        0.154367 
        3.04738         0.22484        0.152329 
         3.0631        0.221616        0.150328 
        3.07883        0.219222        0.148363 
        3.09456        0.217148        0.146433 
        3.11026        0.214379         0.14454 
        3.12596        0.211691        0.142681 
        3.14163        0.209837        0.140858 
        3.15734        0.207423        0.139062 
        3.17308        0.204928        0.137294 
        3.18879        0.202624         0.13556 
        3.20447        0.200333        0.133859 
         3.2202         0.19798        0.132182 
         3.2359        0.195604        0.130536 
        3.25157        0.192491        0.128922 
        3.26729        0.191897         0.12733 
        3.28304        0.189543        0.125761 
        3.29877        0.187686        0.124221 
        3.31446        0.186125         0.12271 
        3.33014        0.183196        0.121225 
        3.34585        0.181757        0.119763 
        3.36158        0.179908        0.118322 
        3.37727        0.178243        0.116909 
        3.39294         0.17678         0.11552 
        3.40867        0.174069        0.114149 
        3.42439        0.173016          0.1128 
        3.44008         0.17112        0.111476 
        3.45578        0.169734        0.110172 
        3.47153        0.168106        0.108885 
        3.48724        0.166227        0.107622 
        3.50292        0.164884        0.106381 
        3.51859        0.163084         0.10516 
        3.53431        0.161635        0.103955 
        3.55007        0.160344        0.102765 
        3.56577        0.158709        0.101598 
        3.58146        0.157124         0.10045 
        3.59719        0.155852        0.099317 
        3.61292        0.154562       0.0982016 
        3.62859        0.153273       0.0971073 
        3.64429        0.151511       0.0960275 
        3.66003        0.150182       0.0949608 
        3.67578        0.149209       0.0939105 
        3.69146         0.14772       0.0928799 
        3.70712         0.14664       0.0918665 
        3.72284        0.145529       0.0908644 
        3.73853        0.144408       0.0898789 
        3.75422        0.142792       0.0889075 
        3.76993        0.141842       0.0879495 
        3.78564        0.140142       0.0870059 
        3.80137        0.139129       0.0860745 
        3.81707        0.138304       0.0851586 
        3.83279        0.137205       0.0842552 
        3.84853        0.135878       0.0833633 
        3.86424        0.135126        0.082486 
        3.87992        0.133831       0.0816225 
        3.89561        0.132775       0.0807712 
        3.91134        0.131578       0.0799303 
        3.92704         0.13029       0.0791021 
        3.94273        0.129739       0.0782865 
        3.95845        0.128203       0.0774808 
        3.97418        0.127566       0.0766861 
        3.98988        0.126189       0.0759036 
        4.00554        0.124681       0.0751341 
        4.02125        0.123672       0.0743729 
        4.03698        0.122238       0.0736211 
        4.05268         0.12081       0.0728812 
        4.06839        0.119595       0.0721509 
         4.0841         0.11821       0.0714308 
        4.09983        0.117302       0.0707194 
        4.11555        0.115513       0.0700179 
        4.13124        0.114401       0.0693277 
        4.14693        0.113092       0.0686462 
        4.16266        0.111913       0.0679723 
        4.17839        0.110821       0.0673077 
        4.19408        0.109538       0.0666534 
        4.20977        0.108687       0.0660075 
        4.22551         0.10769       0.0653685 
        4.24123        0.106529       0.0647386 
        4.25691        0.105582       0.0641186 
        4.27259         0.10447       0.0635065 
        4.28831         0.10397       0.0629011 
        4.30404        0.102717       0.0623029 
        4.31974        0.102109       0.0617138 
        4.33543         0.10119       0.0611325 
        4.35116         0.10078       0.0605573 
        4.36688        0.099896       0.0599897 
        4.38255       0.0988874       0.0594313 
        4.39825       0.0984732       0.0588789 
        4.41398       0.0977521       0.0583323 
         4.4297       0.0972109       0.0577931 
        4.44541       0.0966005       0.0572609 
        4.46111       0.0960128       0.0567356 
        4.47683       0.0954078       0.0562166 
        4.49251       0.0948437        0.055705 
        4.50819       0.0948048       0.0551999 
         4.5239       0.0941401       0.0547003 
        4.53962       0.0938521       0.0542061 
        4.55535       0.0932762       0.0537179 
        4.57106       0.0931236       0.0532362 
        4.58678       0.0925224       0.0527604 
         4.6025       0.0925355       0.0522902 
        4.61821       0.0925776       0.0518257 
        4.63391       0.0921589       0.0513675 
         4.6496       0.0917506       0.0509149 
        4.66532       0.0917083       0.0504671 
        4.68103       0.0915669       0.0500248 
        4.69673        0.091499       0.0495881 
        4.71241       0.0914212       0.0491571 
        4.72811       0.0916415       0.0487305 
        4.74384        0.091246       0.0483083 
        4.75955       0.0915847       0.0478917 
        4.77525       0.0916021       0.0474803 
        4.79096       0.0915052       0.0470731 
        4.80669       0.0913824       0.0466705 
         4.8224       0.0918429        0.046273 
        4.83809       0.0917804       0.0458805 
        4.85379       0.0921803       0.0454923 
         4.8695       0.0925692       0.0451083 
        4.88521       0.0924184       0.0447288 
        4.90093       0.0929254       0.0443535 
        4.91663       0.0930796       0.0439829 
        4.93234       0.0932518       0.0436161 
        4.94807       0.0939363       0.0432532 
        4.96377       0.0943605       0.0428951 
        4.97943       0.0948425       0.0425418 
        4.99514       0.0945974       0.0421914 
        5.01086       0.0959209       0.0418448 
        5.02654       0.0963263       0.0415029 
        5.04227       0.0966445       0.0411637 
          5.058       0.0975206       0.0408282 
        5.07371       0.0979827       0.0404971 
        5.08942       0.0989858       0.0401695 
        5.10513       0.0993918       0.0398455 
        5.12084       0.0998178       0.0395249 
        5.13656        0.101002       0.0392078 
        5.15225        0.101578       0.0388948 
        5.16796        0.102729       0.0385846 
        5.18369        0.103531       0.0382775 
         5.1994        0.104644       0.0379743 
        5.21509        0.104917       0.0376746 
        5.23079        0.106228       0.0373777 
        5.24649        0.107395       0.0370843 
        5.26217         0.10816       0.0367942 
        5.27788        0.109074       0.0365068 
        5.29359         0.11045       0.0362223 
        5.30933        0.111913       0.0359405 
        5.32504        0.112708       0.0356621 
        5.34073        0.114326       0.0353869 
        5.35646        0.115422       0.0351141 
        5.37218         0.11704       0.0348441 
        5.38789        0.117596       0.0345773 
        5.40357        0.119122       0.0343136 
        5.41929        0.120593        0.034052 
        5.43502        0.122799       0.0337931 
         5.4507        0.123988       0.0335375 
        5.46639        0.125467       0.0332845 
        5.48212        0.127044       0.0330335 
        5.49786         0.12888       0.0327848 
        5.51353        0.131514       0.0325398 
        5.52921        0.131759       0.0322971 
        5.54495        0.134131       0.0320561 
        5.56066        0.135735       0.0318178 
        5.57637        0.138228        0.031582 
        5.59207        0.139958       0.0313487 
        5.60778        0.141947       0.0311177 
        5.62346        0.144567       0.0308893 
        5.63916         0.14532       0.0306629 
        5.65487        0.148469       0.0304387 
         5.6706        0.149959       0.0302165 
        5.68633        0.152717       0.0299964 
        5.70203        0.155264       0.0297789 
        5.71773        0.157585       0.0295636 
        5.73344        0.159126       0.0293503 
        5.74916        0.162512       0.0291389 
        5.76486        0.165089       0.0289298 
        5.78054        0.166675       0.0287231 
        5.79626        0.169511       0.0285178 
          5.812        0.172353       0.0283143 
         5.8277         0.17503       0.0281134 
        5.84339        0.177525       0.0279144 
        5.85911        0.180616       0.0277169 
        5.87484        0.183349       0.0275214 
        5.89053        0.186853       0.0273281 
        5.90623        0.188579       0.0271365 
        5.92195        0.192094       0.0269465 
        5.93767        0.195302       0.0267584 
        5.95336        0.197531       0.0265723 
        5.96905        0.200777       0.0263881 
        5.98476        0.203684       0.0262054 
        6.00048        0.206681       0.0260243 
        6.01617        0.211306       0.0258452 
        6.03185        0.214275       0.0256679 
        6.04756        0.215792       0.0254919 
        6.06331        0.219422       0.0253171 
        6.07903        0.225488       0.0251444 
        6.09473        0.227343       0.0249733 
        6.11044        0.231721       0.0248038 
        6.12616        0.233648       0.0246358 
        6.14186        0.237148       0.0244695 
        6.15755        0.242617       0.0243047 
        6.17326        0.244779       0.0241413 
        6.18898        0.248065       0.0239794 
        6.20467        0.250354       0.0238192 
        6.22036        0.255162       0.0236604 
         6.2361        0.257411       0.0235027 
         6.2518        0.263167       0.0233467 
        6.26748        0.266049       0.0231924 
        6.28319        0.270611        0.023039 
        6.29893        0.272915       0.0228869 
        6.31463        0.278512       0.0227364 
        6.33033        0.280991       0.0225874 
        6.34604        0.286575       0.0224395 
        6.36177        0.289153       0.0222928 
        6.37747        0.293054       0.0221477 
