# k  (h/Mpc)    Pcb(k)  (Mpc/h)^3    Pcb_linear(k) (Mpc/h)^3   ShotnoiseSubtracted = true
      0.0200456         22153.3         22599.4 
      0.0350414         14302.4         14895.3 
      0.0492313         10022.7         10143.1 
      0.0637834         8495.54         8227.48 
      0.0800726         6607.11         6427.95 
       0.096163         4430.33         4482.77 
       0.111083         3475.54         3459.01 
       0.126058         3175.75         3053.87 
       0.142273         2756.56         2587.17 
       0.158546         2354.37          1997.4 
        0.17375         1850.56         1641.53 
       0.188953         1800.12         1480.12 
       0.204907         1684.92         1315.23 
       0.220756         1444.26          1100.9 
        0.23588         1282.69          939.86 
         0.2514          1106.6         847.499 
       0.267535         1094.83         768.871 
       0.283568         988.895         674.988 
       0.299022         932.065         594.035 
       0.314451         882.795         538.599 
       0.330372         808.475         493.879 
       0.346141          757.15         447.362 
       0.361624         727.942         403.656 
       0.377134         674.181         368.831 
       0.392932         642.747         340.343 
       0.408854         627.458         313.204 
       0.424564         578.892         287.454 
       0.440253         569.951         265.065 
       0.455999          540.05         246.114 
       0.471626         519.738         229.054 
        0.48727         494.963         212.907 
       0.502856          480.74         198.286 
       0.518488         474.647         185.343 
       0.534347         442.998         173.495 
       0.550082         426.802         162.581 
       0.565732         425.335         152.546 
       0.581496         397.874         143.374 
       0.597222         390.874         135.039 
       0.612804         381.596           127.4 
       0.628434          368.42         120.286 
       0.644267         358.115         113.628 
       0.660051         347.317          107.52 
       0.675724         342.526         101.906 
       0.691403         330.468          96.683 
       0.707174         319.292         91.7926 
       0.722871         314.088         87.2558 
        0.73838         309.616         83.0705 
       0.754018          301.09         79.1253 
       0.769845          294.08         75.3909 
        0.78569         290.447          71.892 
       0.801365         281.542         68.6478 
       0.817031         271.855         65.6049 
       0.832809         270.403         62.7267 
       0.848511         262.846         60.0337 
       0.864097         257.343         57.5168 
       0.879701         253.142         55.1416 
       0.895507         248.946         52.8722 
       0.911279         241.099         50.7348 
        0.92691         239.213          48.733 
       0.942635         232.686         46.8278 
       0.958396         228.684         45.0202 
       0.974128         224.173         43.3109 
       0.989692         221.312         41.7069 
        1.00528         216.936         40.1814 
        1.02113         213.872         38.7081 
        1.03692         209.334         37.3138 
        1.05264         206.454         35.9943 
        1.06832         201.542         34.7403 
        1.08405         198.461         33.5425 
        1.09979         193.592         32.4002 
        1.11537          192.17         31.3221 
        1.13105         186.932         30.2865 
        1.14679         184.682         29.2935 
        1.16256         182.504         28.3429 
        1.17828         180.266         27.4374 
        1.19395         176.002         26.5743 
         1.2097         175.115         25.7438 
        1.22537          171.69         24.9527 
          1.241         170.069          24.197 
        1.25666         167.335         23.4706 
        1.27241         164.194         22.7705 
        1.28819         162.243         22.0976 
        1.30392         158.118         21.4537 
        1.31957         158.241         20.8383 
        1.33529         154.613         20.2446 
        1.35108         151.237         19.6716 
        1.36674          150.19         19.1248 
         1.3824         149.382         18.5991 
        1.39811         146.845         18.0914 
        1.41389         144.187         17.6006 
        1.42964         142.392         17.1287 
        1.44531         140.503         16.6764 
        1.46101         137.881         16.2393 
        1.47667          135.84         15.8191 
        1.49229         134.896         15.4149 
        1.50793          131.94         15.0242 
        1.52367         130.924         14.6445 
        1.53953         128.722         14.2753 
        1.55526         126.582         13.9217 
        1.57092         125.287         13.5815 
        1.58662         123.973         13.2518 
        1.60235         121.595         12.9323 
        1.61809         120.801         12.6232 
        1.63369         118.372         12.3268 
        1.64941          116.35         12.0378 
        1.66519         115.013         11.7569 
        1.68085         113.948          11.487 
        1.69652         112.912         11.2254 
        1.71228          110.61         10.9704 
        1.72806         109.222         10.7231 
        1.74368         108.242         10.4859 
        1.75933         106.541         10.2553 
        1.77505         105.316         10.0306 
        1.79081          104.24         9.81209 
         1.8065         102.825         9.60103 
        1.82218          101.08         9.39633 
        1.83797         99.8184         9.19616 
        1.85367          98.835         9.00289 
        1.86928         96.9638          8.8163 
        1.88497         95.8461         8.63395 
        1.90073         94.4326         8.45606 
        1.91647           93.47         8.28331 
        1.93218         92.5125         8.11572 
        1.94787         90.8247         7.95298 
        1.96363         89.8629         7.79403 
        1.97935          88.409         7.63973 
        1.99499         87.6052         7.49045 
        2.01064         86.3401         7.34493 
         2.0264         85.3808         7.20232 
        2.04216         84.2786         7.06355 
        2.05781         83.6653         6.92929 
        2.07353         82.5383         6.79802 
        2.08928         80.6917         6.66985 
        2.10499         79.7947          6.5453 
        2.12065         79.1484         6.42428 
        2.13633         78.2578          6.3062 
        2.15211         77.1561          6.1903 
        2.16785         76.0805         6.07763 
        2.18349         75.3699         5.96844 
        2.19916         74.2884          5.8617 
        2.21489         73.5023         5.75719 
        2.23063         72.4459         5.65514 
         2.2463         71.4913         5.55601 
        2.26194         70.8052         5.45949 
        2.27765         69.7342         5.36475 
        2.29341         69.1709         5.27199 
        2.30914         68.3422         5.18161 
        2.32486           67.66         5.09338 
        2.34061         66.8175         5.00705 
        2.35635         65.4268         4.92278 
        2.37203         64.6884         4.84073 
        2.38768         64.1204          4.7607 
        2.40339         63.2821         4.68219 
        2.41914         62.5506         4.60525 
        2.43483         61.9971         4.53029 
         2.4505         61.0842         4.45712 
        2.46622         60.3264         4.38531 
        2.48195         59.8359         4.31506 
        2.49759         59.0441         4.24671 
        2.51328         58.5974         4.17966 
        2.52906         57.6625         4.11362 
        2.54479         57.1441         4.04924 
        2.56049         56.3231         3.98636 
        2.57618         56.0314         3.92486 
        2.59189         55.1079         3.86455 
        2.60758         54.2647          3.8056 
        2.62325         53.8365         3.74794 
        2.63898          53.077         3.69126 
        2.65468          52.681         3.63587 
        2.67044         52.1194         3.58137 
        2.68618         51.5586          3.5281 
        2.70184         51.0952         3.47612 
        2.71755         50.3127         3.42506 
        2.73329         49.8172         3.37493 
        2.74897         49.3788         3.32596 
        2.76462         48.6806         3.27807 
        2.78034         48.0858         3.23091 
        2.79607         47.7174         3.18463 
        2.81179         47.0764          3.1393 
        2.82749         46.5163         3.09489 
        2.84321         46.1437         3.05129 
        2.85893         45.4536         3.00854 
        2.87462         45.0111         2.96667 
        2.89033         44.5449         2.92556 
        2.90605         44.0329         2.88518 
        2.92176         43.4489         2.84558 
        2.93747          43.154         2.80674 
        2.95318         42.5745         2.76861 
        2.96891         42.0211         2.73117 
        2.98456         41.6062         2.69457 
        3.00023         41.1588          2.6586 
        3.01596         40.6125         2.62316 
        3.03164          40.323         2.58846 
        3.04738         39.9253         2.55429 
         3.0631         39.4064         2.52074 
        3.07883         39.1127         2.48778 
        3.09456         38.5843         2.45542 
        3.11026         38.2408         2.42368 
        3.12596         37.7313          2.3925 
        3.14163         37.5066         2.36193 
        3.15734          36.902         2.33183 
        3.17308          36.794         2.30217 
        3.18879         36.2692          2.2731 
        3.20447           35.75         2.24458 
         3.2202         35.4036         2.21645 
         3.2359         35.2248         2.18885 
        3.25157         34.7654         2.16179 
        3.26729         34.4436         2.13509 
        3.28304         34.1263          2.1088 
        3.29877         33.7705         2.08297 
        3.31446           33.24         2.05763 
        3.33014         32.9889         2.03273 
        3.34585         32.6633         2.00821 
        3.36158         32.4486         1.98404 
        3.37727         32.0676         1.96035 
        3.39294         31.7837         1.93706 
        3.40867         31.4831         1.91407 
        3.42439           31.08         1.89146 
        3.44008          30.693         1.86925 
        3.45578         30.5003         1.84738 
        3.47153         30.2708         1.82582 
        3.48724          29.846         1.80463 
        3.50292         29.5741         1.78382 
        3.51859         29.3187         1.76335 
        3.53431         28.9693         1.74313 
        3.55007         28.7171         1.72318 
        3.56577         28.4201         1.70362 
        3.58146         28.2634         1.68437 
        3.59719         27.9637         1.66537 
        3.61292         27.6026         1.64667 
        3.62859         27.3333         1.62832 
        3.64429         27.0901         1.61021 
        3.66003         26.8546         1.59232 
        3.67578         26.5196         1.57471 
        3.69146         26.3313         1.55743 
        3.70712         26.0867         1.54044 
        3.72284          25.849         1.52363 
        3.73853         25.6191         1.50711 
        3.75422         25.3422         1.49082 
        3.76993          25.104         1.47476 
        3.78564         24.8498         1.45893 
        3.80137          24.584         1.44332 
        3.81707         24.4161         1.42796 
        3.83279         24.1307         1.41281 
        3.84853         23.9728         1.39785 
        3.86424         23.8137         1.38314 
        3.87992         23.4816         1.36866 
        3.89561          23.385         1.35439 
        3.91134         23.1146         1.34029 
        3.92704         22.8806          1.3264 
        3.94273          22.613         1.31273 
        3.95845         22.5016         1.29921 
        3.97418         22.3133         1.28589 
        3.98988         22.0467         1.27277 
        4.00554         21.8516         1.25987 
        4.02125         21.6324          1.2471 
        4.03698          21.494         1.23449 
        4.05268         21.3559         1.22209 
        4.06839         21.1208         1.20984 
         4.0841          20.881         1.19777 
        4.09983         20.6785         1.18584 
        4.11555         20.4924         1.17408 
        4.13124         20.2993          1.1625 
        4.14693         20.1667         1.15107 
        4.16266         19.9727         1.13977 
        4.17839         19.7621         1.12863 
        4.19408         19.5236         1.11766 
        4.20977         19.4011         1.10683 
        4.22551         19.2328         1.09611 
        4.24123          19.072         1.08555 
        4.25691         18.9107         1.07515 
        4.27259          18.766         1.06489 
        4.28831         18.5631         1.05474 
        4.30404         18.4176         1.04471 
        4.31974         18.3151         1.03483 
        4.33543         18.1057         1.02508 
        4.35116         17.9319         1.01544 
        4.36688         17.8092         1.00592 
        4.38255         17.6456        0.996558 
        4.39825         17.4912        0.987294 
        4.41398         17.3125        0.978128 
         4.4297         17.1534        0.969088 
        4.44541         17.0861        0.960163 
        4.46111         16.9066        0.951356 
        4.47683         16.7651        0.942652 
        4.49251         16.6212        0.934074 
        4.50819         16.4605        0.925604 
         4.5239          16.316        0.917226 
        4.53962         16.1978        0.908941 
        4.55535         16.0669        0.900753 
        4.57106         15.9362        0.892677 
        4.58678         15.7931        0.884697 
         4.6025         15.6394        0.876813 
        4.61821         15.5522        0.869025 
        4.63391         15.3949        0.861341 
         4.6496         15.2737        0.853752 
        4.66532         15.1314        0.846243 
        4.68103         15.0199        0.838826 
        4.69673          14.897        0.831505 
        4.71241         14.7426        0.824277 
        4.72811         14.6714        0.817123 
        4.74384         14.5504        0.810044 
        4.75955         14.4392        0.803059 
        4.77525         14.3055         0.79616 
        4.79096         14.1899        0.789332 
        4.80669         14.0924        0.782581 
         4.8224         13.9713        0.775916 
        4.83809         13.8487        0.769335 
        4.85379         13.7261        0.762825 
         4.8695         13.6501        0.756385 
        4.88521         13.5738        0.750022 
        4.90093         13.4208         0.74373 
        4.91663         13.3169        0.737516 
        4.93234         13.2125        0.731365 
        4.94807          13.093         0.72528 
        4.96377         12.9827        0.719275 
        4.97943          12.907        0.713349 
        4.99514         12.7739        0.707475 
        5.01086         12.6713        0.701663 
        5.02654         12.5907        0.695929 
        5.04227         12.4964        0.690243 
          5.058         12.4286        0.684617 
        5.07371         12.2794        0.679064 
        5.08942         12.2162        0.673571 
        5.10513         12.1157        0.668138 
        5.12084         11.9872        0.662762 
        5.13656         11.9421        0.657446 
        5.15225           11.84        0.652196 
        5.16796         11.7415        0.646995 
        5.18369         11.6502        0.641846 
         5.1994         11.5755        0.636761 
        5.21509         11.4758        0.631736 
        5.23079          11.391        0.626758 
        5.24649         11.3001        0.621838 
        5.26217         11.2067        0.616973 
        5.27788         11.1265        0.612154 
        5.29359         11.0418        0.607384 
        5.30933         10.9668        0.602658 
        5.32504         10.8676         0.59799 
        5.34073         10.7905        0.593376 
        5.35646         10.7147        0.588801 
        5.37218         10.6498        0.584273 
        5.38789          10.565        0.579799 
        5.40357         10.4769        0.575378 
        5.41929         10.3977        0.570992 
        5.43502         10.3121        0.566651 
         5.4507         10.2434        0.562365 
        5.46639          10.166        0.558122 
        5.48212         10.0789        0.553913 
        5.49786         10.0231        0.549742 
        5.51353         9.96055        0.545635 
        5.52921         9.88908        0.541564 
        5.54495         9.80998        0.537524 
        5.56066         9.72745        0.533528 
        5.57637          9.6476        0.529573 
        5.59207         9.58363        0.525662 
        5.60778          9.5439        0.521788 
        5.62346         9.44937        0.517958 
        5.63916          9.3919        0.514163 
        5.65487         9.30968        0.510404 
         5.6706         9.22931        0.506677 
        5.68633         9.19071        0.502986 
        5.70203         9.11909        0.499339 
        5.71773         9.05046        0.495729 
        5.73344         8.99817        0.492152 
        5.74916         8.92069        0.488607 
        5.76486         8.85181        0.485101 
        5.78054         8.81017        0.481635 
        5.79626         8.73816        0.478193 
          5.812         8.67781        0.474781 
         5.8277         8.60355        0.471411 
        5.84339         8.54899        0.468074 
        5.85911         8.49523        0.464763 
        5.87484         8.41986        0.461484 
        5.89053         8.37125        0.458243 
        5.90623         8.32239        0.455032 
        5.92195         8.23211        0.451845 
        5.93767         8.19838         0.44869 
        5.95336         8.13682        0.445571 
        5.96905         8.08226        0.442482 
        5.98476         8.03692        0.439418 
        6.00048         7.97784        0.436381 
        6.01617         7.91599        0.433377 
        6.03185          7.8572        0.430405 
        6.04756         7.81033        0.427454 
        6.06331          7.7608        0.424523 
        6.07903         7.68715        0.421626 
        6.09473         7.65005        0.418758 
        6.11044         7.59084        0.415915 
        6.12616         7.54064        0.413098 
        6.14186         7.50591        0.410309 
        6.15755          7.4511        0.407547 
        6.17326         7.39455        0.404807 
        6.18898         7.34338        0.402091 
        6.20467         7.30213        0.399405 
        6.22036         7.23284        0.396743 
         6.2361         7.18778        0.394098 
         6.2518         7.14721        0.391482 
        6.26748         7.11469        0.388895 
        6.28319         7.06064        0.386323 
        6.29893         7.01156        0.383773 
        6.31463         6.96911         0.38125 
        6.33033         6.91105         0.37875 
        6.34604         6.86409         0.37627 
        6.36177         6.81822        0.373811 
        6.37747         6.78475        0.371377 
