# k  (h/Mpc)    Pcb(k)  (Mpc/h)^3    Pcb_linear(k) (Mpc/h)^3   ShotnoiseSubtracted = true
      0.0200456         28579.3         29215.8 
      0.0350414         18347.6         19256.3 
      0.0492313         12887.5         13112.8 
      0.0637834         10998.2         10636.3 
      0.0800726         8544.34         8309.87 
       0.096163         5725.23         5795.21 
       0.111083         4530.33         4471.71 
       0.126058         4126.12         3947.96 
       0.142273         3586.06         3344.63 
       0.158546         3126.55         2582.19 
        0.17375         2472.08         2122.12 
       0.188953         2411.49         1913.46 
       0.204907          2255.6         1700.29 
       0.220756         1946.89         1423.21 
        0.23588         1747.77         1215.03 
         0.2514         1515.28         1095.62 
       0.267535         1506.94         993.975 
       0.283568         1363.04         872.606 
       0.299022         1292.84         767.952 
       0.314451         1224.95         696.285 
       0.330372          1118.6         638.473 
       0.346141         1078.54         578.337 
       0.361624         1036.44         521.836 
       0.377134         967.772         476.815 
       0.392932         916.157         439.986 
       0.408854          907.22         404.901 
       0.424564          830.36         371.612 
       0.440253         815.301         342.669 
       0.455999          788.04         318.169 
       0.471626         762.505         296.115 
        0.48727         727.192         275.241 
       0.502856         704.206         256.339 
       0.518488         698.659         239.607 
       0.534347         655.223          224.29 
       0.550082         640.263          210.18 
       0.565732         634.796         197.207 
       0.581496         598.982          185.35 
       0.597222         584.645         174.575 
       0.612804         574.923         164.699 
       0.628434         558.715         155.503 
       0.644267         544.392         146.895 
       0.660051         530.979         138.999 
       0.675724         521.969         131.741 
       0.691403         504.729         124.989 
       0.707174         486.846         118.667 
       0.722871         479.063         112.802 
        0.73838         471.377         107.391 
       0.754018         460.684         102.291 
       0.769845         453.054         97.4632 
        0.78569         444.491         92.9399 
       0.801365         432.532         88.7459 
       0.817031         422.406         84.8122 
       0.832809         416.919         81.0913 
       0.848511          408.95         77.6098 
       0.864097         395.009         74.3561 
       0.879701         388.739         71.2855 
       0.895507         386.226         68.3517 
       0.911279         376.761         65.5886 
        0.92691         370.471         63.0007 
       0.942635         359.949         60.5377 
       0.958396         352.809         58.2008 
       0.974128         347.479         55.9911 
       0.989692         345.129         53.9175 
        1.00528         335.747         51.9454 
        1.02113         331.176         50.0408 
        1.03692         325.025         48.2383 
        1.05264          319.97         46.5324 
        1.06832         312.167         44.9113 
        1.08405         306.548         43.3628 
        1.09979         302.424          41.886 
        1.11537         296.974         40.4924 
        1.13105         292.169         39.1535 
        1.14679         282.318         37.8698 
        1.16256         278.885         36.6409 
        1.17828         277.843         35.4703 
        1.19395          271.49         34.3545 
         1.2097         265.315         33.2809 
        1.22537         260.548         32.2581 
          1.241         256.832         31.2812 
        1.25666         254.932         30.3421 
        1.27241         249.343          29.437 
        1.28819         245.138         28.5671 
        1.30392         240.238         27.7348 
        1.31957         238.252         26.9391 
        1.33529         235.188         26.1717 
        1.35108         230.055         25.4309 
        1.36674         226.638          24.724 
         1.3824         223.807         24.0444 
        1.39811         219.788          23.388 
        1.41389         217.333         22.7535 
        1.42964         214.641         22.1435 
        1.44531         211.882         21.5587 
        1.46101         207.834         20.9937 
        1.47667         204.607         20.4505 
        1.49229         202.773         19.9279 
        1.50793         197.856         19.4229 
        1.52367         196.861          18.932 
        1.53953         193.103         18.4547 
        1.55526          190.67         17.9976 
        1.57092         187.891         17.5578 
        1.58662         185.376         17.1315 
        1.60235          183.05         16.7185 
        1.61809         180.471         16.3189 
        1.63369         178.442         15.9357 
        1.64941         174.523         15.5621 
        1.66519         173.486          15.199 
        1.68085         170.326         14.8501 
        1.69652          168.78         14.5119 
        1.71228         165.118         14.1823 
        1.72806         161.749         13.8626 
        1.74368         160.321         13.5559 
        1.75933         158.933         13.2578 
        1.77505         156.569         12.9672 
        1.79081         154.739         12.6848 
         1.8065         151.622         12.4119 
        1.82218         150.166         12.1473 
        1.83797         148.505         11.8885 
        1.85367         146.756         11.6387 
        1.86928         143.841         11.3975 
        1.88497         143.136         11.1617 
        1.90073         140.537         10.9318 
        1.91647         139.573         10.7084 
        1.93218         137.387         10.4918 
        1.94787         134.428         10.2814 
        1.96363         132.873         10.0759 
        1.97935         131.453         9.87643 
        1.99499         129.805         9.68345 
        2.01064         127.754         9.49531 
         2.0264          126.81         9.31096 
        2.04216          124.89         9.13157 
        2.05781         123.418           8.958 
        2.07353          122.62          8.7883 
        2.08928         120.127         8.62259 
        2.10499         118.752         8.46158 
        2.12065         117.325         8.30513 
        2.13633         115.057         8.15248 
        2.15211         113.912         8.00265 
        2.16785          112.62         7.85699 
        2.18349         111.543         7.71584 
        2.19916         109.779         7.57784 
        2.21489         108.731         7.44273 
        2.23063         107.009         7.31081 
         2.2463         106.144         7.18266 
        2.26194         104.349         7.05787 
        2.27765         103.193          6.9354 
        2.29341         101.759         6.81549 
        2.30914         100.699         6.69864 
        2.32486         99.3446         6.58458 
        2.34061         98.0867         6.47297 
        2.35635         97.0165         6.36403 
        2.37203         95.9593         6.25796 
        2.38768          94.712          6.1545 
        2.40339         93.5485           6.053 
        2.41914          92.306         5.95353 
        2.43483         91.1748         5.85664 
         2.4505         89.9823         5.76205 
        2.46622         89.4058          5.6692 
        2.48195         87.5072         5.57839 
        2.49759         87.1218         5.49003 
        2.51328         86.0277         5.40335 
        2.52906         85.2648         5.31797 
        2.54479         84.0296         5.23475 
        2.56049         82.8203         5.15346 
        2.57618         81.9199         5.07395 
        2.59189          81.178         4.99598 
        2.60758         80.1122         4.91977 
        2.62325         78.8577         4.84523 
        2.63898         78.2331         4.77196 
        2.65468          76.982         4.70035 
        2.67044         76.5248         4.62989 
        2.68618         75.5887         4.56103 
        2.70184         74.6954         4.49384 
        2.71755          73.872         4.42782 
        2.73329          73.138         4.36302 
        2.74897         72.4124         4.29971 
        2.76462         71.7403          4.2378 
        2.78034         70.3994         4.17683 
        2.79607         69.4549           4.117 
        2.81179         68.8077          4.0584 
        2.82749         68.2441         4.00099 
        2.84321         67.4408         3.94463 
        2.85893         66.6206         3.88936 
        2.87462         66.0984         3.83523 
        2.89033         65.2721         3.78208 
        2.90605         64.4441         3.72988 
        2.92176         63.6637         3.67869 
        2.93747         62.9729         3.62847 
        2.95318         62.3624         3.57918 
        2.96891         61.8638         3.53077 
        2.98456         61.1709         3.48347 
        3.00023          60.413         3.43696 
        3.01596         59.5097         3.39115 
        3.03164         59.2151         3.34629 
        3.04738         58.2176         3.30211 
         3.0631         57.8306         3.25874 
        3.07883         57.2508         3.21614 
        3.09456         56.4115          3.1743 
        3.11026         55.9498         3.13327 
        3.12596         55.3035         3.09296 
        3.14163         54.8074         3.05344 
        3.15734         54.0768         3.01452 
        3.17308         53.5458         2.97618 
        3.18879         52.9776         2.93861 
        3.20447         52.6473         2.90173 
         3.2202         51.9633         2.86537 
         3.2359         51.3716         2.82969 
        3.25157         50.9807          2.7947 
        3.26729          50.477         2.76019 
        3.28304         49.9517         2.72619 
        3.29877         49.2082         2.69281 
        3.31446         48.8783         2.66005 
        3.33014         48.3118         2.62786 
        3.34585         47.6962         2.59615 
        3.36158         47.3544         2.56492 
        3.37727         46.8897         2.53429 
        3.39294         46.3066         2.50418 
        3.40867         45.8689         2.47446 
        3.42439         45.5514         2.44522 
        3.44008         44.9582         2.41652 
        3.45578         44.5768         2.38825 
        3.47153         44.1419         2.36036 
        3.48724         43.7979         2.33297 
        3.50292         43.2295         2.30607 
        3.51859         42.8537         2.27961 
        3.53431         42.4597         2.25348 
        3.55007          42.015         2.22768 
        3.56577         41.6188          2.2024 
        3.58146         41.1188         2.17751 
        3.59719         40.8045         2.15294 
        3.61292         40.3423         2.12876 
        3.62859         39.9211         2.10504 
        3.64429         39.6755         2.08164 
        3.66003         39.2159         2.05851 
        3.67578         38.7721         2.03574 
        3.69146         38.4035          2.0134 
        3.70712         38.0563         1.99144 
        3.72284         37.7031         1.96971 
        3.73853         37.2559         1.94835 
        3.75422         36.9877         1.92729 
        3.76993         36.5944         1.90652 
        3.78564         36.3173         1.88607 
        3.80137         35.8904         1.86588 
        3.81707         35.5385         1.84602 
        3.83279         35.2586         1.82644 
        3.84853         34.8423         1.80711 
        3.86424         34.5125         1.78809 
        3.87992         34.1963         1.76937 
        3.89561         33.9102         1.75092 
        3.91134         33.7333         1.73269 
        3.92704         33.2844         1.71474 
        3.94273         32.9813         1.69705 
        3.95845         32.6995         1.67959 
        3.97418          32.429         1.66236 
        3.98988         32.1292          1.6454 
        4.00554         31.8307         1.62872 
        4.02125         31.5653         1.61222 
        4.03698         31.2969         1.59592 
        4.05268         31.0545         1.57988 
        4.06839         30.7129         1.56405 
         4.0841         30.4587         1.54844 
        4.09983         30.2099         1.53302 
        4.11555         29.9435         1.51781 
        4.13124         29.6824         1.50285 
        4.14693         29.4707         1.48808 
        4.16266         29.1297         1.47347 
        4.17839          28.849         1.45906 
        4.19408          28.667         1.44488 
        4.20977         28.3394         1.43088 
        4.22551         28.0878         1.41702 
        4.24123         27.8115         1.40337 
        4.25691         27.5801         1.38993 
        4.27259         27.3976         1.37666 
        4.28831         27.1151         1.36354 
        4.30404         26.9674         1.35057 
        4.31974         26.6524          1.3378 
        4.33543         26.4431          1.3252 
        4.35116         26.1053         1.31273 
        4.36688         25.9916         1.30043 
        4.38255         25.8027         1.28832 
        4.39825          25.618         1.27635 
        4.41398         25.3404          1.2645 
         4.4297         25.1363         1.25281 
        4.44541         24.9451         1.24127 
        4.46111         24.6832         1.22989 
        4.47683          24.499         1.21863 
        4.49251         24.2686         1.20754 
        4.50819         24.0567         1.19659 
         4.5239         23.8878         1.18576 
        4.53962         23.6986         1.17505 
        4.55535         23.4631         1.16447 
        4.57106         23.2481         1.15403 
        4.58678         23.0711         1.14371 
         4.6025         22.8331         1.13352 
        4.61821         22.6752         1.12345 
        4.63391         22.5131         1.11352 
         4.6496           22.33         1.10371 
        4.66532         22.1923           1.094 
        4.68103         21.9796         1.08441 
        4.69673         21.7955         1.07495 
        4.71241          21.557          1.0656 
        4.72811         21.4708         1.05635 
        4.74384         21.2292          1.0472 
        4.75955         21.0424         1.03817 
        4.77525         20.9121         1.02925 
        4.79096          20.724         1.02043 
        4.80669         20.5626          1.0117 
         4.8224         20.4148         1.00308 
        4.83809          20.285        0.994575 
        4.85379         20.0676        0.986159 
         4.8695         19.9673        0.977834 
        4.88521         19.7525        0.969607 
        4.90093         19.5658        0.961474 
        4.91663         19.4525         0.95344 
        4.93234         19.3371        0.945488 
        4.94807         19.1539        0.937621 
        4.96377         19.0058        0.929858 
        4.97943         18.8495        0.922198 
        4.99514          18.671        0.914605 
        5.01086         18.5478         0.90709 
        5.02654         18.4383        0.899678 
        5.04227         18.2644        0.892327 
          5.058         18.0862        0.885053 
        5.07371         17.9872        0.877875 
        5.08942         17.8847        0.870774 
        5.10513         17.6737         0.86375 
        5.12084         17.5804          0.8568 
        5.13656         17.4135        0.849928 
        5.15225          17.291        0.843141 
        5.16796          17.149        0.836417 
        5.18369         17.0213         0.82976 
         5.1994         16.8968        0.823187 
        5.21509         16.7641         0.81669 
        5.23079         16.6736        0.810256 
        5.24649         16.5151        0.803895 
        5.26217         16.4078        0.797606 
        5.27788         16.2733        0.791375 
        5.29359         16.1497        0.785209 
        5.30933         16.0038          0.7791 
        5.32504         15.9009        0.773065 
        5.34073         15.7677          0.7671 
        5.35646         15.6507        0.761185 
        5.37218         15.5211        0.755332 
        5.38789         15.3676        0.749549 
        5.40357         15.2866        0.743832 
        5.41929         15.1807        0.738162 
        5.43502          15.047         0.73255 
         5.4507         14.9812        0.727009 
        5.46639         14.8833        0.721525 
        5.48212         14.7391        0.716084 
        5.49786         14.6597        0.710691 
        5.51353         14.5171        0.705381 
        5.52921         14.4552        0.700119 
        5.54495         14.3245        0.694895 
        5.56066         14.2362         0.68973 
        5.57637         14.0965        0.684617 
        5.59207         14.0047        0.679561 
        5.60778         13.8886        0.674553 
        5.62346         13.7866        0.669602 
        5.63916         13.6927        0.664696 
        5.65487         13.6069        0.659836 
         5.6706         13.5031        0.655018 
        5.68633         13.3891        0.650247 
        5.70203         13.3308        0.645532 
        5.71773          13.223        0.640865 
        5.73344         13.1219        0.636241 
        5.74916         13.0447        0.631658 
        5.76486         12.9345        0.627125 
        5.78054          12.847        0.622644 
        5.79626         12.7566        0.618194 
          5.812         12.6733        0.613783 
         5.8277         12.5632        0.609427 
        5.84339         12.4897        0.605114 
        5.85911         12.3835        0.600833 
        5.87484         12.2868        0.596594 
        5.89053         12.1911        0.592404 
        5.90623         12.1043        0.588252 
        5.92195         12.0512        0.584133 
        5.93767         11.9654        0.580055 
        5.95336         11.8907        0.576022 
        5.96905         11.7863        0.572028 
        5.98476         11.7116        0.568067 
        6.00048          11.601        0.564142 
        6.01617          11.556        0.560258 
        6.03185         11.4725        0.556416 
        6.04756           11.39          0.5526 
        6.06331         11.2963        0.548812 
        6.07903          11.225        0.545066 
        6.09473         11.1561        0.541359 
        6.11044         11.0588        0.537683 
        6.12616         10.9758        0.534041 
        6.14186         10.9293        0.530437 
        6.15755         10.8574        0.526865 
        6.17326         10.7726        0.523323 
        6.18898         10.6836        0.519812 
        6.20467         10.5981         0.51634 
        6.22036          10.547        0.512899 
         6.2361          10.478         0.50948 
         6.2518         10.4186        0.506097 
        6.26748         10.3462        0.502752 
        6.28319         10.2692        0.499428 
        6.29893          10.191        0.496131 
        6.31463         10.1512        0.492869 
        6.33033          10.059        0.489637 
        6.34604         10.0211        0.486432 
        6.36177         9.93069        0.483252 
        6.37747         9.86242        0.480106 
