# k  (h/Mpc)    Pcb(k)  (Mpc/h)^3    Pcb_linear(k) (Mpc/h)^3   ShotnoiseSubtracted = true
      0.0200456           21252         21582.9 
      0.0350414         14899.6           14349 
      0.0492313         10101.6         10260.2 
      0.0637834         8068.86         8450.49 
      0.0800726         5990.06         6268.32 
       0.096163         4696.38         4418.67 
       0.111083         3913.34         3666.61 
       0.126058         3217.15         3219.16 
       0.142273         2692.58         2539.18 
       0.158546         2196.49         1996.92 
        0.17375         1983.14         1764.68 
       0.188953         1859.15         1573.79 
       0.204907         1563.01         1314.85 
       0.220756         1407.16         1112.47 
        0.23588         1261.72         1003.42 
         0.2514         1131.41         903.787 
       0.267535         1086.84         786.014 
       0.283568         959.106         691.672 
       0.299022          912.95          629.47 
       0.314451         946.169         573.171 
       0.330372         819.939         513.685 
       0.346141          752.75         464.033 
       0.361624         720.764         426.023 
       0.377134         687.031         391.669 
       0.392932         653.878         357.933 
       0.408854         626.178           328.2 
       0.424564          609.69         303.538 
       0.440253         558.838         281.265 
       0.455999         533.462         260.392 
       0.471626         542.733         241.799 
        0.48727         509.502         225.421 
       0.502856         483.508         210.585 
       0.518488         472.254         196.812 
       0.534347         449.537         184.095 
       0.550082         428.374         172.697 
       0.565732         423.051         162.323 
       0.581496         411.425         152.664 
       0.597222         400.656         143.801 
       0.612804         390.201         135.747 
       0.628434         374.421         128.284 
       0.644267         361.521         121.288 
       0.660051         357.182         114.831 
       0.675724         348.016         108.882 
       0.691403         340.816         103.351 
       0.707174         327.849         98.1751 
       0.722871         323.072         93.3742 
        0.73838         317.066         88.9454 
       0.754018         306.357         84.7701 
       0.769845         304.833         80.8167 
        0.78569          296.46         77.1111 
       0.801365         286.501         73.6733 
       0.817031         285.207         70.4467 
       0.832809         279.049         67.3923 
       0.848511         273.446         64.5321 
       0.864097         265.178         61.8571 
       0.879701         264.341         59.3308 
       0.895507         255.728         56.9154 
       0.911279         250.636         54.6393 
        0.92691         247.971         52.5062 
       0.942635         244.971          50.475 
       0.958396         237.787         48.5469 
       0.974128         235.357         46.7228 
       0.989692         226.645         45.0103 
        1.00528         225.949         43.3811 
        1.02113         223.256         41.8069 
        1.03692         218.251         40.3166 
        1.05264         214.031         38.9057 
        1.06832         211.988         37.5645 
        1.08405         207.834         36.2828 
        1.09979         204.805         35.0602 
        1.11537         201.201         33.9059 
        1.13105          197.52         32.7966 
        1.14679         195.757         31.7326 
        1.16256         192.693         30.7137 
        1.17828         190.143         29.7428 
        1.19395         185.012          28.817 
         1.2097         184.589         27.9259 
        1.22537         182.604         27.0767 
          1.241         176.693         26.2653 
        1.25666         176.184         25.4851 
        1.27241         172.988         24.7328 
        1.28819         170.561         24.0096 
        1.30392         168.799         23.3174 
        1.31957         164.477         22.6554 
        1.33529         161.734         22.0167 
        1.35108         161.082            21.4 
        1.36674         156.756         20.8113 
         1.3824         155.843         20.2452 
        1.39811         154.456         19.6982 
        1.41389         150.532         19.1694 
        1.42964         148.293         18.6607 
        1.44531         147.507          18.173 
        1.46101         144.705         17.7016 
        1.47667         143.503         17.2483 
        1.49229         141.479         16.8121 
        1.50793         138.745         16.3904 
        1.52367         137.107         15.9804 
        1.53953         134.448         15.5817 
        1.55526         133.566         15.1997 
        1.57092         132.627         14.8321 
        1.58662          129.32         14.4757 
        1.60235         128.214         14.1303 
        1.61809         126.007         13.7959 
        1.63369         123.879         13.4753 
        1.64941          123.04         13.1626 
        1.66519         121.162         12.8587 
        1.68085          119.07         12.5665 
        1.69652         118.023         12.2832 
        1.71228         115.898         12.0071 
        1.72806         115.316         11.7392 
        1.74368         113.728         11.4821 
        1.75933         112.462         11.2322 
        1.77505         110.925         10.9885 
        1.79081         108.982         10.7516 
         1.8065         107.129         10.5227 
        1.82218         105.832         10.3006 
        1.83797         105.033         10.0834 
        1.85367         104.006         9.87366 
        1.86928         102.848         9.67109 
        1.88497         101.118         9.47309 
        1.90073         100.358         9.27989 
        1.91647         98.4697         9.09222 
        1.93218         97.5513         8.91012 
        1.94787          95.696         8.73326 
        1.96363         95.2491         8.56049 
        1.97935         94.1101         8.39272 
        1.99499         93.1186         8.23039 
        2.01064         91.3384         8.07209 
         2.0264         90.2471         7.91695 
        2.04216         89.1142         7.76595 
        2.05781         88.0031         7.61983 
        2.07353         87.2159         7.47693 
        2.08928         85.9481         7.33737 
        2.10499         85.2688         7.20173 
        2.12065         83.9042         7.06991 
        2.13633         83.0255         6.94127 
        2.15211         81.8053         6.81498 
        2.16785         80.8122         6.69218 
        2.18349         79.4996         6.57316 
        2.19916         78.9368         6.45678 
        2.21489         78.0707         6.34281 
        2.23063          76.613         6.23151 
         2.2463         75.9348         6.12337 
        2.26194         75.3917         6.01806 
        2.27765         73.9514         5.91467 
        2.29341         73.2619         5.81343 
        2.30914         72.2668         5.71476 
        2.32486         71.3554         5.61843 
        2.34061         70.4756         5.52415 
        2.35635         69.8853          5.4321 
        2.37203         68.8012         5.34247 
        2.38768         68.0685         5.25503 
        2.40339         67.3563         5.16923 
        2.41914         66.4025         5.08513 
        2.43483          65.849          5.0032 
         2.4505         64.8138          4.9232 
        2.46622         64.1473         4.84466 
        2.48195         63.6585         4.76783 
        2.49759         62.5813         4.69307 
        2.51328          61.755          4.6197 
        2.52906         61.0204         4.54744 
        2.54479         60.5099         4.47698 
        2.56049         59.6407         4.40815 
        2.57618         58.9778         4.34082 
        2.59189         58.3086         4.27479 
        2.60758         57.4454         4.21022 
        2.62325         56.9806         4.14707 
        2.63898          56.534         4.08498 
        2.65468         55.7901         4.02429 
        2.67044         55.2195         3.96457 
        2.68618         54.8755         3.90619 
        2.70184           53.94         3.84921 
        2.71755         53.4431         3.79323 
        2.73329          52.641         3.73826 
        2.74897         52.2161         3.68456 
        2.76462         51.5778         3.63203 
        2.78034         51.0553         3.58031 
        2.79607         50.6639         3.52953 
        2.81179         50.0523         3.47978 
        2.82749         49.5417         3.43105 
        2.84321         49.0234          3.3832 
        2.85893         48.4104         3.33626 
        2.87462         47.9795         3.29029 
        2.89033         47.3073         3.24515 
        2.90605         46.7638          3.2008 
        2.92176          46.326         3.15731 
        2.93747         45.8899         3.11464 
        2.95318          45.389         3.07274 
        2.96891         44.7242          3.0316 
        2.98456         44.2796         2.99138 
        3.00023         43.8992         2.95184 
        3.01596         43.2581         2.91288 
        3.03164         42.8201         2.87473 
        3.04738         42.4678         2.83715 
         3.0631         41.9512         2.80025 
        3.07883         41.4037         2.76401 
        3.09456         41.0188         2.72841 
        3.11026         40.7411         2.69348 
        3.12596         40.2278         2.65917 
        3.14163         39.7282         2.62554 
        3.15734         39.2934          2.5924 
        3.17308         39.0065         2.55975 
        3.18879         38.6763         2.52775 
        3.20447         38.2837         2.49635 
         3.2202         37.7676         2.46537 
         3.2359         37.4399         2.43498 
        3.25157         37.1177         2.40516 
        3.26729         36.6411         2.37575 
        3.28304         36.3038         2.34678 
        3.29877         35.8602         2.31832 
        3.31446         35.5472          2.2904 
        3.33014         35.1878         2.26296 
        3.34585         34.7424         2.23592 
        3.36158         34.4707         2.20928 
        3.37727         34.0225         2.18316 
        3.39294         33.8257         2.15748 
        3.40867         33.4653         2.13212 
        3.42439         33.1432         2.10718 
        3.44008           32.74         2.08268 
        3.45578          32.453         2.05856 
        3.47153         32.1196         2.03476 
        3.48724         31.7429         2.01137 
        3.50292          31.536         1.98841 
        3.51859         31.2036         1.96582 
        3.53431         30.9487          1.9435 
        3.55007         30.6225         1.92148 
        3.56577         30.3888         1.89988 
        3.58146         29.9948         1.87862 
        3.59719         29.7377         1.85763 
        3.61292         29.4743         1.83697 
        3.62859         29.1696          1.8167 
        3.64429         28.9082          1.7967 
        3.66003         28.6603         1.77694 
        3.67578         28.3276         1.75747 
        3.69146         28.0779         1.73838 
        3.70712         27.7103          1.7196 
        3.72284         27.4625         1.70102 
        3.73853         27.3206         1.68275 
        3.75422          26.982         1.66474 
        3.76993         26.7817         1.64698 
        3.78564         26.5765         1.62948 
        3.80137         26.3073         1.61221 
        3.81707         26.0457         1.59522 
        3.83279           25.84         1.57846 
        3.84853         25.4695         1.56192 
        3.86424         25.3214         1.54564 
        3.87992         25.1519         1.52962 
        3.89561         24.8336         1.51382 
        3.91134         24.5312         1.49821 
        3.92704         24.3385         1.48284 
        3.94273         24.1295          1.4677 
        3.95845         23.9738         1.45274 
        3.97418         23.6547         1.43799 
        3.98988         23.4192         1.42346 
        4.00554         23.2768         1.40917 
        4.02125         23.0657         1.39503 
        4.03698         22.8123         1.38107 
        4.05268         22.6236         1.36732 
        4.06839         22.4255         1.35375 
         4.0841         22.2255         1.34037 
        4.09983         21.9859         1.32716 
        4.11555         21.7689         1.31412 
        4.13124         21.6216         1.30129 
        4.14693         21.4022         1.28862 
        4.16266         21.1495          1.2761 
        4.17839         21.0709         1.26374 
        4.19408         20.8789         1.25158 
        4.20977         20.6732         1.23957 
        4.22551         20.5115         1.22768 
        4.24123         20.3039         1.21597 
        4.25691         20.0952         1.20444 
        4.27259         20.0072         1.19305 
        4.28831         19.7944         1.18179 
        4.30404         19.6126         1.17066 
        4.31974         19.4231          1.1597 
        4.33543         19.2681         1.14888 
        4.35116         19.0965         1.13817 
        4.36688         18.9923         1.12761 
        4.38255         18.7594         1.11722 
        4.39825         18.6097         1.10693 
        4.41398         18.4476         1.09675 
         4.4297         18.2967         1.08672 
        4.44541         18.1815          1.0768 
        4.46111         17.9631         1.06702 
        4.47683         17.8492         1.05736 
        4.49251         17.6811         1.04783 
        4.50819         17.5549         1.03842 
         4.5239         17.3903         1.02911 
        4.53962         17.2426          1.0199 
        4.55535         17.0909         1.01081 
        4.57106         16.9919         1.00183 
        4.58678         16.7717        0.992963 
         4.6025         16.6774          0.9842 
        4.61821         16.5406        0.975543 
        4.63391         16.3928           0.967 
         4.6496         16.2428        0.958563 
        4.66532         16.1316        0.950214 
        4.68103         15.9972        0.941966 
        4.69673         15.8652        0.933824 
        4.71241         15.7848        0.925786 
        4.72811         15.5867        0.917828 
        4.74384         15.4745        0.909954 
        4.75955         15.3901        0.902183 
        4.77525         15.2612        0.894507 
        4.79096         15.1348        0.886911 
        4.80669         14.9846        0.879398 
         4.8224         14.8517        0.871981 
        4.83809         14.7485        0.864656 
        4.85379         14.6325        0.857411 
         4.8695         14.5267        0.850242 
        4.88521         14.3974        0.843159 
        4.90093         14.2887        0.836154 
        4.91663         14.1774        0.829234 
        4.93234         14.0559        0.822386 
        4.94807         13.9591        0.815609 
        4.96377         13.8412        0.808921 
        4.97943         13.7462        0.802322 
        4.99514         13.6239        0.795779 
        5.01086         13.5155        0.789304 
        5.02654         13.4048        0.782917 
        5.04227         13.2887        0.776581 
          5.058         13.2035        0.770312 
        5.07371         13.1218        0.764125 
        5.08942         13.0348        0.758004 
        5.10513          12.928        0.751949 
        5.12084         12.8395        0.745957 
        5.13656         12.6979        0.740031 
        5.15225         12.6032        0.734179 
        5.16796         12.5048         0.72838 
        5.18369         12.4432        0.722639 
         5.1994         12.3053         0.71697 
        5.21509         12.2274        0.711366 
        5.23079         12.1464        0.705815 
        5.24649         12.0487        0.700328 
        5.26217         11.9531        0.694902 
        5.27788         11.8584        0.689526 
        5.29359         11.7687        0.684205 
        5.30933         11.6736        0.678933 
        5.32504         11.6068        0.673724 
        5.34073         11.5159        0.668576 
        5.35646         11.4377        0.663471 
        5.37218         11.3374        0.658418 
        5.38789         11.2477        0.653425 
        5.40357         11.1624         0.64849 
        5.41929         11.0778        0.643594 
        5.43502          10.981        0.638748 
         5.4507         10.9181        0.633964 
        5.46639         10.8398        0.629227 
        5.48212         10.7581        0.624528 
        5.49786         10.6681         0.61987 
        5.51353         10.6135        0.615283 
        5.52921         10.5178        0.610737 
        5.54495         10.4339        0.606224 
        5.56066         10.3711        0.601761 
        5.57637         10.2788        0.597344 
        5.59207         10.2269        0.592974 
        5.60778         10.1307        0.588646 
        5.62346         10.0849        0.584368 
        5.63916         10.0045        0.580127 
        5.65487         9.92012        0.575926 
         5.6706         9.86271        0.571762 
        5.68633         9.80645        0.567637 
        5.70203         9.72361        0.563561 
        5.71773         9.65024        0.559525 
        5.73344         9.57299        0.555527 
        5.74916         9.51442        0.551564 
        5.76486         9.45517        0.547644 
        5.78054         9.37887        0.543769 
        5.79626         9.28389         0.53992 
          5.812         9.24919        0.536104 
         5.8277         9.16941        0.532336 
        5.84339         9.11152        0.528605 
        5.85911         9.04458        0.524901 
        5.87484         8.97079        0.521234 
        5.89053         8.92607        0.517608 
        5.90623         8.86223        0.514015 
        5.92195         8.78369         0.51045 
        5.93767         8.72935        0.506921 
        5.95336         8.68529         0.50343 
        5.96905         8.62406        0.499974 
        5.98476         8.56161        0.496545 
        6.00048         8.48522        0.493147 
        6.01617         8.44743        0.489785 
        6.03185         8.38912        0.486458 
        6.04756         8.32386        0.483154 
        6.06331         8.26339        0.479873 
        6.07903          8.2185         0.47663 
        6.09473         8.16248        0.473419 
        6.11044         8.10498        0.470235 
        6.12616         8.02837        0.467081 
        6.14186          8.0012        0.463959 
        6.15755         7.94192        0.460865 
        6.17326         7.88057        0.457797 
        6.18898         7.85331        0.454755 
        6.20467         7.80213        0.451746 
        6.22036         7.72421        0.448764 
         6.2361         7.68238        0.445801 
         6.2518         7.62885         0.44287 
        6.26748         7.56415        0.439971 
        6.28319         7.52433         0.43709 
        6.29893         7.48317        0.434232 
        6.31463         7.42025        0.431405 
        6.33033         7.37911        0.428603 
        6.34604         7.32994        0.425824 
        6.36177          7.2945        0.423067 
        6.37747         7.23733         0.42034 
