# k  (h/Mpc)    Pcb(k)  (Mpc/h)^3    Pcb_linear(k) (Mpc/h)^3   ShotnoiseSubtracted = true
      0.0200456         25055.8         25468.3 
      0.0350414         17611.9         16932.2 
      0.0492313         11877.5         12107.3 
      0.0637834         9482.59         9971.79 
      0.0800726         7038.26         7396.78 
       0.096163         5563.91         5214.14 
       0.111083         4630.53         4326.69 
       0.126058         3802.31         3798.68 
       0.142273         3206.64         2996.29 
       0.158546         2612.77         2356.41 
        0.17375         2371.14         2082.36 
       0.188953          2239.7         1857.12 
       0.204907         1891.08         1551.55 
       0.220756         1708.89         1312.74 
        0.23588         1530.96         1184.06 
         0.2514         1380.46         1066.49 
       0.267535         1323.25         927.516 
       0.283568         1176.69         816.191 
       0.299022         1117.03          742.79 
       0.314451         1165.39         676.355 
       0.330372         1023.54          606.16 
       0.346141         937.994          547.57 
       0.361624         898.919         502.718 
       0.377134         861.979         462.179 
       0.392932         815.073         422.369 
       0.408854         784.104         387.284 
       0.424564         766.073         358.182 
       0.440253         707.826         331.899 
       0.455999         675.064          307.27 
       0.471626         687.421         285.329 
        0.48727         645.188         266.002 
       0.502856         622.141         248.495 
       0.518488         600.178         232.243 
       0.534347         578.574         217.236 
       0.550082         550.583         203.787 
       0.565732         540.947         191.545 
       0.581496         528.155         180.148 
       0.597222         516.769         169.688 
       0.612804         503.233         160.185 
       0.628434         482.045         151.379 
       0.644267         468.009         143.123 
       0.660051         462.957         135.503 
       0.675724         451.228         128.483 
       0.691403         438.855         121.957 
       0.707174         424.757         115.849 
       0.722871         421.944         110.184 
        0.73838         410.041         104.958 
       0.754018         399.156         100.031 
       0.769845         395.557         95.3657 
        0.78569           385.9          90.993 
       0.801365         372.338         86.9363 
       0.817031         369.652         83.1288 
       0.832809         363.562         79.5246 
       0.848511         357.819         76.1495 
       0.864097         347.093         72.9929 
       0.879701         347.439         70.0117 
       0.895507         333.499         67.1616 
       0.911279         328.355         64.4757 
        0.92691         325.269         61.9586 
       0.942635         320.393         59.5618 
       0.958396         310.008         57.2865 
       0.974128          305.97         55.1341 
       0.989692         297.537         53.1133 
        1.00528          293.54         51.1907 
        1.02113         290.405         49.3332 
        1.03692         285.417         47.5746 
        1.05264         281.038         45.9097 
        1.06832         274.681          44.327 
        1.08405         273.167         42.8146 
        1.09979         267.235         41.3719 
        1.11537         260.912         40.0098 
        1.13105         257.705         38.7008 
        1.14679         253.566         37.4453 
        1.16256         251.945         36.2429 
        1.17828         247.792         35.0972 
        1.19395          241.13         34.0048 
         1.2097         240.149         32.9533 
        1.22537         236.767         31.9512 
          1.241         230.258         30.9937 
        1.25666         228.797          30.073 
        1.27241         225.722         29.1854 
        1.28819         220.421         28.3319 
        1.30392         220.425         27.5151 
        1.31957         214.235         26.7339 
        1.33529         210.293         25.9802 
        1.35108         210.111         25.2525 
        1.36674          204.13         24.5578 
         1.3824         201.918         23.8898 
        1.39811         199.944         23.2444 
        1.41389         195.748         22.6203 
        1.42964         192.247         22.0201 
        1.44531         191.231         21.4446 
        1.46101         187.481         20.8884 
        1.47667         185.013         20.3535 
        1.49229         182.939         19.8387 
        1.50793         179.734         19.3411 
        1.52367          176.82         18.8573 
        1.53953         174.482         18.3868 
        1.55526          171.98          17.936 
        1.57092         171.129         17.5022 
        1.58662         167.337         17.0816 
        1.60235         165.552         16.6741 
        1.61809          163.15         16.2795 
        1.63369         160.124         15.9012 
        1.64941         158.547         15.5322 
        1.66519         155.802         15.1736 
        1.68085         153.551         14.8287 
        1.69652         152.402         14.4945 
        1.71228         149.827         14.1686 
        1.72806         148.187         13.8525 
        1.74368          145.73         13.5491 
        1.75933          144.71         13.2542 
        1.77505         142.764         12.9667 
        1.79081         140.033         12.6872 
         1.8065         138.688          12.417 
        1.82218          135.48          12.155 
        1.83797         134.643         11.8987 
        1.85367         132.832         11.6512 
        1.86928         131.144         11.4121 
        1.88497         130.537         11.1785 
        1.90073         128.663         10.9505 
        1.91647         126.231          10.729 
        1.93218         124.112         10.5142 
        1.94787         122.651         10.3055 
        1.96363         122.043         10.1016 
        1.97935         120.896         9.90362 
        1.99499         118.678         9.71206 
        2.01064         116.757         9.52527 
         2.0264         115.851          9.3422 
        2.04216         113.788         9.16401 
        2.05781         112.168         8.99158 
        2.07353         111.239         8.82296 
        2.08928         109.365         8.65827 
        2.10499         108.896         8.49821 
        2.12065         107.216         8.34267 
        2.13633         105.967         8.19087 
        2.15211         104.246         8.04185 
        2.16785         103.097         7.89694 
        2.18349         101.836         7.75649 
        2.19916         101.098         7.61916 
        2.21489         99.0695         7.48468 
        2.23063         97.8024         7.35334 
         2.2463         96.7742         7.22573 
        2.26194         95.8429         7.10146 
        2.27765         94.6652         6.97946 
        2.29341         93.4765         6.85999 
        2.30914          92.347         6.74356 
        2.32486         91.3967         6.62988 
        2.34061         90.0327         6.51863 
        2.35635         89.2818         6.41002 
        2.37203           87.79         6.30424 
        2.38768         86.8517         6.20107 
        2.40339         85.7643         6.09982 
        2.41914         84.8476         6.00058 
        2.43483         84.1223          5.9039 
         2.4505         82.8426         5.80949 
        2.46622         81.9475         5.71682 
        2.48195         81.0562         5.62616 
        2.49759         79.7843         5.53793 
        2.51328         79.2226         5.45136 
        2.52906         78.2367         5.36609 
        2.54479         77.3081         5.28295 
        2.56049         76.0979         5.20173 
        2.57618         75.4901         5.12227 
        2.59189         74.2273         5.04435 
        2.60758         73.1413         4.96817 
        2.62325         72.6377         4.89364 
        2.63898         72.0332         4.82038 
        2.65468         71.1408         4.74876 
        2.67044         70.1476         4.67829 
        2.68618         69.2295          4.6094 
        2.70184         68.6398         4.54217 
        2.71755         67.9704          4.4761 
        2.73329         67.0555         4.41124 
        2.74897         66.3212         4.34788 
        2.76462         65.7053         4.28589 
        2.78034         64.7595         4.22485 
        2.79607         64.0484         4.16493 
        2.81179         63.3389         4.10623 
        2.82749         62.9905         4.04873 
        2.84321         61.9197         3.99225 
        2.85893         61.2235         3.93687 
        2.87462         60.8495         3.88263 
        2.89033         59.7889         3.82935 
        2.90605         59.2543         3.77703 
        2.92176         58.8323          3.7257 
        2.93747          58.263         3.67535 
        2.95318         57.4949         3.62591 
        2.96891         56.9111         3.57736 
        2.98456         56.1712         3.52991 
        3.00023         55.7249         3.48324 
        3.01596         55.1029         3.43727 
        3.03164          54.428         3.39225 
        3.04738         54.2061         3.34791 
         3.0631         53.2646         3.30437 
        3.07883         52.6854          3.2616 
        3.09456         52.0953         3.21959 
        3.11026         51.8919         3.17838 
        3.12596         51.1549         3.13789 
        3.14163         50.5036          3.0982 
        3.15734         49.9603         3.05909 
        3.17308          49.438         3.02057 
        3.18879         48.9602         2.98281 
        3.20447         48.6228         2.94575 
         3.2202         47.9237          2.9092 
         3.2359         47.3233         2.87333 
        3.25157         47.0393         2.83815 
        3.26729          46.685         2.80345 
        3.28304         46.0648         2.76926 
        3.29877         45.6681         2.73568 
        3.31446         45.0596         2.70273 
        3.33014          44.594         2.67034 
        3.34585         44.1813         2.63844 
        3.36158         43.8552           2.607 
        3.37727         43.3447         2.57618 
        3.39294          42.891         2.54588 
        3.40867         42.4735         2.51595 
        3.42439         42.0304         2.48652 
        3.44008         41.6724         2.45762 
        3.45578          41.113         2.42915 
        3.47153         40.7072         2.40106 
        3.48724         40.3671         2.37347 
        3.50292         40.0871         2.34637 
        3.51859         39.5885         2.31971 
        3.53431         39.1189         2.29338 
        3.55007         38.7954         2.26739 
        3.56577         38.4485          2.2419 
        3.58146         38.0713         2.21681 
        3.59719         37.7298         2.19205 
        3.61292         37.3007         2.16767 
        3.62859         36.9841         2.14376 
        3.64429         36.6134         2.12015 
        3.66003         36.2411         2.09683 
        3.67578         35.9707         2.07386 
        3.69146         35.5943         2.05133 
        3.70712         35.3185         2.02916 
        3.72284         35.0129         2.00725 
        3.73853         34.6263         1.98569 
        3.75422         34.2553         1.96444 
        3.76993         34.0084         1.94348 
        3.78564         33.6333         1.92283 
        3.80137         33.4507         1.90245 
        3.81707         32.8699          1.8824 
        3.83279         32.7443         1.86263 
        3.84853         32.4432          1.8431 
        3.86424         32.1008         1.82389 
        3.87992          31.781         1.80499 
        3.89561         31.5746         1.78635 
        3.91134         31.2469         1.76793 
        3.92704         31.0532         1.74979 
        3.94273         30.6717         1.73192 
        3.95845         30.4756         1.71427 
        3.97418         30.2156         1.69686 
        3.98988         29.8354         1.67972 
        4.00554         29.6051         1.66285 
        4.02125         29.3797         1.64617 
        4.03698         29.0333         1.62969 
        4.05268         28.8128         1.61347 
        4.06839         28.5459         1.59746 
         4.0841         28.2759         1.58167 
        4.09983         28.0869         1.56608 
        4.11555         27.7512         1.55069 
        4.13124         27.5475         1.53556 
        4.14693         27.2946         1.52061 
        4.16266         27.0955         1.50582 
        4.17839         26.7929         1.49125 
        4.19408         26.5764         1.47689 
        4.20977         26.3825         1.46272 
        4.22551         26.0508          1.4487 
        4.24123         25.8108         1.43487 
        4.25691           25.69         1.42126 
        4.27259         25.4264         1.40783 
        4.28831         25.2178         1.39454 
        4.30404         24.9868          1.3814 
        4.31974         24.7583         1.36847 
        4.33543         24.5992         1.35571 
        4.35116         24.3909         1.34307 
        4.36688         24.1311         1.33061 
        4.38255         23.9681         1.31834 
        4.39825         23.7588         1.30621 
        4.41398         23.6354          1.2942 
         4.4297         23.3682         1.28235 
        4.44541         23.1512         1.27066 
        4.46111         22.9352         1.25911 
        4.47683         22.7898         1.24771 
        4.49251         22.5712         1.23646 
        4.50819         22.4246         1.22536 
         4.5239         22.1318         1.21438 
        4.53962         22.0492         1.20351 
        4.55535         21.8589         1.19278 
        4.57106         21.6576         1.18219 
        4.58678         21.4528         1.17172 
         4.6025         21.3136         1.16138 
        4.61821         21.0673         1.15116 
        4.63391         20.9773         1.14108 
         4.6496         20.7427         1.13113 
        4.66532         20.6017         1.12128 
        4.68103         20.4461         1.11154 
        4.69673         20.2715         1.10194 
        4.71241         20.1574         1.09245 
        4.72811          19.942         1.08306 
        4.74384         19.8198         1.07377 
        4.75955          19.585          1.0646 
        4.77525           19.46         1.05554 
        4.79096         19.3131         1.04658 
        4.80669           19.15         1.03771 
         4.8224          18.993         1.02896 
        4.83809         18.8564         1.02032 
        4.85379         18.7286         1.01177 
         4.8695          18.581         1.00331 
        4.88521         18.3741        0.994948 
        4.90093         18.2395        0.986682 
        4.91663         18.1252        0.978517 
        4.93234          17.944        0.970435 
        4.94807         17.8481        0.962439 
        4.96377         17.6534        0.954547 
        4.97943         17.5317         0.94676 
        4.99514         17.4229        0.939039 
        5.01086         17.2667        0.931398 
        5.02654         17.1715        0.923861 
        5.04227         16.9948        0.916385 
          5.058         16.8954        0.908988 
        5.07371         16.6999        0.901686 
        5.08942         16.5765        0.894463 
        5.10513         16.4759        0.887318 
        5.12084         16.3494        0.880247 
        5.13656         16.2235        0.873255 
        5.15225         16.1032        0.866349 
        5.16796         16.0033        0.859507 
        5.18369         15.8701        0.852732 
         5.1994          15.717        0.846042 
        5.21509         15.6433        0.839429 
        5.23079         15.5075        0.832879 
        5.24649         15.3799        0.826404 
        5.26217         15.2885        0.820001 
        5.27788         15.1558        0.813657 
        5.29359          15.062        0.807379 
        5.30933         14.9314        0.801157 
        5.32504          14.814        0.795011 
        5.34073         14.6876        0.788936 
        5.35646         14.6017        0.782912 
        5.37218         14.4289        0.776949 
        5.38789         14.4247        0.771058 
        5.40357         14.3136        0.765234 
        5.41929         14.1674        0.759457 
        5.43502         14.0477        0.753739 
         5.4507          13.964        0.748093 
        5.46639         13.8579        0.742503 
        5.48212          13.713        0.736958 
        5.49786         13.6632        0.731462 
        5.51353         13.5461        0.726049 
        5.52921         13.4687        0.720685 
        5.54495         13.3516         0.71536 
        5.56066         13.2555        0.710093 
        5.57637         13.1661         0.70488 
        5.59207         13.0762        0.699724 
        5.60778         12.9559        0.694617 
        5.62346         12.8878        0.689568 
        5.63916         12.7928        0.684564 
        5.65487         12.6916        0.679607 
         5.6706         12.5966        0.674693 
        5.68633         12.5203        0.669825 
        5.70203         12.4248        0.665016 
        5.71773         12.3451        0.660254 
        5.73344         12.2565        0.655536 
        5.74916         12.1631        0.650859 
        5.76486         12.0633        0.646234 
        5.78054         11.9795        0.641661 
        5.79626          11.908        0.637119 
          5.812         11.8121        0.632616 
         5.8277         11.7527         0.62817 
        5.84339         11.6534        0.623766 
        5.85911         11.5748        0.619396 
        5.87484         11.4694        0.615068 
        5.89053          11.412         0.61079 
        5.90623         11.3108        0.606551 
        5.92195         11.2471        0.602344 
        5.93767         11.1499        0.598179 
        5.95336         11.0777         0.59406 
        5.96905         11.0061        0.589981 
        5.98476         10.9436        0.585935 
        6.00048         10.8467        0.581925 
        6.01617         10.7925        0.577958 
        6.03185         10.6807        0.574032 
        6.04756         10.6329        0.570133 
        6.06331         10.5599        0.566262 
        6.07903         10.4795        0.562435 
        6.09473         10.4291        0.558647 
        6.11044         10.3574        0.554889 
        6.12616         10.2713        0.551167 
        6.14186         10.1946        0.547483 
        6.15755         10.1506        0.543832 
        6.17326         10.0535        0.540211 
        6.18898         9.99956        0.536622 
        6.20467         9.93906        0.533071 
        6.22036         9.84117        0.529553 
         6.2361         9.81174        0.526057 
         6.2518         9.74061        0.522597 
        6.26748         9.66988        0.519177 
        6.28319         9.61361        0.515777 
        6.29893         9.52174        0.512405 
        6.31463         9.46018        0.509068 
        6.33033         9.42146        0.505762 
        6.34604         9.33718        0.502483 
        6.36177         9.28266         0.49923 
        6.37747         9.21763        0.496011 
