# k  (h/Mpc)    Pcb(k)  (Mpc/h)^3    Pcb_linear(k) (Mpc/h)^3   ShotnoiseSubtracted = true
      0.0200456         2012.06         2038.48 
      0.0350414         1348.66         1355.25 
      0.0492313         971.681         969.067 
      0.0637834         805.545         798.141 
      0.0800726         600.904         592.038 
       0.096163         416.732          417.34 
       0.111083         342.291         346.308 
       0.126058         305.631         304.046 
       0.142273         245.483         239.823 
       0.158546         194.395         188.607 
        0.17375         166.604         166.672 
       0.188953          151.83         148.643 
       0.204907         132.586         124.186 
       0.220756          110.25         105.072 
        0.23588         98.5703         94.7723 
         0.2514         87.6487         85.3619 
       0.267535         78.0331         74.2383 
       0.283568         69.3447         65.3278 
       0.299022         63.5914         59.4529 
       0.314451          56.682         54.1354 
       0.330372          51.817          48.517 
       0.346141         46.7431         43.8275 
       0.361624         43.3866         40.2375 
       0.377134          40.555         36.9928 
       0.392932         35.7258         33.8064 
       0.408854         34.1382         30.9982 
       0.424564         31.8452         28.6689 
       0.440253         29.3163         26.5652 
       0.455999         27.4359         24.5938 
       0.471626         25.6856         22.8377 
        0.48727         24.1822         21.2908 
       0.502856         22.5617         19.8895 
       0.518488         21.4509         18.5887 
       0.534347          20.486         17.3876 
       0.550082          18.632         16.3111 
       0.565732         17.2532         15.3313 
       0.581496         16.8562          14.419 
       0.597222         16.1725         13.5818 
       0.612804         15.0265         12.8212 
       0.628434         14.4496         12.1163 
       0.644267         13.9079         11.4555 
       0.660051          13.092         10.8456 
       0.675724          12.395         10.2838 
       0.691403         11.9624         9.76146 
       0.707174         11.4033         9.27255 
       0.722871         10.9266         8.81911 
        0.73838         10.4576         8.40081 
       0.754018         10.0948         8.00646 
       0.769845         9.61995         7.63307 
        0.78569         9.29233         7.28307 
       0.801365         8.88663         6.95837 
       0.817031          8.5802         6.65363 
       0.832809         8.34609         6.36514 
       0.848511         7.83301           6.095 
       0.864097         7.60382         5.84235 
       0.879701         7.35192         5.60374 
       0.895507         7.00371         5.37561 
       0.911279         6.89036         5.16063 
        0.92691         6.64439         4.95916 
       0.942635         6.34275         4.76732 
       0.958396          6.1455         4.58521 
       0.974128         5.96666         4.41293 
       0.989692         5.86546         4.25118 
        1.00528         5.62663          4.0973 
        1.02113         5.40639         3.94863 
        1.03692         5.27553         3.80787 
        1.05264          5.1233         3.67461 
        1.06832         4.99031         3.54793 
        1.08405         4.78527         3.42688 
        1.09979         4.67328          3.3114 
        1.11537         4.57607         3.20238 
        1.13105         4.43171         3.09761 
        1.14679         4.32593         2.99712 
        1.16256          4.1844         2.90088 
        1.17828         4.10862         2.80918 
        1.19395         3.96974         2.72174 
         1.2097         3.84718         2.63758 
        1.22537         3.74414         2.55737 
          1.241         3.67221         2.48074 
        1.25666         3.62903         2.40705 
        1.27241         3.48925           2.336 
        1.28819         3.40571         2.26769 
        1.30392         3.34605          2.2023 
        1.31957         3.26697         2.13978 
        1.33529         3.18214         2.07946 
        1.35108         3.10239         2.02121 
        1.36674         3.05513         1.96561 
         1.3824         2.93587         1.91214 
        1.39811         2.88845         1.86048 
        1.41389         2.84132         1.81053 
        1.42964         2.77879         1.76249 
        1.44531         2.71912         1.71642 
        1.46101         2.65733          1.6719 
        1.47667         2.58737         1.62909 
        1.49229         2.56094         1.58789 
        1.50793         2.48664         1.54806 
        1.52367         2.45714         1.50934 
        1.53953          2.3837         1.47168 
        1.55526          2.3401          1.4356 
        1.57092         2.30058         1.40087 
        1.58662         2.24746         1.36721 
        1.60235         2.20823         1.33459 
        1.61809         2.16632         1.30301 
        1.63369          2.1306         1.27273 
        1.64941         2.08476          1.2432 
        1.66519         2.05095         1.21449 
        1.68085         2.00179         1.18689 
        1.69652         1.96446         1.16014 
        1.71228         1.93853         1.13406 
        1.72806         1.89569         1.10875 
        1.74368         1.85917         1.08447 
        1.75933          1.8296         1.06087 
        1.77505         1.80416         1.03785 
        1.79081         1.76683         1.01548 
         1.8065         1.73548         0.99386 
        1.82218         1.71525        0.972885 
        1.83797         1.69182         0.95237 
        1.85367         1.65819        0.932558 
        1.86928         1.63507        0.913426 
        1.88497         1.60055        0.894725 
        1.90073         1.57163        0.876477 
        1.91647         1.54631        0.858752 
        1.93218          1.5347        0.841553 
        1.94787         1.50629        0.824849 
        1.96363         1.47332         0.80853 
        1.97935         1.45208        0.792685 
        1.99499         1.42227        0.777353 
        2.01064         1.40987        0.762402 
         2.0264         1.39315        0.747749 
        2.04216         1.36857        0.733487 
        2.05781         1.34348        0.719686 
        2.07353         1.33078        0.706189 
        2.08928         1.30958        0.693008 
        2.10499         1.28697        0.680197 
        2.12065         1.27787        0.667747 
        2.13633         1.25375        0.655596 
        2.15211         1.23417        0.643669 
        2.16785          1.2159        0.632071 
        2.18349         1.20182        0.620829 
        2.19916         1.17851        0.609837 
        2.21489          1.1647        0.599073 
        2.23063         1.14479        0.588561 
         2.2463         1.13407        0.578347 
        2.26194         1.11431          0.5684 
        2.27765         1.10193        0.558635 
        2.29341         1.08902        0.549073 
        2.30914         1.07218        0.539754 
        2.32486         1.06446        0.530656 
        2.34061         1.04572        0.521751 
        2.35635         1.02981        0.513057 
        2.37203         1.02102        0.504591 
        2.38768         1.00956        0.496333 
        2.40339        0.995692        0.488229 
        2.41914         0.98352        0.480286 
        2.43483        0.971192        0.472547 
         2.4505        0.955793        0.464991 
        2.46622        0.946166        0.457574 
        2.48195        0.935805        0.450317 
        2.49759        0.924667        0.443256 
        2.51328        0.909845        0.436327 
        2.52906        0.900292        0.429502 
        2.54479        0.889873        0.422847 
        2.56049        0.879574        0.416346 
        2.57618        0.870915        0.409986 
        2.59189        0.861023         0.40375 
        2.60758        0.847967        0.397652 
        2.62325        0.840118        0.391687 
        2.63898        0.830998        0.385823 
        2.65468        0.822095        0.380091 
        2.67044        0.813529         0.37445 
        2.68618        0.799574        0.368936 
        2.70184        0.791901        0.363555 
        2.71755        0.782811        0.358267 
        2.73329        0.775161        0.353076 
        2.74897        0.766896        0.348004 
        2.76462        0.758967        0.343042 
        2.78034        0.751759        0.338157 
        2.79607        0.741497        0.333361 
        2.81179        0.734839        0.328662 
        2.82749        0.726209         0.32406 
        2.84321        0.720892         0.31954 
        2.85893        0.711827        0.315107 
        2.87462        0.706695        0.310765 
        2.89033        0.693568        0.306501 
        2.90605        0.689118        0.302313 
        2.92176        0.683053        0.298205 
        2.93747        0.676847        0.294175 
        2.95318        0.670229        0.290218 
        2.96891        0.662754        0.286332 
        2.98456        0.658295        0.282533 
        3.00023        0.649771        0.278798 
        3.01596        0.645212        0.275119 
        3.03164        0.640857        0.271516 
        3.04738        0.630212        0.267966 
         3.0631          0.6246        0.264482 
        3.07883        0.619299        0.261058 
        3.09456        0.615482        0.257696 
        3.11026        0.607587        0.254397 
        3.12596         0.60134        0.251156 
        3.14163        0.597085        0.247979 
        3.15734        0.591245         0.24485 
        3.17308         0.58534        0.241766 
        3.18879         0.57969        0.238744 
        3.20447        0.575229        0.235778 
         3.2202        0.569953        0.232852 
         3.2359         0.56552        0.229981 
        3.25157        0.560378        0.227165 
        3.26729         0.55515        0.224388 
        3.28304        0.551115        0.221651 
        3.29877        0.544371        0.218964 
        3.31446        0.540363        0.216326 
        3.33014        0.538063        0.213734 
        3.34585        0.533074         0.21118 
        3.36158        0.525407        0.208664 
        3.37727        0.524068        0.206197 
        3.39294        0.518712        0.203772 
        3.40867        0.514343        0.201377 
        3.42439        0.511251        0.199021 
        3.44008        0.506262        0.196707 
        3.45578        0.503917        0.194429 
        3.47153        0.499341        0.192181 
        3.48724        0.495101        0.189972 
        3.50292         0.49209        0.187804 
        3.51859        0.488302         0.18567 
        3.53431        0.483671        0.183562 
        3.55007        0.481707        0.181482 
        3.56577        0.476711        0.179442 
        3.58146        0.474022        0.177434 
        3.59719        0.469783        0.175452 
        3.61292        0.466894          0.1735 
        3.62859         0.46209        0.171586 
        3.64429        0.459597        0.169697 
        3.66003        0.455874         0.16783 
        3.67578        0.452736        0.165992 
        3.69146         0.45042        0.164188 
        3.70712         0.44632        0.162414 
        3.72284        0.443793         0.16066 
        3.73853        0.439606        0.158934 
        3.75422        0.436608        0.157233 
        3.76993        0.435098        0.155556 
        3.78564        0.431415        0.153903 
        3.80137        0.426725        0.152272 
        3.81707        0.426215        0.150667 
        3.83279        0.422023        0.149084 
        3.84853        0.418762        0.147522 
        3.86424        0.416784        0.145984 
        3.87992        0.413486        0.144471 
        3.89561        0.410874        0.142979 
        3.91134        0.407182        0.141505 
        3.92704        0.405148        0.140053 
        3.94273        0.402212        0.138623 
        3.95845        0.399769         0.13721 
        3.97418        0.395654        0.135817 
        3.98988        0.393978        0.134444 
        4.00554        0.391769        0.133095 
        4.02125        0.387775         0.13176 
        4.03698          0.3833         0.13044 
        4.05268        0.380557        0.129142 
        4.06839        0.376739        0.127861 
         4.0841        0.374658        0.126597 
        4.09983        0.371403        0.125349 
        4.11555        0.368672        0.124117 
        4.13124        0.364019        0.122906 
        4.14693         0.36139        0.121709 
        4.16266        0.358788        0.120526 
        4.17839        0.356454        0.119359 
        4.19408        0.353905         0.11821 
        4.20977        0.349719        0.117076 
        4.22551        0.348133        0.115954 
        4.24123        0.345757        0.114847 
        4.25691        0.343391        0.113758 
        4.27259         0.34116        0.112682 
        4.28831        0.338367        0.111619 
        4.30404        0.335866        0.110568 
        4.31974        0.333701        0.109532 
        4.33543        0.331474        0.108511 
        4.35116        0.330545        0.107499 
        4.36688        0.327179        0.106502 
        4.38255        0.326139         0.10552 
        4.39825        0.324556        0.104549 
        4.41398        0.321403        0.103587 
         4.4297        0.319662        0.102639 
        4.44541        0.318003        0.101703 
        4.46111        0.317701        0.100779 
        4.47683        0.314999       0.0998663 
        4.49251        0.313669       0.0989664 
        4.50819        0.312076       0.0980777 
         4.5239        0.311072       0.0971986 
        4.53962        0.310376       0.0963291 
        4.55535        0.308323       0.0954698 
        4.57106        0.307016       0.0946221 
        4.58678        0.305439       0.0937845 
         4.6025        0.304275       0.0929568 
        4.61821        0.302661       0.0921391 
        4.63391        0.302478       0.0913323 
         4.6496         0.30043       0.0905355 
        4.66532        0.300258       0.0897468 
        4.68103        0.299365       0.0889679 
        4.69673        0.298576       0.0881989 
        4.71241        0.296855       0.0874396 
        4.72811        0.296969       0.0866881 
        4.74384        0.295574       0.0859443 
        4.75955        0.295491       0.0852104 
        4.77525        0.294522       0.0844854 
        4.79096        0.294765       0.0837679 
        4.80669        0.293517       0.0830584 
         4.8224        0.293615       0.0823578 
        4.83809        0.291675        0.081666 
        4.85379        0.292868       0.0809817 
         4.8695        0.292075       0.0803046 
        4.88521        0.291621       0.0796356 
        4.90093        0.291649        0.078974 
        4.91663        0.290721       0.0783205 
        4.93234        0.290562       0.0776736 
        4.94807          0.2909       0.0770336 
        4.96377        0.290999       0.0764019 
        4.97943        0.291159       0.0757786 
        4.99514        0.291037       0.0751607 
        5.01086        0.291119       0.0745491 
        5.02654        0.291489       0.0739458 
        5.04227         0.29157       0.0733474 
          5.058        0.291367       0.0727553 
        5.07371        0.291302       0.0721709 
        5.08942         0.29233       0.0715928 
        5.10513        0.292421       0.0710209 
        5.12084        0.292704       0.0704549 
        5.13656        0.292906       0.0698953 
        5.15225        0.294546       0.0693425 
        5.16796        0.294016       0.0687949 
        5.18369        0.296014       0.0682526 
         5.1994        0.296516       0.0677171 
        5.21509        0.296253       0.0671879 
        5.23079        0.297104       0.0666636 
        5.24649        0.297837       0.0661453 
        5.26217        0.298272       0.0656329 
        5.27788        0.298432       0.0651251 
        5.29359        0.299705       0.0646226 
        5.30933        0.300672       0.0641246 
        5.32504         0.30176       0.0636326 
        5.34073        0.303211       0.0631464 
        5.35646        0.303566       0.0626642 
        5.37218        0.306226        0.062187 
        5.38789        0.306214       0.0617154 
        5.40357         0.30746       0.0612493 
        5.41929        0.307752       0.0607869 
        5.43502        0.309969       0.0603292 
         5.4507        0.310621       0.0598773 
        5.46639         0.31179       0.0594299 
        5.48212        0.314222       0.0589861 
        5.49786        0.314407       0.0585462 
        5.51353        0.315959       0.0581129 
        5.52921        0.318155       0.0576836 
        5.54495        0.319287       0.0572573 
        5.56066        0.320067       0.0568358 
        5.57637        0.321538       0.0564186 
        5.59207        0.323238       0.0560059 
        5.60778         0.32489       0.0555971 
        5.62346        0.326683        0.055193 
        5.63916        0.328068       0.0547925 
        5.65487         0.32998       0.0543957 
         5.6706        0.332255       0.0540024 
        5.68633        0.333431       0.0536128 
        5.70203        0.335441       0.0532278 
        5.71773        0.336872       0.0528467 
        5.73344        0.338169        0.052469 
        5.74916        0.340477       0.0520947 
        5.76486        0.342658       0.0517245 
        5.78054        0.344354       0.0513585 
        5.79626        0.344675        0.050995 
          5.812        0.347621       0.0506346 
         5.8277        0.348525       0.0502787 
        5.84339        0.352626       0.0499262 
        5.85911        0.352403       0.0495764 
        5.87484          0.3542         0.04923 
        5.89053        0.357077       0.0488876 
        5.90623        0.359501       0.0485483 
        5.92195        0.359856       0.0482116 
        5.93767        0.362438       0.0478782 
        5.95336        0.363904       0.0475485 
        5.96905        0.366441       0.0472221 
        5.98476        0.367965       0.0468982 
        6.00048        0.370807       0.0465773 
        6.01617        0.372989       0.0462597 
        6.03185        0.374379       0.0459455 
        6.04756        0.376409       0.0456334 
        6.06331        0.379594       0.0453236 
        6.07903        0.381237       0.0450173 
        6.09473        0.382609        0.044714 
        6.11044        0.385055       0.0444133 
        6.12616         0.38721       0.0441154 
        6.14186        0.387865       0.0438205 
        6.15755        0.390101       0.0435283 
        6.17326        0.392868       0.0432385 
        6.18898        0.394553       0.0429512 
        6.20467         0.39671        0.042667 
        6.22036        0.398825       0.0423854 
         6.2361        0.400257       0.0421055 
         6.2518         0.40325       0.0418287 
        6.26748        0.403679       0.0415549 
        6.28319        0.406937       0.0412828 
        6.29893        0.410001       0.0410128 
        6.31463        0.409547       0.0407458 
        6.33033        0.411987       0.0404812 
        6.34604        0.412468       0.0402187 
        6.36177        0.416112       0.0399583 
        6.37747        0.418316       0.0397007 
