# k  (h/Mpc)    Pcb(k)  (Mpc/h)^3    Pcb_linear(k) (Mpc/h)^3   ShotnoiseSubtracted = true
      0.0200456         22809.3         23172.7 
      0.0350414         16008.8           15406 
      0.0492313         10829.7           11016 
      0.0637834         8648.32         9072.98 
      0.0800726          6419.7         6730.07 
       0.096163         5050.71         4744.17 
       0.111083         4206.62          3936.7 
       0.126058          3456.2         3456.29 
       0.142273            2902         2726.22 
       0.158546         2366.24         2144.02 
        0.17375         2140.79         1894.67 
       0.188953         2013.26         1689.72 
       0.204907         1695.83          1411.7 
       0.220756         1528.98         1194.42 
        0.23588         1370.46         1077.34 
         0.2514         1231.65         970.363 
       0.267535         1182.25         843.914 
       0.283568         1046.54         742.623 
       0.299022         995.086         675.839 
       0.314451         1034.59         615.392 
       0.330372         901.298         551.524 
       0.346141           826.6         498.215 
       0.361624          791.88         457.405 
       0.377134         756.779         420.521 
       0.392932         718.347         384.299 
       0.408854         689.105         352.376 
       0.424564         672.002         325.897 
       0.440253         617.968         301.984 
       0.455999         589.675         279.574 
       0.471626         600.443         259.611 
        0.48727         563.492         242.026 
       0.502856         538.359         226.097 
       0.518488         522.952          211.31 
       0.534347         500.504         197.656 
       0.550082         476.438         185.419 
       0.565732          469.51          174.28 
       0.581496         457.538          163.91 
       0.597222         446.401         154.393 
       0.612804         434.895         145.746 
       0.628434         416.813         137.734 
       0.644267         403.506         130.223 
       0.660051         398.844         123.289 
       0.675724         388.462         116.903 
       0.691403         379.636         110.965 
       0.707174         366.016         105.407 
       0.722871         361.645         100.252 
        0.73838          353.61         95.4974 
       0.754018         342.601         91.0145 
       0.769845         340.411           86.77 
        0.78569         331.522         82.7913 
       0.801365         319.929         79.1003 
       0.817031         318.453          75.636 
       0.832809         312.197         72.3566 
       0.848511         306.645         69.2858 
       0.864097         297.208         66.4137 
       0.879701         296.575         63.7012 
       0.895507          285.81          61.108 
       0.911279         280.736         58.6642 
        0.92691         278.185          56.374 
       0.942635         274.357         54.1932 
       0.958396         265.761          52.123 
       0.974128         262.997         50.1646 
       0.989692         254.034         48.3259 
        1.00528          252.34         46.5767 
        1.02113         249.577         44.8865 
        1.03692         244.553         43.2865 
        1.05264         240.158         41.7716 
        1.06832         236.427         40.3316 
        1.08405         233.301         38.9556 
        1.09979         229.006         37.6428 
        1.11537         224.444         36.4035 
        1.13105         220.892         35.2125 
        1.14679         218.359         34.0701 
        1.16256         215.937         32.9762 
        1.17828         212.547         31.9337 
        1.19395         206.705         30.9398 
         1.2097         206.497         29.9831 
        1.22537         203.711         29.0713 
          1.241         197.377         28.2001 
        1.25666         196.736         27.3624 
        1.27241         193.512         26.5548 
        1.28819         190.116         25.7783 
        1.30392         189.015          25.035 
        1.31957         183.831         24.3243 
        1.33529         180.613         23.6385 
        1.35108         180.127         22.9764 
        1.36674         174.773         22.3443 
         1.3824         173.727         21.7365 
        1.39811         172.505         21.1493 
        1.41389         168.079         20.5814 
        1.42964         165.296         20.0354 
        1.44531         164.525         19.5117 
        1.46101         161.461         19.0056 
        1.47667         159.785         18.5189 
        1.49229         157.639         18.0505 
        1.50793         154.786         17.5978 
        1.52367         152.719         17.1576 
        1.53953         150.011         16.7295 
        1.55526         148.627         16.3194 
        1.57092           147.8         15.9246 
        1.58662         144.224          15.542 
        1.60235         143.034         15.1711 
        1.61809         140.502         14.8122 
        1.63369         138.043          14.468 
        1.64941         136.886         14.1322 
        1.66519         134.709         13.8059 
        1.68085         132.691         13.4922 
        1.69652         131.611          13.188 
        1.71228         129.035         12.8915 
        1.72806         128.076         12.6039 
        1.74368         126.216         12.3279 
        1.75933         125.071         12.0596 
        1.77505         123.413          11.798 
        1.79081         121.123         11.5436 
         1.8065         119.346         11.2978 
        1.82218          117.41         11.0594 
        1.83797         116.491         10.8262 
        1.85367         115.317          10.601 
        1.86928         113.957         10.3835 
        1.88497         112.619         10.1709 
        1.90073         111.479         9.96347 
        1.91647         109.351         9.76198 
        1.93218         108.097         9.56647 
        1.94787         106.294         9.37659 
        1.96363         105.783         9.19108 
        1.97935          104.62         9.01096 
        1.99499         103.123         8.83666 
        2.01064         101.209         8.66671 
         2.0264         100.108         8.50014 
        2.04216         98.8113         8.33802 
        2.05781         97.4776         8.18113 
        2.07353         96.7084          8.0277 
        2.08928         95.1712         7.87786 
        2.10499         94.6505         7.73223 
        2.12065         92.9449          7.5907 
        2.13633         92.1963         7.45258 
        2.15211         90.7235           7.317 
        2.16785         89.7258         7.18515 
        2.18349         88.2347         7.05736 
        2.19916         87.9238          6.9324 
        2.21489         86.5716         6.81005 
        2.23063         85.1054         6.69055 
         2.2463         84.4292         6.57444 
        2.26194         83.6203         6.46137 
        2.27765         82.3562         6.35036 
        2.29341         81.4514         6.24167 
        2.30914         80.2711         6.13573 
        2.32486          79.246          6.0323 
        2.34061         78.1792         5.93107 
        2.35635         77.6703         5.83225 
        2.37203         76.4137         5.73601 
        2.38768         75.5062         5.64213 
        2.40339         74.6919         5.55001 
        2.41914         73.8653         5.45972 
        2.43483         73.1821         5.37175 
         2.4505         71.9945         5.28585 
        2.46622         71.1954         5.20154 
        2.48195         70.6822         5.11904 
        2.49759          69.446         5.03877 
        2.51328         68.6941         4.96001 
        2.52906         67.7185         4.88242 
        2.54479         67.1545         4.80677 
        2.56049         66.0826         4.73287 
        2.57618         65.3951         4.66058 
        2.59189         64.5901         4.58968 
        2.60758         63.5693         4.52036 
        2.62325         63.0776         4.45255 
        2.63898         62.7272         4.38589 
        2.65468         61.8734         4.32073 
        2.67044         61.1011         4.25661 
        2.68618         60.5005         4.19393 
        2.70184         59.7599         4.13276 
        2.71755         59.0881         4.07265 
        2.73329          58.214         4.01364 
        2.74897         57.8645         3.95598 
        2.76462         57.1224         3.89958 
        2.78034         56.3109         3.84404 
        2.79607         55.8588         3.78952 
        2.81179         55.3285         3.73612 
        2.82749         54.8836          3.6838 
        2.84321         54.1569         3.63241 
        2.85893         53.4529         3.58202 
        2.87462          53.017         3.53267 
        2.89033         52.3548         3.48419 
        2.90605         51.7744         3.43658 
        2.92176         51.2939         3.38988 
        2.93747         50.9168         3.34407 
        2.95318         50.1962         3.29909 
        2.96891         49.5986         3.25491 
        2.98456         48.9757         3.21174 
        3.00023         48.6904         3.16928 
        3.01596         47.9743         3.12745 
        3.03164         47.4263         3.08649 
        3.04738         47.1534         3.04615 
         3.0631         46.4039         3.00653 
        3.07883         45.7934         2.96761 
        3.09456         45.3233         2.92939 
        3.11026         45.0293         2.89189 
        3.12596         44.4581         2.85506 
        3.14163         43.9458         2.81894 
        3.15734         43.4304         2.78336 
        3.17308         43.0875         2.74831 
        3.18879         42.7345         2.71396 
        3.20447         42.3127         2.68023 
         3.2202         41.7534         2.64698 
         3.2359         41.3596         2.61434 
        3.25157         40.9795         2.58233 
        3.26729         40.4849         2.55076 
        3.28304         40.1637         2.51965 
        3.29877         39.6454          2.4891 
        3.31446         39.3021         2.45912 
        3.33014         38.8739         2.42965 
        3.34585         38.3682         2.40062 
        3.36158         38.0701         2.37202 
        3.37727         37.6439         2.34397 
        3.39294         37.4207          2.3164 
        3.40867         36.9682         2.28918 
        3.42439         36.7024          2.2624 
        3.44008         36.1792          2.2361 
        3.45578         35.8837          2.2102 
        3.47153         35.4201         2.18464 
        3.48724         35.1104         2.15954 
        3.50292         34.7827         2.13488 
        3.51859         34.4571         2.11062 
        3.53431         34.1389         2.08667 
        3.55007         33.8399         2.06302 
        3.56577         33.5082         2.03983 
        3.58146         33.1947           2.017 
        3.59719         32.8393         1.99447 
        3.61292         32.4795         1.97229 
        3.62859         32.2111         1.95053 
        3.64429          31.938         1.92905 
        3.66003         31.6691         1.90783 
        3.67578         31.3128         1.88694 
        3.69146         31.0713         1.86643 
        3.70712          30.693         1.84627 
        3.72284          30.404         1.82632 
        3.73853         30.1927         1.80671 
        3.75422         29.8095         1.78737 
        3.76993         29.6595          1.7683 
        3.78564         29.3303         1.74951 
        3.80137         29.1057         1.73097 
        3.81707         28.7472         1.71273 
        3.83279         28.6144         1.69474 
        3.84853         28.2061         1.67697 
        3.86424         27.9464          1.6595 
        3.87992         27.7832         1.64229 
        3.89561         27.4581         1.62533 
        3.91134         27.2194         1.60858 
        3.92704         26.9647         1.59207 
        3.94273         26.6837         1.57582 
        3.95845         26.5125         1.55976 
        3.97418         26.2033         1.54392 
        3.98988         25.9345         1.52832 
        4.00554         25.7594         1.51297 
        4.02125         25.5187         1.49779 
        4.03698         25.2531          1.4828 
        4.05268         25.0944         1.46804 
        4.06839         24.8265         1.45348 
         4.0841         24.6107         1.43911 
        4.09983         24.3485         1.42492 
        4.11555          24.103         1.41092 
        4.13124         23.9478         1.39715 
        4.14693         23.6639         1.38355 
        4.16266         23.4627          1.3701 
        4.17839         23.3156         1.35683 
        4.19408         23.1598         1.34377 
        4.20977         22.9036         1.33088 
        4.22551         22.6739         1.31812 
        4.24123         22.5015         1.30554 
        4.25691         22.2781         1.29316 
        4.27259         22.1859         1.28093 
        4.28831         21.8855         1.26884 
        4.30404         21.7382         1.25689 
        4.31974         21.5515         1.24512 
        4.33543         21.3487         1.23351 
        4.35116         21.1463         1.22202 
        4.36688         21.0349         1.21067 
        4.38255         20.8003         1.19951 
        4.39825         20.5885         1.18847 
        4.41398         20.4419         1.17754 
         4.4297         20.3286         1.16677 
        4.44541         20.1218         1.15613 
        4.46111         19.9605         1.14562 
        4.47683         19.7773         1.13524 
        4.49251         19.5756         1.12501 
        4.50819         19.4592         1.11491 
         4.5239         19.2694         1.10492 
        4.53962         19.1048         1.09503 
        4.55535         18.9504         1.08527 
        4.57106         18.8352         1.07563 
        4.58678         18.6148         1.06611 
         4.6025         18.5226          1.0567 
        4.61821         18.2938          1.0474 
        4.63391         18.1751         1.03823 
         4.6496         18.0161         1.02917 
        4.66532          17.897         1.02021 
        4.68103         17.7648         1.01135 
        4.69673          17.551         1.00261 
        4.71241         17.4673        0.993982 
        4.72811         17.2606        0.985439 
        4.74384         17.1438        0.976984 
        4.75955         17.0252        0.968641 
        4.77525         16.8648          0.9604 
        4.79096         16.7832        0.952243 
        4.80669         16.6032        0.944178 
         4.8224         16.4844        0.936214 
        4.83809         16.3329         0.92835 
        4.85379         16.2205        0.920571 
         4.8695         16.1234        0.912874 
        4.88521          15.928        0.905268 
        4.90093         15.8121        0.897748 
        4.91663         15.7037        0.890319 
        4.93234         15.5271        0.882965 
        4.94807         15.4488         0.87569 
        4.96377         15.3112        0.868509 
        4.97943         15.2243        0.861424 
        4.99514         15.0945        0.854399 
        5.01086         14.9346        0.847447 
        5.02654         14.8595        0.840589 
        5.04227         14.7201        0.833787 
          5.058         14.5941        0.827056 
        5.07371         14.4963        0.820413 
        5.08942         14.4346        0.813841 
        5.10513         14.2865         0.80734 
        5.12084          14.195        0.800906 
        5.13656          14.061        0.794544 
        5.15225         13.9981        0.788261 
        5.16796         13.8422        0.782035 
        5.18369         13.7526        0.775871 
         5.1994         13.6298        0.769784 
        5.21509         13.5578        0.763767 
        5.23079         13.4391        0.757808 
        5.24649           13.34        0.751916 
        5.26217          13.244        0.746091 
        5.27788         13.1485        0.740318 
        5.29359         13.0409        0.734606 
        5.30933          12.956        0.728945 
        5.32504         12.8462        0.723353 
        5.34073         12.7477        0.717825 
        5.35646         12.6576        0.712344 
        5.37218         12.5732        0.706919 
        5.38789          12.483        0.701559 
        5.40357         12.3985         0.69626 
        5.41929         12.3029        0.691003 
        5.43502          12.195        0.685801 
         5.4507         12.0863        0.680663 
        5.46639         12.0354        0.675578 
        5.48212         11.9153        0.670532 
        5.49786         11.8099        0.665532 
        5.51353         11.7829        0.660607 
        5.52921          11.674        0.655726 
        5.54495         11.5801        0.650881 
        5.56066         11.4896        0.646089 
        5.57637         11.4069        0.641346 
        5.59207         11.3363        0.636655 
        5.60778         11.2456        0.632008 
        5.62346         11.1872        0.627414 
        5.63916         11.1062        0.622861 
        5.65487         11.0052        0.618351 
         5.6706         10.9174         0.61388 
        5.68633          10.883        0.609451 
        5.70203         10.7905        0.605075 
        5.71773         10.7018        0.600742 
        5.73344         10.6297        0.596449 
        5.74916         10.5568        0.592194 
        5.76486         10.4923        0.587986 
        5.78054         10.4133        0.583825 
        5.79626         10.3259        0.579692 
          5.812          10.257        0.575596 
         5.8277         10.2078         0.57155 
        5.84339         10.1076        0.567543 
        5.85911         10.0589        0.563567 
        5.87484         9.96239        0.559629 
        5.89053         9.90052        0.555737 
        5.90623         9.83791        0.551879 
        5.92195         9.76351        0.548052 
        5.93767         9.68064        0.544262 
        5.95336         9.64361        0.540515 
        5.96905         9.55454        0.536804 
        5.98476         9.50068        0.533122 
        6.00048         9.42304        0.529473 
        6.01617         9.36297        0.525864 
        6.03185         9.31263        0.522292 
        6.04756          9.2454        0.518744 
        6.06331         9.18196        0.515222 
        6.07903         9.10738         0.51174 
        6.09473         9.05071        0.508293 
        6.11044         8.98531        0.504875 
        6.12616         8.92674        0.501488 
        6.14186         8.87514        0.498135 
        6.15755         8.81154        0.494814 
        6.17326         8.74472        0.491519 
        6.18898         8.70569        0.488253 
        6.20467          8.6332        0.485023 
        6.22036         8.55784        0.481822 
         6.2361         8.52018         0.47864 
         6.2518         8.45986        0.475493 
        6.26748         8.40184        0.472381 
        6.28319         8.35413        0.469288 
        6.29893         8.29905        0.466219 
        6.31463         8.24533        0.463183 
        6.33033          8.1932        0.460175 
        6.34604          8.1284        0.457192 
        6.36177         8.08549        0.454232 
        6.37747         8.02673        0.451303 
