# k  (h/Mpc)    Pcb(k)  (Mpc/h)^3    Pcb_linear(k) (Mpc/h)^3   ShotnoiseSubtracted = true
      0.0200456         27180.9         27641.9 
      0.0350414         19131.4         18377.2 
      0.0492313         12865.9         13140.6 
      0.0637834         10270.1         10822.8 
      0.0800726         7622.24         8028.04 
       0.096163         6051.58         5659.14 
       0.111083         5032.37         4695.94 
       0.126058         4131.28         4122.88 
       0.142273         3497.46         3252.01 
       0.158546         2847.77         2557.52 
        0.17375         2592.27         2260.08 
       0.188953         2458.45         2015.61 
       0.204907         2079.72         1683.97 
       0.220756         1883.55         1424.78 
        0.23588         1686.79         1285.11 
         0.2514         1525.71         1157.51 
       0.267535         1460.46         1006.67 
       0.283568         1304.22         885.847 
       0.299022         1236.31         806.182 
       0.314451         1292.48         734.078 
       0.330372         1144.15         657.892 
       0.346141         1048.83         594.302 
       0.361624         1005.09         545.622 
       0.377134         966.666         501.623 
       0.392932         910.733         458.416 
       0.408854          878.91         420.336 
       0.424564         859.666         388.751 
       0.440253          798.11         360.225 
       0.455999          760.89         333.493 
       0.471626         773.683          309.68 
        0.48727         726.932         288.703 
       0.502856         706.468         269.702 
       0.518488         678.133         252.064 
       0.534347         657.473         235.776 
       0.550082         626.404         221.179 
       0.565732         613.665         207.892 
       0.581496         599.787         195.522 
       0.597222         588.519          184.17 
       0.612804         572.504         173.855 
       0.628434         549.031         164.298 
       0.644267         533.953         155.338 
       0.660051         528.259         147.067 
       0.675724         516.029         139.449 
       0.691403         499.157         132.366 
       0.707174         485.094         125.736 
       0.722871          484.36         119.587 
        0.73838         468.003         113.915 
       0.754018         458.027         108.568 
       0.769845         452.469         103.505 
        0.78569         441.952         98.7586 
       0.801365         427.385         94.3557 
       0.817031         422.672         90.2234 
       0.832809          416.55         86.3115 
       0.848511         409.913         82.6484 
       0.864097          398.92         79.2224 
       0.879701         400.505         75.9868 
       0.895507         384.367         72.8934 
       0.911279         379.253         69.9783 
        0.92691         374.502         67.2464 
       0.942635          368.55          64.645 
       0.958396         357.503         62.1756 
       0.974128         351.784         59.8394 
       0.989692         344.099         57.6462 
        1.00528         337.554         55.5596 
        1.02113         333.864         53.5435 
        1.03692         328.636         51.6348 
        1.05264         324.157         49.8278 
        1.06832         316.187           48.11 
        1.08405          315.13         46.4686 
        1.09979         308.072         44.9027 
        1.11537         300.268         43.4244 
        1.13105         296.979         42.0037 
        1.14679         291.669          40.641 
        1.16256         289.775          39.336 
        1.17828         285.614         38.0926 
        1.19395         278.362         36.9069 
         1.2097         275.458         35.7657 
        1.22537         272.238          34.678 
          1.241         265.621         33.6389 
        1.25666          263.21         32.6396 
        1.27241         260.476         31.6762 
        1.28819         253.644         30.7499 
        1.30392           253.3         29.8633 
        1.31957         247.095         29.0155 
        1.33529         242.393         28.1975 
        1.35108         242.169         27.4077 
        1.36674         236.607         26.6537 
         1.3824         232.327         25.9287 
        1.39811         229.256         25.2282 
        1.41389         225.778         24.5508 
        1.42964         221.819         23.8994 
        1.44531         220.046         23.2748 
        1.46101         215.361         22.6711 
        1.47667         212.511         22.0905 
        1.49229         210.747         21.5318 
        1.50793         206.558         20.9917 
        1.52367           203.3         20.4666 
        1.53953         201.019          19.956 
        1.55526         197.229         19.4667 
        1.57092         196.413         18.9959 
        1.58662         192.326         18.5395 
        1.60235         189.521         18.0971 
        1.61809         187.699         17.6689 
        1.63369         184.057         17.2583 
        1.64941           182.1         16.8578 
        1.66519         178.832         16.4685 
        1.68085         176.232         16.0943 
        1.69652         174.549         15.7315 
        1.71228         172.116         15.3778 
        1.72806         170.017         15.0347 
        1.74368         167.356         14.7055 
        1.75933         165.921         14.3854 
        1.77505         163.614         14.0733 
        1.79081         160.694         13.7699 
         1.8065         159.721         13.4768 
        1.82218         155.575         13.1923 
        1.83797         154.556         12.9142 
        1.85367         152.514         12.6455 
        1.86928         150.262         12.3861 
        1.88497         149.636         12.1325 
        1.90073         147.372         11.8851 
        1.91647         144.979         11.6447 
        1.93218         142.105         11.4115 
        1.94787         140.374          11.185 
        1.96363          139.69         10.9637 
        1.97935         138.184         10.7488 
        1.99499         135.802         10.5409 
        2.01064         133.785         10.3382 
         2.0264         132.931         10.1395 
        2.04216         130.336         9.94611 
        2.05781         128.539         9.75896 
        2.07353         127.591         9.57594 
        2.08928         125.276          9.3972 
        2.10499         124.463         9.22348 
        2.12065         123.264         9.05466 
        2.13633         121.329         8.88991 
        2.15211         119.718         8.72817 
        2.16785         118.415         8.57089 
        2.18349         117.139         8.41846 
        2.19916         115.873          8.2694 
        2.21489         113.556         8.12345 
        2.23063         112.288          7.9809 
         2.2463         110.766          7.8424 
        2.26194         109.825         7.70752 
        2.27765         108.278         7.57511 
        2.29341         106.985         7.44545 
        2.30914         105.763         7.31908 
        2.32486          104.73          7.1957 
        2.34061         103.204         7.07495 
        2.35635         102.074         6.95707 
        2.37203         100.632         6.84227 
        2.38768         99.4043         6.73029 
        2.40339         98.4611          6.6204 
        2.41914         97.1909         6.51269 
        2.43483         96.1252         6.40776 
         2.4505         95.0921          6.3053 
        2.46622         93.6618         6.20472 
        2.48195         92.4091         6.10631 
        2.49759         91.2675         6.01056 
        2.51328         90.4939          5.9166 
        2.52906         89.5318         5.82405 
        2.54479         88.5439         5.73382 
        2.56049         87.2298         5.64566 
        2.57618         86.4112         5.55943 
        2.59189         85.4316         5.47486 
        2.60758         84.0435         5.39217 
        2.62325         83.3247         5.31128 
        2.63898         82.3697         5.23177 
        2.65468         81.7511         5.15404 
        2.67044         80.5392         5.07755 
        2.68618         79.4194         5.00278 
        2.70184         78.7442         4.92981 
        2.71755         78.0427         4.85811 
        2.73329         76.7666         4.78772 
        2.74897         76.1341         4.71894 
        2.76462         75.4741         4.65166 
        2.78034         74.5109         4.58541 
        2.79607         73.6747         4.52038 
        2.81179         72.6341         4.45667 
        2.82749         72.1528         4.39426 
        2.84321         71.0782         4.33297 
        2.85893         70.2004         4.27286 
        2.87462         69.5584         4.21399 
        2.89033         68.8409         4.15616 
        2.90605         67.9497         4.09937 
        2.92176         67.4259         4.04366 
        2.93747         66.5851         3.98902 
        2.95318         65.7422         3.93536 
        2.96891          65.348         3.88266 
        2.98456         64.3404         3.83116 
        3.00023         63.6136         3.78051 
        3.01596         63.1847         3.73062 
        3.03164         62.2829         3.68176 
        3.04738         61.8538         3.63363 
         3.0631          61.107         3.58638 
        3.07883          60.397         3.53995 
        3.09456         59.5044         3.49436 
        3.11026         59.4559         3.44963 
        3.12596         58.4902         3.40569 
        3.14163          57.999         3.36261 
        3.15734         57.1373         3.32017 
        3.17308         56.7474         3.27836 
        3.18879          56.112         3.23738 
        3.20447         55.6978         3.19715 
         3.2202         54.8018         3.15748 
         3.2359         54.2654         3.11855 
        3.25157         53.8286         3.08037 
        3.26729         53.2459         3.04271 
        3.28304         52.8033          3.0056 
        3.29877         52.2722         2.96915 
        3.31446         51.5564         2.93339 
        3.33014         51.1079         2.89824 
        3.34585         50.5707         2.86361 
        3.36158         50.1926          2.8295 
        3.37727         49.7826         2.79604 
        3.39294         49.1248         2.76315 
        3.40867         48.6818         2.73067 
        3.42439         48.1326         2.69873 
        3.44008         47.7693         2.66736 
        3.45578          47.069         2.63646 
        3.47153         46.6697         2.60598 
        3.48724         46.1676         2.57603 
        3.50292         45.8614         2.54662 
        3.51859         45.4252         2.51768 
        3.53431         44.8241          2.4891 
        3.55007         44.4398          2.4609 
        3.56577         44.0263         2.43323 
        3.58146         43.5197           2.406 
        3.59719         43.1595         2.37913 
        3.61292         42.7164         2.35267 
        3.62859         42.3912         2.32671 
        3.64429         42.0167         2.30109 
        3.66003         41.4995         2.27578 
        3.67578         41.0689         2.25085 
        3.69146         40.6853          2.2264 
        3.70712         40.4084         2.20234 
        3.72284         40.0371         2.17855 
        3.73853         39.7047         2.15515 
        3.75422         39.2747         2.13209 
        3.76993         38.9454         2.10934 
        3.78564         38.5837         2.08693 
        3.80137         38.2265         2.06481 
        3.81707         37.7095         2.04305 
        3.83279         37.4715         2.02159 
        3.84853         37.1925          2.0004 
        3.86424         36.7322         1.97955 
        3.87992         36.3579         1.95903 
        3.89561         36.0654          1.9388 
        3.91134         35.7005         1.91881 
        3.92704          35.422         1.89912 
        3.94273         35.1391         1.87973 
        3.95845         34.8633         1.86058 
        3.97418         34.4621         1.84168 
        3.98988          34.179         1.82307 
        4.00554           33.86         1.80477 
        4.02125          33.586         1.78666 
        4.03698         33.2946         1.76878 
        4.05268         32.9203         1.75117 
        4.06839         32.6515          1.7338 
         4.0841         32.4019         1.71666 
        4.09983         32.1001         1.69973 
        4.11555         31.8723         1.68303 
        4.13124         31.5069         1.66661 
        4.14693         31.2998         1.65038 
        4.16266         31.0493         1.63434 
        4.17839         30.6297         1.61851 
        4.19408         30.4084         1.60293 
        4.20977         30.1689         1.58755 
        4.22551          29.916         1.57233 
        4.24123           29.61         1.55733 
        4.25691         29.4445         1.54256 
        4.27259          29.067         1.52798 
        4.28831         28.8992         1.51355 
        4.30404         28.5796          1.4993 
        4.31974         28.4292         1.48526 
        4.33543         28.1654         1.47141 
        4.35116         27.9043          1.4577 
        4.36688         27.6315         1.44416 
        4.38255         27.4847         1.43085 
        4.39825         27.2432         1.41768 
        4.41398         27.0315         1.40465 
         4.4297         26.7232         1.39179 
        4.44541         26.5089          1.3791 
        4.46111         26.2466         1.36657 
        4.47683         26.0919         1.35419 
        4.49251         25.8807         1.34199 
        4.50819         25.7002         1.32994 
         4.5239         25.3672         1.31802 
        4.53962         25.2741         1.30623 
        4.55535         25.0063         1.29457 
        4.57106         24.8352         1.28308 
        4.58678         24.5788         1.27172 
         4.6025         24.3936          1.2605 
        4.61821         24.2118         1.24941 
        4.63391         24.0576         1.23847 
         4.6496         23.7736         1.22766 
        4.66532         23.5806         1.21697 
        4.68103          23.349         1.20641 
        4.69673         23.2254         1.19598 
        4.71241         23.0611         1.18568 
        4.72811         22.8653         1.17549 
        4.74384         22.6948         1.16541 
        4.75955         22.4984         1.15546 
        4.77525         22.3026         1.14562 
        4.79096         22.1476          1.1359 
        4.80669          21.962         1.12627 
         4.8224          21.753         1.11677 
        4.83809         21.5501         1.10739 
        4.85379         21.4207         1.09811 
         4.8695         21.2356         1.08893 
        4.88521         21.1069         1.07986 
        4.90093         20.8663         1.07089 
        4.91663          20.774         1.06203 
        4.93234         20.5503         1.05326 
        4.94807         20.4128         1.04458 
        4.96377         20.2401         1.03601 
        4.97943         20.0529         1.02756 
        4.99514         19.9665         1.01918 
        5.01086          19.792         1.01089 
        5.02654         19.6191         1.00271 
        5.04227         19.4537        0.994593 
          5.058         19.3145        0.986564 
        5.07371         19.1535        0.978639 
        5.08942         19.0042          0.9708 
        5.10513         18.8808        0.963045 
        5.12084         18.7304        0.955371 
        5.13656         18.5443        0.947781 
        5.15225         18.4358        0.940287 
        5.16796         18.2863         0.93286 
        5.18369         18.1548        0.925507 
         5.1994         17.9843        0.918246 
        5.21509         17.8939        0.911069 
        5.23079         17.7416         0.90396 
        5.24649         17.6275        0.896932 
        5.26217         17.4832        0.889983 
        5.27788         17.3313        0.883098 
        5.29359          17.167        0.876283 
        5.30933         17.0752        0.869531 
        5.32504         16.9594         0.86286 
        5.34073         16.7993        0.856267 
        5.35646         16.6781        0.849729 
        5.37218         16.5559        0.843257 
        5.38789         16.4454        0.836863 
        5.40357         16.3441        0.830542 
        5.41929         16.2061        0.824272 
        5.43502         16.0754        0.818066 
         5.4507         15.9544        0.811938 
        5.46639         15.8499        0.805871 
        5.48212         15.7084        0.799853 
        5.49786         15.6099        0.793888 
        5.51353         15.4913        0.788013 
        5.52921         15.3592        0.782191 
        5.54495         15.2648        0.776411 
        5.56066         15.1498        0.770695 
        5.57637         15.0476        0.765038 
        5.59207         14.9456        0.759441 
        5.60778         14.8057        0.753899 
        5.62346          14.743        0.748419 
        5.63916          14.616        0.742988 
        5.65487         14.4956        0.737607 
         5.6706         14.3996        0.732274 
        5.68633         14.2765        0.726991 
        5.70203          14.208        0.721771 
        5.71773         14.1144        0.716602 
        5.73344         14.0109        0.711481 
        5.74916         13.9165        0.706406 
        5.76486         13.7625        0.701386 
        5.78054         13.6973        0.696423 
        5.79626         13.6031        0.691493 
          5.812         13.4952        0.686606 
         5.8277         13.3855        0.681781 
        5.84339         13.3224        0.677001 
        5.85911         13.2325        0.672258 
        5.87484         13.1062        0.667561 
        5.89053         13.0081        0.662918 
        5.90623         12.9392        0.658316 
        5.92195         12.8079         0.65375 
        5.93767         12.7581         0.64923 
        5.95336         12.6599        0.644759 
        5.96905         12.5844        0.640333 
        5.98476         12.5039        0.635941 
        6.00048         12.4011        0.631589 
        6.01617         12.3256        0.627283 
        6.03185         12.2269        0.623022 
        6.04756         12.1878        0.618791 
        6.06331         12.0765        0.614589 
        6.07903         11.9659        0.610435 
        6.09473         11.8903        0.606324 
        6.11044         11.8455        0.602246 
        6.12616         11.7389        0.598206 
        6.14186         11.6754        0.594207 
        6.15755         11.5979        0.590244 
        6.17326         11.4914        0.586315 
        6.18898           11.42        0.582419 
        6.20467         11.3484        0.578566 
        6.22036         11.2673        0.574747 
         6.2361         11.1773        0.570952 
         6.2518         11.1117        0.567198 
        6.26748         11.0386        0.563485 
        6.28319         10.9618        0.559795 
        6.29893         10.8942        0.556135 
        6.31463         10.7979        0.552514 
        6.33033          10.732        0.548926 
        6.34604         10.6891        0.545367 
        6.36177         10.6038        0.541836 
        6.37747         10.5496        0.538343 
