# k  (h/Mpc)    Pcb(k)  (Mpc/h)^3    Pcb_linear(k) (Mpc/h)^3   ShotnoiseSubtracted = true
      0.0200456         4445.36         4508.43 
      0.0350414         2962.89         2997.35 
      0.0492313         2144.56         2143.24 
      0.0637834         1790.59         1765.21 
      0.0800726         1336.92         1309.38 
       0.096163         919.106         923.012 
       0.111083         754.031         765.914 
       0.126058         679.935         672.446 
       0.142273         550.829         530.406 
       0.158546         441.084         417.134 
        0.17375         372.404         368.621 
       0.188953         345.196         328.748 
       0.204907         306.775         274.657 
       0.220756         255.423         232.383 
        0.23588         227.522         209.604 
         0.2514         200.818         188.791 
       0.267535         182.754          164.19 
       0.283568         163.785         144.483 
       0.299022         150.976         131.489 
       0.314451         135.671         119.729 
       0.330372         124.595         107.303 
       0.346141         111.803         96.9313 
       0.361624         105.219         88.9915 
       0.377134         98.6313         81.8154 
       0.392932         87.7844         74.7682 
       0.408854         84.0847         68.5573 
       0.424564         79.8396         63.4057 
       0.440253         73.9245         58.7531 
       0.455999         69.1264         54.3931 
       0.471626         64.2311         50.5092 
        0.48727         61.5569         47.0879 
       0.502856         58.1514         43.9888 
       0.518488         55.5859         41.1119 
       0.534347         53.3088         38.4554 
       0.550082         48.6764         36.0746 
       0.565732         45.8487         33.9075 
       0.581496         44.4686         31.8899 
       0.597222         42.8862         30.0384 
       0.612804         40.1945          28.356 
       0.628434         38.8932         26.7972 
       0.644267         37.7179         25.3357 
       0.660051          36.015         23.9868 
       0.675724          34.164         22.7442 
       0.691403         33.0728          21.589 
       0.707174         31.9372         20.5077 
       0.722871         30.7319         19.5048 
        0.73838         29.6599         18.5797 
       0.754018         28.3224         17.7075 
       0.769845         27.5144         16.8817 
        0.78569         26.6642         16.1077 
       0.801365         25.6156         15.3895 
       0.817031         24.9627         14.7155 
       0.832809          24.443         14.0775 
       0.848511         22.9908           13.48 
       0.864097         22.5738         12.9213 
       0.879701         21.9839         12.3935 
       0.895507           21.45          11.889 
       0.911279         20.7225         11.4135 
        0.92691         20.2399          10.968 
       0.942635         19.4077         10.5437 
       0.958396         19.0875         10.1409 
       0.974128         18.4634         9.75988 
       0.989692         18.2315         9.40216 
        1.00528          17.783         9.06183 
        1.02113         17.0548           8.733 
        1.03692         16.6573         8.42169 
        1.05264         16.4129         8.12697 
        1.06832         15.8991          7.8468 
        1.08405         15.5087         7.57908 
        1.09979         15.1676         7.32368 
        1.11537         14.8652         7.08256 
        1.13105         14.6082         6.85085 
        1.14679         14.3703         6.62859 
        1.16256         13.8062         6.41575 
        1.17828         13.7472         6.21294 
        1.19395         13.2774         6.01956 
         1.2097         13.1489         5.83342 
        1.22537         12.8141         5.65603 
          1.241         12.5585         5.48654 
        1.25666         12.2425         5.32356 
        1.27241         11.9787         5.16642 
        1.28819         11.7472         5.01535 
        1.30392         11.6317         4.87074 
        1.31957         11.4431         4.73247 
        1.33529         11.2239         4.59904 
        1.35108         10.9577         4.47022 
        1.36674         10.8326         4.34725 
         1.3824         10.5541           4.229 
        1.39811         10.3963         4.11475 
        1.41389         10.2502         4.00427 
        1.42964         10.0851         3.89802 
        1.44531          9.9705         3.79614 
        1.46101          9.6788         3.69768 
        1.47667         9.57489         3.60299 
        1.49229         9.43815         3.51186 
        1.50793         9.28677         3.42377 
        1.52367         9.11914         3.33813 
        1.53953         8.99611         3.25484 
        1.55526          8.8569         3.17505 
        1.57092         8.69115         3.09825 
        1.58662         8.62043         3.02381 
        1.60235         8.46132         2.95166 
        1.61809         8.35136         2.88182 
        1.63369         8.22423         2.81485 
        1.64941         8.07171         2.74953 
        1.66519         8.01524         2.68604 
        1.68085         7.87206           2.625 
        1.69652         7.75669         2.56583 
        1.71228         7.63803         2.50814 
        1.72806         7.57458         2.45218 
        1.74368         7.43187         2.39848 
        1.75933         7.36549         2.34628 
        1.77505         7.26239         2.29538 
        1.79081         7.13427         2.24589 
         1.8065         7.08223         2.19808 
        1.82218         6.94776         2.15169 
        1.83797         6.88998         2.10632 
        1.85367         6.78177          2.0625 
        1.86928          6.7648         2.02018 
        1.88497         6.59763         1.97882 
        1.90073         6.56697         1.93847 
        1.91647          6.4911         1.89926 
        1.93218          6.4277         1.86123 
        1.94787         6.31721         1.82428 
        1.96363         6.26467         1.78819 
        1.97935         6.14725         1.75315 
        1.99499         6.06887         1.71924 
        2.01064         6.02301         1.68617 
         2.0264         5.96163         1.65376 
        2.04216         5.88421         1.62222 
        2.05781         5.80024          1.5917 
        2.07353         5.76884         1.56185 
        2.08928         5.69417         1.53269 
        2.10499         5.65486         1.50436 
        2.12065         5.55822         1.47683 
        2.13633         5.53569         1.44995 
        2.15211         5.44899         1.42357 
        2.16785         5.39755         1.39792 
        2.18349         5.34139         1.37306 
        2.19916         5.28119         1.34875 
        2.21489         5.22416         1.32494 
        2.23063         5.16814         1.30169 
         2.2463         5.10985          1.2791 
        2.26194         5.04752         1.25711 
        2.27765         5.02405         1.23551 
        2.29341         4.96761         1.21436 
        2.30914         4.89252         1.19375 
        2.32486          4.8429         1.17363 
        2.34061         4.80982         1.15393 
        2.35635         4.77832         1.13471 
        2.37203         4.72837         1.11598 
        2.38768         4.65474         1.09772 
        2.40339         4.63165         1.07979 
        2.41914         4.56386         1.06223 
        2.43483         4.54988         1.04511 
         2.4505         4.50027          1.0284 
        2.46622         4.45909           1.012 
        2.48195         4.39736        0.995947 
        2.49759         4.37996         0.98033 
        2.51328         4.33502        0.965005 
        2.52906         4.30649         0.94991 
        2.54479         4.25211        0.935193 
        2.56049         4.22528        0.920814 
        2.57618         4.18578        0.906749 
        2.59189         4.13009        0.892955 
        2.60758         4.11956        0.879469 
        2.62325         4.06308        0.866276 
        2.63898         4.01879        0.853307 
        2.65468         3.97879         0.84063 
        2.67044         3.95754        0.828154 
        2.68618         3.93038         0.81596 
        2.70184         3.88422        0.804058 
        2.71755          3.8533        0.792363 
        2.73329         3.82935        0.780882 
        2.74897         3.81144        0.769665 
        2.76462         3.77126        0.758692 
        2.78034         3.71456        0.747886 
        2.79607         3.69322        0.737279 
        2.81179         3.67312        0.726888 
        2.82749         3.62648        0.716709 
        2.84321         3.62234        0.706712 
        2.85893          3.5876        0.696908 
        2.87462         3.54366        0.687306 
        2.89033          3.5257        0.677875 
        2.90605         3.49128        0.668612 
        2.92176         3.45589        0.659526 
        2.93747         3.43346        0.650613 
        2.95318         3.40703        0.641862 
        2.96891         3.38275        0.633267 
        2.98456         3.35534        0.624867 
        3.00023          3.3189        0.616606 
        3.01596          3.3013        0.608468 
        3.03164           3.292        0.600499 
        3.04738          3.2569         0.59265 
         3.0631         3.22452        0.584942 
        3.07883         3.20602        0.577371 
        3.09456         3.18536        0.569934 
        3.11026         3.15807        0.562639 
        3.12596         3.13234        0.555472 
        3.14163         3.10317        0.548445 
        3.15734         3.08438        0.541523 
        3.17308         3.06187        0.534704 
        3.18879          3.0396         0.52802 
        3.20447         3.02628        0.521459 
         3.2202         2.98577        0.514989 
         3.2359         2.97675         0.50864 
        3.25157         2.95187        0.502412 
        3.26729         2.93728        0.496269 
        3.28304         2.91391        0.490216 
        3.29877          2.8887        0.484272 
        3.31446         2.86961        0.478439 
        3.33014         2.85455        0.472706 
        3.34585         2.83508        0.467059 
        3.36158         2.80933        0.461494 
        3.37727         2.78848        0.456037 
        3.39294         2.78068        0.450673 
        3.40867         2.74939        0.445376 
        3.42439         2.73696        0.440166 
        3.44008         2.71322        0.435049 
        3.45578         2.69355         0.43001 
        3.47153         2.67859        0.425038 
        3.48724         2.65728        0.420154 
        3.50292         2.64517        0.415357 
        3.51859         2.62793        0.410637 
        3.53431         2.60434        0.405976 
        3.55007         2.59034        0.401375 
        3.56577         2.57516        0.396863 
        3.58146         2.56527        0.392422 
        3.59719         2.54794        0.388039 
        3.61292         2.52473        0.383723 
        3.62859         2.50144        0.379489 
        3.64429         2.48595        0.375311 
        3.66003         2.47522        0.371182 
        3.67578         2.46291        0.367117 
        3.69146         2.43741        0.363128 
        3.70712         2.43084        0.359204 
        3.72284         2.41018        0.355324 
        3.73853         2.39547        0.351508 
        3.75422          2.3807        0.347746 
        3.76993         2.36266        0.344036 
        3.78564         2.35076        0.340381 
        3.80137         2.34045        0.336773 
        3.81707         2.31711        0.333224 
        3.83279         2.30382        0.329723 
        3.84853         2.28953        0.326267 
        3.86424         2.27756        0.322867 
        3.87992         2.26101         0.31952 
        3.89561         2.25363         0.31622 
        3.91134         2.23557         0.31296 
        3.92704         2.22299        0.309749 
        3.94273         2.20617        0.306587 
        3.95845         2.19058        0.303462 
        3.97418         2.17834         0.30038 
        3.98988         2.16334        0.297345 
        4.00554         2.14503         0.29436 
        4.02125         2.13151        0.291407 
        4.03698         2.12282         0.28849 
        4.05268         2.10593        0.285619 
        4.06839         2.09694        0.282784 
         4.0841         2.08184        0.279989 
        4.09983         2.06387        0.277228 
        4.11555         2.05539        0.274505 
        4.13124         2.03795        0.271826 
        4.14693         2.02391        0.269179 
        4.16266         2.01138        0.266562 
        4.17839         2.00028        0.263981 
        4.19408         1.98495         0.26144 
        4.20977         1.97117        0.258931 
        4.22551         1.96028        0.256449 
        4.24123         1.94904        0.254002 
        4.25691          1.9349        0.251593 
        4.27259         1.92829        0.249215 
        4.28831         1.91654        0.246862 
        4.30404         1.90322        0.244537 
        4.31974         1.89183        0.242247 
        4.33543         1.88188        0.239988 
        4.35116         1.86252        0.237752 
        4.36688         1.86365        0.235545 
        4.38255         1.84976        0.233374 
        4.39825         1.83461        0.231226 
        4.41398         1.82696          0.2291 
         4.4297         1.81062        0.227003 
        4.44541         1.80148        0.224933 
        4.46111           1.792        0.222889 
        4.47683         1.77712         0.22087 
        4.49251          1.7754         0.21888 
        4.50819         1.76504        0.216914 
         4.5239         1.75246         0.21497 
        4.53962         1.74631        0.213047 
        4.55535         1.73657        0.211146 
        4.57106         1.72758        0.209272 
        4.58678         1.71872        0.207419 
         4.6025         1.70765        0.205588 
        4.61821         1.69638         0.20378 
        4.63391         1.68841        0.201996 
         4.6496         1.67851        0.200233 
        4.66532         1.66845        0.198489 
        4.68103         1.66364        0.196766 
        4.69673         1.65302        0.195066 
        4.71241         1.64279        0.193386 
        4.72811         1.63468        0.191724 
        4.74384         1.62837        0.190079 
        4.75955         1.62231        0.188456 
        4.77525         1.61374        0.186853 
        4.79096          1.6032        0.185266 
        4.80669          1.5937        0.183697 
         4.8224         1.59097        0.182147 
        4.83809          1.5802        0.180617 
        4.85379         1.57346        0.179104 
         4.8695         1.56359        0.177606 
        4.88521         1.55504        0.176127 
        4.90093         1.55084        0.174663 
        4.91663         1.54409        0.173218 
        4.93234         1.53375        0.171787 
        4.94807         1.53087        0.170372 
        4.96377         1.52188        0.168975 
        4.97943          1.5133        0.167596 
        4.99514          1.5069         0.16623 
        5.01086         1.49758        0.164877 
        5.02654         1.49094        0.163543 
        5.04227         1.48875        0.162219 
          5.058         1.47969         0.16091 
        5.07371         1.47346        0.159617 
        5.08942         1.46793        0.158339 
        5.10513         1.45969        0.157074 
        5.12084         1.45488        0.155822 
        5.13656         1.44716        0.154584 
        5.15225          1.4411        0.153362 
        5.16796         1.43496        0.152151 
        5.18369         1.42919        0.150951 
         5.1994         1.42417        0.149767 
        5.21509         1.41574        0.148596 
        5.23079         1.41207        0.147437 
        5.24649         1.40586        0.146291 
        5.26217         1.40012        0.145157 
        5.27788         1.39115        0.144034 
        5.29359         1.39115        0.142923 
        5.30933         1.38539        0.141822 
        5.32504         1.37737        0.140734 
        5.34073         1.37148        0.139658 
        5.35646         1.36527        0.138592 
        5.37218         1.35727        0.137536 
        5.38789         1.35906        0.136493 
        5.40357         1.35156        0.135462 
        5.41929         1.34482         0.13444 
        5.43502         1.33927        0.133427 
         5.4507         1.33527        0.132428 
        5.46639         1.33049        0.131439 
        5.48212         1.32473        0.130457 
        5.49786         1.32187        0.129484 
        5.51353         1.31367        0.128526 
        5.52921           1.309        0.127576 
        5.54495         1.30417        0.126634 
        5.56066         1.29734        0.125701 
        5.57637         1.29364        0.124779 
        5.59207         1.28955        0.123866 
        5.60778         1.28351        0.122962 
        5.62346         1.28014        0.122068 
        5.63916         1.27377        0.121182 
        5.65487         1.27067        0.120305 
         5.6706         1.26619        0.119435 
        5.68633         1.26152        0.118573 
        5.70203         1.25417        0.117722 
        5.71773          1.2522        0.116879 
        5.73344         1.24581        0.116043 
        5.74916         1.24015        0.115216 
        5.76486         1.23753        0.114397 
        5.78054         1.23423        0.113587 
        5.79626         1.22962        0.112783 
          5.812         1.22662        0.111986 
         5.8277         1.21913        0.111199 
        5.84339         1.21683         0.11042 
        5.85911         1.21242        0.109646 
        5.87484         1.21082         0.10888 
        5.89053         1.20639        0.108123 
        5.90623         1.20091        0.107372 
        5.92195         1.19647        0.106627 
        5.93767         1.19392         0.10589 
        5.95336         1.18943        0.105161 
        5.96905         1.18663        0.104439 
        5.98476         1.17864        0.103723 
        6.00048         1.17575        0.103013 
        6.01617         1.17254        0.102311 
        6.03185         1.16892        0.101616 
        6.04756         1.16497        0.100925 
        6.06331         1.16416         0.10024 
        6.07903         1.15899       0.0995627 
        6.09473         1.15758       0.0988921 
        6.11044         1.15173        0.098227 
        6.12616         1.14707       0.0975681 
        6.14186         1.14286       0.0969158 
        6.15755         1.14088       0.0962696 
        6.17326         1.13707       0.0956287 
        6.18898         1.13373       0.0949932 
        6.20467         1.13094       0.0943647 
        6.22036         1.12684       0.0937419 
         6.2361          1.1216        0.093123 
         6.2518          1.1207       0.0925106 
        6.26748         1.11489       0.0919051 
        6.28319         1.11158       0.0913033 
        6.29893         1.10847       0.0907063 
        6.31463         1.10793       0.0901157 
        6.33033         1.10312       0.0895305 
        6.34604         1.09811         0.08895 
        6.36177         1.09775       0.0883741 
        6.37747          1.0936       0.0878043 
