# k  (h/Mpc)    Pcb(k)  (Mpc/h)^3    Pcb_linear(k) (Mpc/h)^3   ShotnoiseSubtracted = true
      0.0200456         4717.99         4783.83 
      0.0350414         3463.01         3391.91 
      0.0492313         2438.74         2439.69 
      0.0637834         2002.44         2047.84 
      0.0800726         1578.61         1620.72 
       0.096163         1189.88         1157.57 
       0.111083         962.624         925.769 
       0.126058         823.955         830.788 
       0.142273          698.35          700.43 
       0.158546         563.305         547.345 
        0.17375         487.173         463.731 
       0.188953         444.977         423.624 
       0.204907         378.228         373.712 
       0.220756         333.955         314.058 
        0.23588         294.031         274.104 
         0.2514         265.694         250.693 
       0.267535          250.53         226.646 
       0.283568         218.428         199.041 
       0.299022          203.22         177.643 
       0.314451         195.425         163.087 
       0.330372         171.694         149.659 
       0.346141          157.95         135.564 
       0.361624         147.349         123.298 
       0.377134         134.741          113.77 
       0.392932         131.023         105.372 
       0.408854         122.135         97.0658 
       0.424564         116.378         89.4982 
       0.440253         105.878         83.1155 
       0.455999         97.8815         77.5178 
       0.471626         94.0262         72.2958 
        0.48727         91.1641         67.4268 
       0.502856         84.0545         63.0959 
       0.518488         80.9153         59.2292 
       0.534347          76.297         55.6038 
       0.550082         73.8457         52.2576 
       0.565732         71.5658         49.2094 
       0.581496         66.3273         46.4205 
       0.597222         63.9124         43.8523 
       0.612804         61.6017         41.4866 
       0.628434         60.2871         39.2838 
       0.644267         57.0277         37.2258 
       0.660051         54.8143         35.3278 
       0.675724         52.8994         33.5736 
       0.691403         52.0068         31.9372 
       0.707174         50.1611         30.4009 
       0.722871         48.6803         28.9719 
        0.73838          46.544         27.6504 
       0.754018         44.1322         26.4016 
       0.769845         43.5596         25.2166 
        0.78569         42.0116         24.1036 
       0.801365         40.8586         23.0693 
       0.817031         39.2681         22.0969 
       0.832809         38.5969         21.1749 
       0.848511         37.4035         20.3102 
       0.864097          36.547         19.5003 
       0.879701         35.8474         18.7342 
       0.895507         34.5322         18.0005 
       0.911279         33.5484         17.3081 
        0.92691          32.903         16.6582 
       0.942635         32.2009         16.0383 
       0.958396          31.598          15.449 
       0.974128         30.7335         14.8906 
       0.989692         29.6007         14.3655 
        1.00528         29.2985         13.8652 
        1.02113         28.5127         13.3811 
        1.03692         28.0404          12.922 
        1.05264         27.4424         12.4868 
        1.06832         26.9306         12.0725 
        1.08405         26.1779          11.676 
        1.09979         25.8959         11.2972 
        1.11537         25.0784         10.9391 
        1.13105         24.6732         10.5946 
        1.14679         24.0922         10.2636 
        1.16256         23.7473         9.94629 
        1.17828         23.3915         9.64352 
        1.19395         22.9507         9.35447 
         1.2097         22.5124          9.0759 
        1.22537         22.0901         8.81011 
          1.241         21.6566         8.55585 
        1.25666         21.3765         8.31106 
        1.27241         21.0313         8.07478 
        1.28819         20.2487         7.84736 
        1.30392         20.4675         7.62943 
        1.31957         19.9492         7.42081 
        1.33529         19.5636         7.21928 
        1.35108          19.376         7.02449 
        1.36674         19.0217         6.83834 
         1.3824         18.6543         6.65915 
        1.39811         18.2911         6.48584 
        1.41389         18.0999         6.31807 
        1.42964         17.8868         6.15657 
        1.44531         17.5941         6.00154 
        1.46101         17.3549         5.85155 
        1.47667         17.1001         5.70717 
        1.49229          16.722         5.56809 
        1.50793         16.5877         5.43351 
        1.52367         16.3768         5.30255 
        1.53953         16.1502         5.17505 
        1.55526          15.829         5.05279 
        1.57092         15.7982         4.93502 
        1.58662         15.5578         4.82074 
        1.60235         15.2934         4.70988 
        1.61809         15.1322         4.60247 
        1.63369         14.8981         4.49939 
        1.64941         14.7242         4.39876 
        1.66519         14.5159         4.30085 
        1.68085         14.2292         4.20664 
        1.69652         14.2628         4.11524 
        1.71228         13.9814         4.02606 
        1.72806         13.7747         3.93947 
        1.74368         13.6578          3.8563 
        1.75933         13.5101         3.77539 
        1.77505         13.3344         3.69643 
        1.79081         13.1742         3.61961 
         1.8065         13.0741         3.54531 
        1.82218         12.9547         3.47317 
        1.83797         12.8162         3.40256 
        1.85367         12.6851         3.33432 
        1.86928         12.5184         3.26837 
        1.88497         12.3865         3.20385 
        1.90073         12.2012         3.14085 
        1.91647         11.9368          3.0796 
        1.93218         11.9524         3.02013 
        1.94787         11.7317         2.96233 
        1.96363         11.6802         2.90581 
        1.97935          11.547          2.8509 
        1.99499         11.4016         2.79773 
        2.01064          11.289         2.74584 
         2.0264         11.1245         2.69495 
        2.04216         11.1559         2.64538 
        2.05781         11.0017         2.59738 
        2.07353         10.8674          2.5504 
        2.08928         10.7233         2.50449 
        2.10499         10.6103         2.45984 
        2.12065         10.5415         2.41642 
        2.13633         10.4117         2.37401 
        2.15211         10.3216         2.33236 
        2.16785         10.1915         2.29182 
        2.18349         10.0947         2.25251 
        2.19916         10.0009         2.21404 
        2.21489         9.90998         2.17635 
        2.23063         9.86557         2.13951 
         2.2463         9.69325          2.1037 
        2.26194          9.6152          2.0688 
        2.27765         9.50714         2.03452 
        2.29341         9.39342         2.00093 
        2.30914         9.36739         1.96817 
        2.32486         9.26763         1.93616 
        2.34061         9.20472         1.90482 
        2.35635         9.10019          1.8742 
        2.37203         8.98885         1.84437 
        2.38768         8.89739         1.81525 
        2.40339          8.8569         1.78666 
        2.41914         8.74594         1.75862 
        2.43483         8.71815         1.73128 
         2.4505         8.62381         1.70457 
        2.46622         8.52483         1.67834 
        2.48195         8.50551         1.65266 
        2.49759         8.35135         1.62766 
        2.51328         8.32835         1.60311 
        2.52906          8.2308         1.57891 
        2.54479         8.15646         1.55531 
        2.56049         8.07128         1.53224 
        2.57618         8.02952         1.50965 
        2.59189           8.034          1.4875 
        2.60758         7.89236         1.46582 
        2.62325         7.82031          1.4446 
        2.63898         7.82094         1.42373 
        2.65468         7.69798         1.40332 
        2.67044         7.65951         1.38323 
        2.68618         7.56193         1.36357 
        2.70184         7.53877         1.34438 
        2.71755         7.45459         1.32551 
        2.73329         7.35953         1.30698 
        2.74897         7.32483         1.28886 
        2.76462         7.29399         1.27113 
        2.78034         7.21255         1.25365 
        2.79607           7.185         1.23649 
        2.81179         7.10096         1.21968 
        2.82749         7.03388         1.20319 
        2.84321         6.99731           1.187 
        2.85893         6.94885         1.17111 
        2.87462          6.8936         1.15553 
        2.89033         6.81785         1.14023 
        2.90605         6.78328         1.12519 
        2.92176         6.71343         1.11044 
        2.93747         6.66213         1.09595 
        2.95318          6.6064         1.08172 
        2.96891         6.55626         1.06774 
        2.98456         6.50983         1.05407 
        3.00023         6.47721         1.04062 
        3.01596         6.38377         1.02737 
        3.03164         6.36376         1.01438 
        3.04738         6.31615         1.00158 
         3.0631         6.26268        0.989009 
        3.07883          6.2221        0.976653 
        3.09456         6.14376         0.96451 
        3.11026         6.11362        0.952593 
        3.12596         6.06277         0.94088 
        3.14163         6.04104        0.929392 
        3.15734         5.97896         0.91807 
        3.17308         5.97381        0.906909 
        3.18879         5.89679        0.895966 
        3.20447         5.85398        0.885219 
         3.2202         5.80832        0.874617 
         3.2359         5.76446        0.864208 
        3.25157         5.73229        0.853993 
        3.26729         5.69133        0.843913 
        3.28304          5.6486        0.833978 
        3.29877         5.61568        0.824215 
        3.31446         5.58766        0.814631 
        3.33014         5.52265        0.805208 
        3.34585         5.49422        0.795921 
        3.36158         5.44261        0.786767 
        3.37727         5.41215        0.777785 
        3.39294         5.37253        0.768953 
        3.40867         5.34339        0.760227 
        3.42439         5.28347        0.751642 
        3.44008         5.25876        0.743206 
        3.45578         5.22044        0.734894 
        3.47153         5.17451        0.726692 
        3.48724          5.1445         0.71863 
        3.50292         5.09933        0.710709 
        3.51859         5.07681        0.702911 
        3.53431         5.03756        0.695208 
        3.55007         5.00481        0.687601 
        3.56577         4.95423        0.680138 
        3.58146         4.93201         0.67279 
        3.59719         4.90283        0.665534 
        3.61292         4.86787        0.658387 
        3.62859          4.8397        0.651373 
        3.64429         4.80479        0.644449 
        3.66003         4.77448        0.637604 
        3.67578         4.75059        0.630861 
        3.69146         4.70858        0.624242 
        3.70712         4.68771         0.61773 
        3.72284         4.65221        0.611287 
        3.73853         4.61351        0.604947 
        3.75422         4.57464        0.598696 
        3.76993         4.57156        0.592528 
        3.78564         4.52494        0.586449 
        3.80137         4.49277        0.580447 
        3.81707         4.45438        0.574541 
        3.83279         4.43437        0.568713 
        3.84853         4.39068        0.562956 
        3.86424         4.37068        0.557291 
        3.87992         4.35333        0.551712 
        3.89561         4.32508         0.54621 
        3.91134          4.2863        0.540772 
        3.92704         4.25275        0.535415 
        3.94273         4.23214        0.530136 
        3.95845         4.20442        0.524918 
        3.97418         4.17244         0.51977 
        3.98988         4.14594        0.514698 
        4.00554         4.12176        0.509708 
        4.02125         4.08147         0.50477 
        4.03698         4.06439         0.49989 
        4.05268         4.02602        0.495086 
        4.06839          4.0067        0.490342 
         4.0841          3.9756        0.485661 
        4.09983         3.95003        0.481036 
        4.11555         3.92319        0.476472 
        4.13124         3.89751        0.471981 
        4.14693         3.87798        0.467544 
        4.16266         3.84984        0.463154 
        4.17839          3.8255        0.458823 
        4.19408         3.80246        0.454557 
        4.20977         3.77551        0.450345 
        4.22551         3.74517        0.446175 
        4.24123         3.71449        0.442063 
        4.25691         3.69561        0.438014 
        4.27259         3.66982        0.434015 
        4.28831         3.63983        0.430058 
        4.30404         3.62609        0.426146 
        4.31974         3.59465        0.422292 
        4.33543         3.57869        0.418488 
        4.35116         3.55787        0.414722 
        4.36688         3.53509        0.411004 
        4.38255         3.51777        0.407345 
        4.39825         3.49246        0.403723 
        4.41398         3.46824        0.400138 
         4.4297         3.45332        0.396601 
        4.44541         3.42828        0.393107 
        4.46111         3.39451        0.389658 
        4.47683         3.38004        0.386249 
        4.49251         3.35862        0.382887 
        4.50819         3.33917        0.379566 
         4.5239         3.31397         0.37628 
        4.53962         3.28537        0.373028 
        4.55535         3.27454        0.369814 
        4.57106         3.25437        0.366642 
        4.58678         3.23004        0.363508 
         4.6025         3.21851        0.360409 
        4.61821         3.19398        0.357347 
        4.63391          3.1684        0.354324 
         4.6496         3.15177        0.351338 
        4.66532         3.13664        0.348382 
        4.68103          3.1163        0.345461 
        4.69673         3.09907        0.342577 
        4.71241         3.08061        0.339728 
        4.72811         3.05913        0.336907 
        4.74384         3.04845        0.334115 
        4.75955         3.01854        0.331359 
        4.77525         3.00469        0.328636 
        4.79096         2.98883         0.32594 
        4.80669         2.96496        0.323273 
         4.8224         2.95225        0.320639 
        4.83809         2.94138        0.318037 
        4.85379         2.92038        0.315463 
         4.8695         2.90145        0.312915 
        4.88521         2.87824        0.310397 
        4.90093         2.86895        0.307906 
        4.91663         2.85362        0.305444 
        4.93234         2.83402        0.303007 
        4.94807         2.81798        0.300595 
        4.96377         2.80593        0.298214 
        4.97943          2.7902        0.295864 
        4.99514          2.7681        0.293533 
        5.01086         2.75127        0.291226 
        5.02654         2.73413        0.288949 
        5.04227         2.72576         0.28669 
          5.058         2.71194        0.284454 
        5.07371         2.69381        0.282247 
        5.08942         2.67004        0.280063 
        5.10513         2.66083        0.277902 
        5.12084          2.6433        0.275762 
        5.13656         2.63174        0.273646 
        5.15225         2.61448        0.271555 
        5.16796         2.60182        0.269483 
        5.18369         2.58147        0.267431 
         5.1994         2.57221        0.265404 
        5.21509         2.55766          0.2634 
        5.23079         2.54966        0.261414 
        5.24649          2.5287        0.259451 
        5.26217         2.51175        0.257509 
        5.27788         2.50367        0.255584 
        5.29359         2.49467        0.253678 
        5.30933          2.4788         0.25179 
        5.32504           2.465        0.249924 
        5.34073         2.44997        0.248078 
        5.35646         2.43343        0.246248 
        5.37218          2.4249        0.244436 
        5.38789         2.40919        0.242646 
        5.40357         2.39877        0.240875 
        5.41929         2.38406        0.239118 
        5.43502         2.37508        0.237378 
         5.4507         2.35289         0.23566 
        5.46639         2.34117        0.233959 
        5.48212         2.33283        0.232271 
        5.49786          2.3215        0.230597 
        5.51353         2.31051        0.228949 
        5.52921         2.29567        0.227314 
        5.54495         2.28226        0.225691 
        5.56066         2.27347        0.224086 
        5.57637         2.26071        0.222496 
        5.59207         2.24609        0.220924 
        5.60778          2.2437        0.219366 
        5.62346         2.22387        0.217825 
        5.63916         2.21483        0.216298 
        5.65487         2.19716        0.214784 
         5.6706         2.19332        0.213284 
        5.68633         2.18023        0.211797 
        5.70203         2.16765        0.210327 
        5.71773         2.15638        0.208872 
        5.73344         2.14584         0.20743 
        5.74916         2.13557           0.206 
        5.76486         2.12672        0.204585 
        5.78054          2.1123        0.203187 
        5.79626         2.10178        0.201797 
          5.812         2.08831        0.200419 
         5.8277         2.07823        0.199058 
        5.84339         2.07222        0.197709 
        5.85911          2.0595        0.196371 
        5.87484         2.05273        0.195045 
        5.89053         2.04131        0.193734 
        5.90623         2.03179        0.192434 
        5.92195          2.0201        0.191145 
        5.93767           2.012        0.189868 
        5.95336         1.99912        0.188604 
        5.96905         1.99292        0.187353 
        5.98476         1.98019        0.186111 
        6.00048         1.96878         0.18488 
        6.01617          1.9619        0.183662 
        6.03185         1.95118        0.182457 
        6.04756         1.94425        0.181259 
        6.06331         1.93639         0.18007 
        6.07903         1.92368        0.178894 
        6.09473         1.91536        0.177729 
        6.11044         1.90712        0.176574 
        6.12616         1.89927         0.17543 
        6.14186         1.89268        0.174296 
        6.15755         1.87817        0.173173 
        6.17326         1.86901        0.172059 
        6.18898         1.86333        0.170954 
        6.20467         1.85115        0.169861 
        6.22036         1.84205        0.168778 
         6.2361         1.83776        0.167701 
         6.2518         1.82875        0.166635 
        6.26748         1.82148        0.165581 
        6.28319         1.81336        0.164533 
        6.29893         1.80092        0.163493 
        6.31463         1.79354        0.162465 
        6.33033         1.78433        0.161445 
        6.34604         1.77854        0.160433 
        6.36177         1.77392         0.15943 
        6.37747         1.76205        0.158436 
