# k  (h/Mpc)    Pcb(k)  (Mpc/h)^3    Pcb_linear(k) (Mpc/h)^3   ShotnoiseSubtracted = true
      0.0200456         7210.91         7315.37 
      0.0350414         5311.38         5186.87 
      0.0492313         3718.43         3730.74 
      0.0637834         3044.54         3131.53 
      0.0800726         2397.43         2478.38 
       0.096163         1827.15         1770.14 
       0.111083         1481.95         1415.67 
       0.126058         1258.65         1270.43 
       0.142273         1072.15         1071.09 
       0.158546         869.485         836.992 
        0.17375         755.722         709.131 
       0.188953         694.986           647.8 
       0.204907         590.498         571.475 
       0.220756         524.568         480.254 
        0.23588         463.866         419.156 
         0.2514         417.261         383.356 
       0.267535         399.116         346.584 
       0.283568         347.268         304.371 
       0.299022         327.185          271.65 
       0.314451         320.649          249.39 
       0.330372         277.999         228.857 
       0.346141          256.95         207.302 
       0.361624         242.509         188.546 
       0.377134         222.755         173.976 
       0.392932         216.923         161.133 
       0.408854         204.663         148.432 
       0.424564         195.553          136.86 
       0.440253          176.91         127.099 
       0.455999         166.174         118.539 
       0.471626         162.204         110.554 
        0.48727         156.017         103.108 
       0.502856         142.555         96.4854 
       0.518488         140.553         90.5725 
       0.534347         131.538         85.0285 
       0.550082         128.327         79.9117 
       0.565732         125.574         75.2503 
       0.581496         115.772         70.9856 
       0.597222         113.048         67.0584 
       0.612804         109.225         63.4407 
       0.628434         106.369         60.0723 
       0.644267         100.829         56.9252 
       0.660051         97.6719         54.0228 
       0.675724          95.738         51.3403 
       0.691403         93.6468          48.838 
       0.707174          90.329         46.4886 
       0.722871         88.4477         44.3035 
        0.73838         85.7568         42.2826 
       0.754018         80.7582         40.3729 
       0.769845         80.2357         38.5609 
        0.78569         77.7863          36.859 
       0.801365         75.4274         35.2772 
       0.817031         72.8459         33.7903 
       0.832809         71.5768         32.3804 
       0.848511         69.8698         31.0582 
       0.864097         68.5962         29.8196 
       0.879701         67.2061          28.648 
       0.895507         64.6785         27.5262 
       0.911279          63.689         26.4673 
        0.92691         61.8683         25.4734 
       0.942635         60.5394         24.5256 
       0.958396         60.3386         23.6244 
       0.974128         58.8281         22.7705 
       0.989692         57.2855         21.9675 
        1.00528         56.2198         21.2025 
        1.02113         54.9585         20.4622 
        1.03692         54.6754         19.7602 
        1.05264          53.441         19.0947 
        1.06832         52.0256         18.4611 
        1.08405         51.1455         17.8548 
        1.09979         50.8612         17.2755 
        1.11537         49.4151          16.728 
        1.13105         48.2307         16.2011 
        1.14679         47.7183          15.695 
        1.16256         46.9967         15.2097 
        1.17828         46.4159         14.7467 
        1.19395         45.1765         14.3047 
         1.2097          45.163         13.8787 
        1.22537         44.0523         13.4723 
          1.241         43.4523         13.0835 
        1.25666          42.463         12.7092 
        1.27241         42.3067         12.3479 
        1.28819         41.2456         12.0001 
        1.30392         40.8281         11.6668 
        1.31957         40.4474         11.3478 
        1.33529          39.706         11.0396 
        1.35108         39.0024         10.7418 
        1.36674          38.517         10.4571 
         1.3824         37.9181         10.1831 
        1.39811         37.2269         9.91806 
        1.41389         36.7624         9.66151 
        1.42964         36.4947         9.41454 
        1.44531         35.6698         9.17747 
        1.46101         35.4576         8.94811 
        1.47667         35.0058         8.72733 
        1.49229         34.3679         8.51465 
        1.50793         34.0527         8.30886 
        1.52367          33.467         8.10859 
        1.53953         33.3125         7.91362 
        1.55526         32.7418         7.72667 
        1.57092         32.3713         7.54656 
        1.58662          31.854         7.37181 
        1.60235         31.4592         7.20229 
        1.61809         31.1271         7.03804 
        1.63369         30.7835         6.88042 
        1.64941         30.3695         6.72652 
        1.66519         29.9063          6.5768 
        1.68085         29.4853         6.43274 
        1.69652         29.1808         6.29298 
        1.71228         29.0253          6.1566 
        1.72806          28.521         6.02418 
        1.74368         28.1463         5.89701 
        1.75933         27.9616         5.77328 
        1.77505         27.7122         5.65254 
        1.79081         27.3241         5.53506 
         1.8065         26.9525         5.42144 
        1.82218         26.6277         5.31113 
        1.83797         26.4732         5.20316 
        1.85367         26.0836          5.0988 
        1.86928         26.0784         4.99794 
        1.88497         25.5262         4.89928 
        1.90073         25.3156         4.80294 
        1.91647          25.051         4.70929 
        1.93218         25.0042         4.61834 
        1.94787         24.6321         4.52995 
        1.96363         24.3046         4.44353 
        1.97935         24.0091         4.35956 
        1.99499         23.8609         4.27825 
        2.01064         23.4817          4.1989 
         2.0264          23.307         4.12108 
        2.04216         23.1964         4.04528 
        2.05781         22.8793         3.97188 
        2.07353         22.6628         3.90004 
        2.08928           22.28         3.82984 
        2.10499         22.1217         3.76156 
        2.12065         21.9013         3.69516 
        2.13633          21.759         3.63031 
        2.15211         21.3864         3.56661 
        2.16785         21.3626         3.50462 
        2.18349         21.0696         3.44451 
        2.19916         20.8705         3.38568 
        2.21489         20.6316         3.32804 
        2.23063         20.5225         3.27172 
         2.2463         20.2746         3.21695 
        2.26194         20.0698         3.16358 
        2.27765          19.801         3.11116 
        2.29341         19.6138         3.05979 
        2.30914         19.4394          3.0097 
        2.32486         19.3291         2.96076 
        2.34061         19.1285         2.91283 
        2.35635         18.8477         2.86601 
        2.37203         18.7417         2.82039 
        2.38768         18.5572         2.77586 
        2.40339         18.4746         2.73213 
        2.41914         18.2522         2.68925 
        2.43483          18.069         2.64745 
         2.4505         17.8077         2.60661 
        2.46622         17.7322         2.56649 
        2.48195         17.5339         2.52722 
        2.49759         17.2949         2.48899 
        2.51328         17.2183         2.45145 
        2.52906         17.0954         2.41445 
        2.54479         16.8887         2.37836 
        2.56049         16.7541         2.34308 
        2.57618         16.6749         2.30854 
        2.59189         16.4231         2.27466 
        2.60758         16.2287         2.24151 
        2.62325         16.1389         2.20907 
        2.63898         16.0529         2.17715 
        2.65468         15.8393         2.14594 
        2.67044         15.6802         2.11521 
        2.68618         15.5853         2.08516 
        2.70184         15.4173         2.05581 
        2.71755         15.2589         2.02695 
        2.73329         15.1544         1.99861 
        2.74897         15.0066          1.9709 
        2.76462         14.8991         1.94379 
        2.78034         14.7209         1.91707 
        2.79607         14.6279         1.89083 
        2.81179          14.507         1.86512 
        2.82749         14.3483         1.83991 
        2.84321           14.25         1.81514 
        2.85893         14.0558         1.79084 
        2.87462         14.0118         1.76703 
        2.89033         13.8608         1.74362 
        2.90605         13.7469         1.72063 
        2.92176         13.6201         1.69806 
        2.93747         13.4933         1.67591 
        2.95318         13.4009         1.65416 
        2.96891         13.2714         1.63278 
        2.98456          13.166         1.61187 
        3.00023         13.0517         1.59131 
        3.01596         12.9652         1.57104 
        3.03164         12.8402         1.55118 
        3.04738         12.7247         1.53161 
         3.0631         12.5954         1.51238 
        3.07883         12.5119         1.49348 
        3.09456         12.4002         1.47492 
        3.11026          12.316         1.45669 
        3.12596         12.2214         1.43878 
        3.14163         12.0868         1.42121 
        3.15734         11.9878          1.4039 
        3.17308         11.9301         1.38683 
        3.18879         11.7738          1.3701 
        3.20447         11.7331         1.35367 
         3.2202         11.5976         1.33745 
         3.2359         11.4909         1.32153 
        3.25157         11.4438         1.30592 
        3.26729         11.2956          1.2905 
        3.28304         11.2009         1.27531 
        3.29877         11.1684         1.26038 
        3.31446         11.0438         1.24572 
        3.33014          10.969         1.23131 
        3.34585         10.8385         1.21711 
        3.36158         10.7707         1.20311 
        3.37727         10.7191         1.18938 
        3.39294         10.6119         1.17587 
        3.40867         10.5109         1.16253 
        3.42439         10.4116          1.1494 
        3.44008         10.3632          1.1365 
        3.45578         10.2366         1.12379 
        3.47153         10.2006         1.11125 
        3.48724         10.1174         1.09892 
        3.50292         10.0316         1.08681 
        3.51859          9.9422         1.07488 
        3.53431         9.83831          1.0631 
        3.55007         9.78019         1.05147 
        3.56577         9.67257         1.04006 
        3.58146         9.59241         1.02882 
        3.59719         9.52523         1.01773 
        3.61292         9.48769          1.0068 
        3.62859         9.40183        0.996072 
        3.64429         9.31147        0.985482 
        3.66003         9.24571        0.975015 
        3.67578         9.16297        0.964704 
        3.69146          9.1122        0.954582 
        3.70712         9.02366        0.944624 
        3.72284         8.95506        0.934772 
        3.73853         8.89769        0.925078 
        3.75422         8.82884        0.915518 
        3.76993         8.72954        0.906086 
        3.78564         8.68602         0.89679 
        3.80137         8.60881        0.887611 
        3.81707         8.53157         0.87858 
        3.83279         8.45595        0.869668 
        3.84853         8.41143        0.860865 
        3.86424         8.34573        0.852202 
        3.87992         8.30762        0.843671 
        3.89561         8.21755        0.835258 
        3.91134         8.15422        0.826942 
        3.92704         8.08574        0.818749 
        3.94273         8.02598        0.810676 
        3.95845         7.96544        0.802698 
        3.97418         7.90012        0.794825 
        3.98988         7.85422         0.78707 
        4.00554         7.78668        0.779439 
        4.02125         7.73626        0.771888 
        4.03698          7.6754        0.764425 
        4.05268         7.60448        0.757079 
        4.06839         7.52629        0.749824 
         4.0841         7.47973        0.742667 
        4.09983         7.42636        0.735593 
        4.11555         7.34673        0.728615 
        4.13124         7.30375        0.721747 
        4.14693         7.24522        0.714962 
        4.16266         7.19637        0.708249 
        4.17839         7.14341        0.701626 
        4.19408          7.1019        0.695103 
        4.20977         7.00763        0.688661 
        4.22551         6.98331        0.682285 
        4.24123         6.94087        0.675997 
        4.25691         6.89186        0.669806 
        4.27259         6.79907         0.66369 
        4.28831         6.76792        0.657639 
        4.30404         6.72433        0.651657 
        4.31974         6.66423        0.645764 
        4.33543         6.60597        0.639947 
        4.35116         6.55249        0.634187 
        4.36688         6.51505        0.628501 
        4.38255         6.47257        0.622907 
        4.39825         6.40869        0.617368 
        4.41398         6.35942        0.611886 
         4.4297         6.31929        0.606477 
        4.44541         6.27108        0.601134 
        4.46111          6.2485         0.59586 
        4.47683         6.18842        0.590646 
        4.49251         6.14745        0.585505 
        4.50819         6.09866        0.580427 
         4.5239         6.03348        0.575402 
        4.53962         6.00922         0.57043 
        4.55535          5.9564        0.565515 
        4.57106         5.91787        0.560665 
        4.58678         5.86789        0.555871 
         4.6025         5.82851        0.551132 
        4.61821         5.79738         0.54645 
        4.63391         5.74188        0.541828 
         4.6496         5.70552        0.537261 
        4.66532         5.66386        0.532741 
        4.68103         5.62802        0.528274 
        4.69673         5.59063        0.523864 
        4.71241           5.542        0.519508 
        4.72811         5.50351        0.515194 
        4.74384         5.48133        0.510925 
        4.75955         5.42562         0.50671 
        4.77525         5.39122        0.502546 
        4.79096         5.35755        0.498423 
        4.80669         5.30739        0.494345 
         4.8224         5.27746        0.490317 
        4.83809         5.23786        0.486338 
        4.85379         5.19311        0.482402 
         4.8695         5.16888        0.478506 
        4.88521         5.13348        0.474654 
        4.90093         5.09206        0.470845 
        4.91663         5.05167        0.467081 
        4.93234         5.02396        0.463355 
        4.94807         4.98365        0.459666 
        4.96377         4.94974        0.456025 
        4.97943         4.91925        0.452431 
        4.99514         4.87873        0.448867 
        5.01086         4.85161        0.445339 
        5.02654         4.82468        0.441857 
        5.04227         4.78602        0.438403 
          5.058         4.73869        0.434984 
        5.07371         4.71493        0.431608 
        5.08942         4.68934        0.428268 
        5.10513          4.6571        0.424963 
        5.12084         4.63057        0.421692 
        5.13656         4.58184        0.418455 
        5.15225         4.55749        0.415259 
        5.16796         4.53126         0.41209 
        5.18369         4.48785        0.408952 
         5.1994         4.46141        0.405852 
        5.21509         4.43967        0.402788 
        5.23079          4.4066        0.399751 
        5.24649         4.37738        0.396749 
        5.26217          4.3441        0.393779 
        5.27788         4.32463        0.390835 
        5.29359         4.28974        0.387922 
        5.30933         4.26541        0.385034 
        5.32504         4.23589         0.38218 
        5.34073         4.20941        0.379358 
        5.35646         4.18574         0.37656 
        5.37218         4.14169        0.373789 
        5.38789         4.12727         0.37105 
        5.40357         4.09354        0.368343 
        5.41929         4.06852        0.365656 
        5.43502         4.04051        0.362996 
         5.4507         4.01938        0.360369 
        5.46639         3.98706        0.357767 
        5.48212         3.97333        0.355186 
        5.49786         3.93573        0.352626 
        5.51353         3.91431        0.350105 
        5.52921         3.89568        0.347606 
        5.54495         3.86805        0.345124 
        5.56066         3.83984        0.342669 
        5.57637         3.81189        0.340239 
        5.59207         3.78768        0.337834 
        5.60778         3.77104        0.335451 
        5.62346         3.74823        0.333095 
        5.63916          3.7155         0.33076 
        5.65487         3.69924        0.328445 
         5.6706         3.68127        0.326151 
        5.68633         3.65437        0.323877 
        5.70203         3.62997         0.32163 
        5.71773          3.6071        0.319404 
        5.73344         3.58339        0.317199 
        5.74916         3.56078        0.315012 
        5.76486         3.53958        0.312849 
        5.78054         3.52035         0.31071 
        5.79626         3.49539        0.308585 
          5.812         3.47529        0.306478 
         5.8277         3.44436        0.304396 
        5.84339         3.43791        0.302334 
        5.85911         3.41181        0.300287 
        5.87484         3.39088         0.29826 
        5.89053         3.36788        0.296255 
        5.90623         3.35103        0.294268 
        5.92195         3.32985        0.292296 
        5.93767         3.30632        0.290343 
        5.95336         3.29303        0.288411 
        5.96905         3.26629        0.286498 
        5.98476         3.25537        0.284599 
        6.00048         3.22215        0.282717 
        6.01617         3.20938        0.280854 
        6.03185         3.19234        0.279011 
        6.04756         3.16781        0.277179 
        6.06331         3.15299        0.275361 
        6.07903         3.12918        0.273562 
        6.09473         3.11625        0.271781 
        6.11044         3.09208        0.270015 
        6.12616         3.07963        0.268265 
        6.14186         3.05816        0.266532 
        6.15755         3.04068        0.264814 
        6.17326         3.02429         0.26311 
        6.18898         3.00315        0.261421 
        6.20467         2.98729        0.259749 
        6.22036         2.96917        0.258092 
         6.2361         2.95319        0.256446 
         6.2518         2.93697        0.254816 
        6.26748         2.92024        0.253204 
        6.28319         2.90153        0.251602 
        6.29893          2.8871        0.250012 
        6.31463          2.8708        0.248439 
        6.33033         2.85695         0.24688 
        6.34604          2.8393        0.245333 
        6.36177         2.82389        0.243798 
        6.37747         2.80293        0.242279 
