# k  (h/Mpc)    Pcb(k)  (Mpc/h)^3    Pcb_linear(k) (Mpc/h)^3   ShotnoiseSubtracted = true
      0.0200456         17979.5         18289.3 
      0.0350414         13374.9         12967.8 
      0.0492313         9178.59         9327.27 
      0.0637834         7467.46         7829.19 
      0.0800726         5855.29         6196.23 
       0.096163         4608.51         4425.56 
       0.111083         3754.77         3539.35 
       0.126058         3134.86         3176.22 
       0.142273         2722.14         2677.84 
       0.158546         2222.02         2092.58 
        0.17375         1971.81         1772.91 
       0.188953         1859.27         1619.57 
       0.204907         1592.73         1428.75 
       0.220756         1432.64         1200.69 
        0.23588         1277.82         1047.94 
         0.2514         1150.84         958.435 
       0.267535         1115.28         866.501 
       0.283568         984.099         760.962 
       0.299022         939.544         679.156 
       0.314451         970.653         623.505 
       0.330372          843.18          572.17 
       0.346141         776.672          518.28 
       0.361624         744.792         471.386 
       0.377134         708.754          434.96 
       0.392932         680.304         402.851 
       0.408854         649.831         371.096 
       0.424564         632.602         342.165 
       0.440253         579.865         317.762 
       0.455999         554.838         296.362 
       0.471626         564.694         276.397 
        0.48727         532.725         257.783 
       0.502856         500.574         241.225 
       0.518488         494.112         226.442 
       0.534347         466.335         212.581 
       0.550082         446.497         199.788 
       0.565732         442.668         188.135 
       0.581496         430.854         177.472 
       0.597222         418.859         167.654 
       0.612804         408.897         158.609 
       0.628434         392.392         150.188 
       0.644267         378.376          142.32 
       0.660051         373.482         135.063 
       0.675724         366.122         128.357 
       0.691403          358.05         122.101 
       0.707174         344.438         116.227 
       0.722871         338.952         110.764 
        0.73838         334.032         105.711 
       0.754018         322.135         100.937 
       0.769845         319.966         96.4066 
        0.78569         312.656         92.1517 
       0.801365         302.801         88.1972 
       0.817031         299.757         84.4795 
       0.832809         294.205         80.9548 
       0.848511         287.458          77.649 
       0.864097         280.126         74.5524 
       0.879701         278.311         71.6234 
       0.895507         270.298         68.8186 
       0.911279          263.95         66.1713 
        0.92691          261.39         63.6865 
       0.942635         258.988         61.3168 
       0.958396         251.367         59.0636 
       0.974128         248.429         56.9288 
       0.989692         239.214         54.9214 
        1.00528         238.894         53.0087 
        1.02113         235.358         51.1577 
        1.03692         229.811         49.4028 
        1.05264         225.939         47.7388 
        1.06832         225.124         46.1548 
        1.08405         219.127          44.639 
        1.09979         217.195         43.1909 
        1.11537         212.517         41.8219 
        1.13105         208.734         40.5045 
        1.14679          206.98         39.2393 
        1.16256         203.992         38.0261 
        1.17828         201.342         36.8686 
        1.19395         195.982         35.7635 
         1.2097         195.322         34.6985 
        1.22537         193.485         33.6823 
          1.241         187.894         32.7102 
        1.25666         186.314         31.7744 
        1.27241         182.692         30.8711 
        1.28819         180.444         30.0016 
        1.30392         178.021         29.1684 
        1.31957         173.581         28.3708 
        1.33529         171.251         27.6003 
        1.35108         170.153         26.8556 
        1.36674         166.435          26.144 
         1.3824         165.137         25.4589 
        1.39811         162.749         24.7963 
        1.41389         159.255         24.1549 
        1.42964         157.365         23.5374 
        1.44531         155.848         22.9447 
        1.46101         152.586         22.3713 
        1.47667         151.652         21.8193 
        1.49229         149.263         21.2876 
        1.50793         146.555         20.7731 
        1.52367         145.084         20.2724 
        1.53953          141.94          19.785 
        1.55526         141.472         19.3176 
        1.57092         139.899         18.8673 
        1.58662         136.387         18.4304 
        1.60235         135.165         18.0065 
        1.61809         133.074         17.5959 
        1.63369         131.074         17.2018 
        1.64941         130.134         16.8171 
        1.66519         128.231         16.4428 
        1.68085         125.775         16.0826 
        1.69652         124.491         15.7332 
        1.71228          123.17         15.3922 
        1.72806         121.902         15.0611 
        1.74368         120.037         14.7432 
        1.75933         118.969         14.4339 
        1.77505         116.856          14.132 
        1.79081         115.096         13.8383 
         1.8065         113.207         13.5542 
        1.82218         111.857         13.2784 
        1.83797         111.286         13.0085 
        1.85367         109.599         12.7476 
        1.86928          108.64         12.4954 
        1.88497         106.666         12.2488 
        1.90073         105.908         12.0079 
        1.91647         104.157         11.7738 
        1.93218         102.986         11.5464 
        1.94787         101.181         11.3254 
        1.96363          100.51         11.1093 
        1.97935         99.3142         10.8994 
        1.99499         98.4795         10.6961 
        2.01064         96.1808         10.4977 
         2.0264         95.6392         10.3032 
        2.04216         93.6385         10.1137 
        2.05781         93.0885         9.93015 
        2.07353         91.8918         9.75055 
        2.08928         90.5507         9.57503 
        2.10499         89.6281         9.40433 
        2.12065         88.8927         9.23832 
        2.13633         87.7654         9.07619 
        2.15211          86.342         8.91694 
        2.16785         85.1214         8.76196 
        2.18349         83.9702         8.61167 
        2.19916         82.9263          8.4646 
        2.21489         82.2508          8.3205 
        2.23063         80.8642         8.17967 
         2.2463         80.3351         8.04275 
        2.26194         79.2745         7.90932 
        2.27765         78.2113         7.77826 
        2.29341         77.3588         7.64983 
        2.30914         76.4216         7.52459 
        2.32486         74.9692         7.40223 
        2.34061         74.5077         7.28241 
        2.35635         73.5014         7.16535 
        2.37203         72.4831         7.05129 
        2.38768         71.7378         6.93996 
        2.40339         71.1662         6.83065 
        2.41914         69.8474         6.72344 
        2.43483         69.3612         6.61893 
         2.4505         68.3573         6.51682 
        2.46622         67.7999         6.41653 
        2.48195         66.7824         6.31835 
        2.49759         66.0206         6.22276 
        2.51328         65.1476         6.12891 
        2.52906         64.2163         6.03641 
        2.54479         63.7336         5.94617 
        2.56049         62.9107         5.85796 
        2.57618         62.0684         5.77163 
        2.59189         61.6249         5.68691 
        2.60758         60.6492         5.60403 
        2.62325         60.0221         5.52292 
        2.63898         59.4468         5.44313 
        2.65468         58.8731          5.3651 
        2.67044         58.1353         5.28827 
        2.68618         57.6029         5.21313 
        2.70184         56.7964         5.13975 
        2.71755         56.0194         5.06761 
        2.73329         55.4622         4.99675 
        2.74897         54.8948         4.92749 
        2.76462         54.5433         4.85969 
        2.78034         53.8986          4.7929 
        2.79607         53.1841          4.7273 
        2.81179         52.5601           4.663 
        2.82749         52.0002         4.59998 
        2.84321         51.5712         4.53806 
        2.85893         50.9454          4.4773 
        2.87462         50.3234         4.41777 
        2.89033          49.692         4.35926 
        2.90605         49.1452         4.30177 
        2.92176         48.7434         4.24535 
        2.93747         48.1234         4.18998 
        2.95318         47.6684         4.13559 
        2.96891         47.0501         4.08214 
        2.98456          46.625         4.02987 
        3.00023         45.9496         3.97845 
        3.01596          45.522         3.92777 
        3.03164         45.1453         3.87812 
        3.04738         44.6674         3.82919 
         3.0631         44.0871         3.78112 
        3.07883         43.6276         3.73388 
        3.09456         43.0905         3.68746 
        3.11026         42.7404          3.6419 
        3.12596         42.3152         3.59712 
        3.14163         41.7759          3.5532 
        3.15734         41.3879         3.50991 
        3.17308           40.96         3.46724 
        3.18879         40.6423         3.42541 
        3.20447         40.2608         3.38432 
         3.2202         39.7382         3.34379 
         3.2359         39.3641         3.30399 
        3.25157         38.9844         3.26494 
        3.26729         38.5286          3.2264 
        3.28304         38.2113         3.18842 
        3.29877         37.6579         3.15109 
        3.31446         37.3989         3.11445 
        3.33014         36.9902         3.07843 
        3.34585         36.5194         3.04292 
        3.36158         36.1782         3.00792 
        3.37727         35.8753         2.97359 
        3.39294         35.4938         2.93982 
        3.40867         35.1676         2.90646 
        3.42439         34.7324         2.87364 
        3.44008         34.4105         2.84138 
        3.45578         34.0494         2.80961 
        3.47153         33.7715         2.77825 
        3.48724         33.4205         2.74742 
        3.50292         33.0491         2.71714 
        3.51859         32.8569         2.68733 
        3.53431         32.5586         2.65788 
        3.55007         32.0261          2.6288 
        3.56577         31.9801         2.60027 
        3.58146         31.4954         2.57217 
        3.59719         31.2263         2.54443 
        3.61292         30.9569         2.51711 
        3.62859         30.6274         2.49029 
        3.64429         30.3596         2.46382 
        3.66003         30.0261         2.43765 
        3.67578         29.7865         2.41187 
        3.69146         29.5004         2.38657 
        3.70712         29.1693         2.36167 
        3.72284          28.882         2.33704 
        3.73853         28.7268          2.3128 
        3.75422          28.417          2.2889 
        3.76993         28.1345         2.26532 
        3.78564          27.929         2.24208 
        3.80137         27.6643         2.21913 
        3.81707         27.3839         2.19655 
        3.83279         27.1075         2.17427 
        3.84853         26.8607         2.15226 
        3.86424         26.5435          2.1306 
        3.87992         26.3325         2.10928 
        3.89561         26.1306         2.08824 
        3.91134         25.8267         2.06745 
        3.92704         25.5836         2.04697 
        3.94273         25.3399         2.02678 
        3.95845         25.1816         2.00684 
        3.97418         24.8743         1.98716 
        3.98988         24.6424         1.96776 
        4.00554         24.4026         1.94869 
        4.02125         24.2592         1.92981 
        4.03698         24.0106         1.91115 
        4.05268         23.7997         1.89279 
        4.06839          23.571         1.87465 
         4.0841         23.3619         1.85675 
        4.09983          23.116         1.83907 
        4.11555         22.8956         1.82162 
        4.13124         22.8345         1.80445 
        4.14693          22.485         1.78749 
        4.16266          22.322          1.7707 
        4.17839          22.193         1.75415 
        4.19408         21.9156         1.73784 
        4.20977         21.8031         1.72173 
        4.22551         21.5939         1.70579 
        4.24123         21.3816         1.69007 
        4.25691         21.1658         1.67459 
        4.27259         21.0336          1.6593 
        4.28831         20.8276         1.64417 
        4.30404         20.6815         1.62922 
        4.31974          20.455         1.61448 
        4.33543         20.2875         1.59994 
        4.35116         20.1291         1.58554 
        4.36688         19.9011         1.57133 
        4.38255         19.7476         1.55734 
        4.39825         19.5967         1.54349 
        4.41398         19.4249         1.52979 
         4.4297         19.2637         1.51626 
        4.44541         19.0814         1.50291 
        4.46111         18.8916         1.48972 
        4.47683         18.7637         1.47668 
        4.49251         18.6467         1.46383 
        4.50819         18.4607         1.45113 
         4.5239         18.3153         1.43857 
        4.53962         18.1747         1.42614 
        4.55535         17.9952         1.41385 
        4.57106         17.9064         1.40173 
        4.58678         17.7263         1.38974 
         4.6025         17.5027         1.37789 
        4.61821         17.3854         1.36619 
        4.63391         17.2538         1.35463 
         4.6496         17.1721         1.34322 
        4.66532         16.9621         1.33191 
        4.68103         16.8443         1.32075 
        4.69673         16.7503         1.30972 
        4.71241         16.6386         1.29883 
        4.72811         16.4526         1.28805 
        4.74384         16.3132         1.27737 
        4.75955         16.2094         1.26683 
        4.77525         16.0767         1.25642 
        4.79096         15.9081         1.24611 
        4.80669          15.782         1.23592 
         4.8224         15.6526         1.22585 
        4.83809         15.5298          1.2159 
        4.85379         15.4238         1.20606 
         4.8695         15.3042         1.19632 
        4.88521         15.1925         1.18669 
        4.90093         15.0797         1.17717 
        4.91663         14.9072         1.16776 
        4.93234         14.8049         1.15844 
        4.94807         14.7063         1.14922 
        4.96377         14.5766         1.14012 
        4.97943         14.4683         1.13113 
        4.99514           14.35         1.12222 
        5.01086         14.2637          1.1134 
        5.02654         14.1501         1.10469 
        5.04227         14.0237         1.09606 
          5.058         13.8941         1.08751 
        5.07371         13.8017         1.07907 
        5.08942         13.7475         1.07072 
        5.10513         13.6016         1.06246 
        5.12084         13.4931         1.05428 
        5.13656         13.3821         1.04619 
        5.15225         13.2877         1.03819 
        5.16796         13.1672         1.03027 
        5.18369         13.0542         1.02243 
         5.1994         12.9861         1.01468 
        5.21509         12.8664         1.00702 
        5.23079         12.7945        0.999424 
        5.24649         12.6984        0.991917 
        5.26217         12.5844        0.984493 
        5.27788         12.5051        0.977134 
        5.29359         12.3689        0.969849 
        5.30933         12.3322        0.962629 
        5.32504         12.2236        0.955494 
        5.34073          12.131         0.94844 
        5.35646         12.0468        0.941443 
        5.37218         11.9185        0.934515 
        5.38789         11.8318        0.927669 
        5.40357         11.7598        0.920899 
        5.41929         11.6853        0.914182 
        5.43502         11.5899        0.907532 
         5.4507         11.5094        0.900963 
        5.46639         11.4212         0.89446 
        5.48212         11.3431        0.888005 
        5.49786         11.2471        0.881606 
        5.51353         11.1872        0.875303 
        5.52921         11.0939        0.869055 
        5.54495         11.0302         0.86285 
        5.56066          10.928        0.856712 
        5.57637         10.8478        0.850636 
        5.59207         10.8035        0.844623 
        5.60778         10.6999        0.838667 
        5.62346         10.6161        0.832777 
        5.63916         10.5481        0.826937 
        5.65487         10.4822        0.821151 
         5.6706         10.3947        0.815414 
        5.68633         10.3281         0.80973 
        5.70203         10.2406        0.804112 
        5.71773         10.1692        0.798548 
        5.73344         10.0873        0.793034 
        5.74916         10.0289        0.787567 
        5.76486         9.97085         0.78216 
        5.78054         9.89364        0.776811 
        5.79626         9.83896        0.771498 
          5.812         9.75805         0.76623 
         5.8277         9.68182        0.761026 
        5.84339         9.60625         0.75587 
        5.85911         9.53255        0.750753 
        5.87484         9.47107        0.745684 
        5.89053         9.40474        0.740672 
        5.90623         9.35162        0.735705 
        5.92195         9.27364        0.730774 
        5.93767         9.23183        0.725891 
        5.95336         9.14903        0.721061 
        5.96905         9.09377        0.716277 
        5.98476         9.04245         0.71153 
        6.00048         8.97641        0.706824 
        6.01617         8.90495        0.702168 
        6.03185         8.83616        0.697559 
        6.04756         8.77145         0.69298 
        6.06331         8.72458        0.688433 
        6.07903         8.67535        0.683937 
        6.09473         8.61632        0.679485 
        6.11044         8.54943        0.675069 
        6.12616         8.48992        0.670693 
        6.14186         8.43276         0.66636 
        6.15755         8.38069        0.662066 
        6.17326         8.33022        0.657806 
        6.18898          8.2693        0.653582 
        6.20467         8.20154        0.649403 
        6.22036         8.15377        0.645261 
         6.2361         8.10436        0.641144 
         6.2518         8.05787         0.63707 
        6.26748          7.9877         0.63304 
        6.28319         7.95843        0.629034 
        6.29893          7.8991        0.625059 
        6.31463         7.82505        0.621126 
        6.33033         7.78986        0.617227 
        6.34604          7.7433         0.61336 
        6.36177         7.69088        0.609522 
        6.37747         7.63335        0.605724 
