# k  (h/Mpc)    Pcb(k)  (Mpc/h)^3    Pcb_linear(k) (Mpc/h)^3   ShotnoiseSubtracted = true
      0.0200456         12323.3         12570.7 
      0.0350414         8639.78         8913.06 
      0.0492313         6351.41         6410.86 
      0.0637834         5481.69         5381.19 
      0.0800726         4327.08         4258.82 
       0.096163          2981.3         3041.79 
       0.111083         2378.18         2432.68 
       0.126058         2211.03         2183.09 
       0.142273         1905.23         1840.55 
       0.158546         1588.97         1438.28 
        0.17375         1276.85         1218.56 
       0.188953         1239.85         1113.17 
       0.204907         1162.32         982.017 
       0.220756         987.051         825.263 
        0.23588         871.217         720.273 
         0.2514         761.486         658.755 
       0.267535         743.564         595.567 
       0.283568         673.639         523.028 
       0.299022          629.01           466.8 
       0.314451          592.37          428.55 
       0.330372         546.235         393.266 
       0.346141         497.026         356.226 
       0.361624         478.713         323.995 
       0.377134         444.571         298.959 
       0.392932         422.605         276.889 
       0.408854         406.106         255.063 
       0.424564         384.831         235.178 
       0.440253         373.197         218.406 
       0.455999         350.945         203.697 
       0.471626         328.654         189.975 
        0.48727         318.383          177.18 
       0.502856         308.011           165.8 
       0.518488         304.691         155.639 
       0.534347         286.143         146.112 
       0.550082         269.771         137.319 
       0.565732         266.279         129.309 
       0.581496         252.101         121.981 
       0.597222          246.39         115.232 
       0.612804         238.039         109.016 
       0.628434         229.278         103.228 
       0.644267         221.954         97.8197 
       0.660051         218.975         92.8321 
       0.675724          214.33         88.2227 
       0.691403         208.153         83.9227 
       0.707174         199.666         79.8856 
       0.722871         197.589         76.1307 
        0.73838         193.501          72.658 
       0.754018         188.066         69.3764 
       0.769845         181.985         66.2626 
        0.78569         180.359         63.3381 
       0.801365         174.552           60.62 
       0.817031         169.114         58.0648 
       0.832809         166.881         55.6422 
       0.848511         162.387           53.37 
       0.864097         160.106         51.2417 
       0.879701         156.374         49.2285 
       0.895507         152.244         47.3007 
       0.911279          148.77         45.4812 
        0.92691         148.037         43.7733 
       0.942635         144.227         42.1445 
       0.958396         143.916         40.5958 
       0.974128          139.81         39.1285 
       0.989692         136.371         37.7488 
        1.00528          133.96         36.4341 
        1.02113         133.136          35.162 
        1.03692         128.237         33.9557 
        1.05264         126.778         32.8121 
        1.06832         124.212         31.7233 
        1.08405         122.433         30.6814 
        1.09979         121.837         29.6861 
        1.11537         117.856         28.7452 
        1.13105         117.194         27.8397 
        1.14679         116.247         26.9701 
        1.16256         114.394         26.1362 
        1.17828         111.792         25.3406 
        1.19395         110.106         24.5811 
         1.2097         108.199         23.8491 
        1.22537         107.647         23.1507 
          1.241         105.243         22.4825 
        1.25666         103.348         21.8393 
        1.27241         101.791         21.2184 
        1.28819         100.383         20.6208 
        1.30392          99.065         20.0482 
        1.31957         97.7853         19.4999 
        1.33529         95.7387         18.9704 
        1.35108         94.6417         18.4585 
        1.36674         93.7698         17.9694 
         1.3824         91.8337         17.4985 
        1.39811         90.8814         17.0431 
        1.41389         89.5715         16.6022 
        1.42964         88.1383         16.1779 
        1.44531         86.2909         15.7705 
        1.46101         85.3752         15.3763 
        1.47667         84.9408          14.997 
        1.49229         83.2323         14.6315 
        1.50793         82.5804         14.2779 
        1.52367         81.3463         13.9337 
        1.53953         80.0445         13.5987 
        1.55526         79.3377         13.2774 
        1.57092         78.8081         12.9679 
        1.58662         77.0073         12.6676 
        1.60235         76.6223         12.3763 
        1.61809         75.3567         12.0941 
        1.63369         74.4738         11.8232 
        1.64941         73.7799         11.5588 
        1.66519         71.9823         11.3015 
        1.68085         71.6131          11.054 
        1.69652         70.1853         10.8138 
        1.71228         69.9933         10.5794 
        1.72806         68.9191         10.3519 
        1.74368         68.1188         10.1334 
        1.75933         67.0762         9.92074 
        1.77505         66.5876         9.71326 
        1.79081         65.4678         9.51139 
         1.8065         64.7991         9.31615 
        1.82218         63.8666          9.1266 
        1.83797         63.2592         8.94105 
        1.85367         62.5539         8.76172 
        1.86928         62.1417         8.58842 
        1.88497         61.0235         8.41888 
        1.90073         60.1027         8.25332 
        1.91647         59.8625         8.09239 
        1.93218         58.9583         7.93611 
        1.94787         58.1835         7.78422 
        1.96363         57.4577         7.63572 
        1.97935         57.1365         7.49143 
        1.99499         56.1708          7.3517 
        2.01064         55.8739         7.21535 
         2.0264         54.5903         7.08162 
        2.04216         54.2567         6.95137 
        2.05781         53.5787         6.82523 
        2.07353         52.8908         6.70179 
        2.08928          52.287         6.58115 
        2.10499         51.8876         6.46382 
        2.12065          51.245         6.34972 
        2.13633         50.8556         6.23829 
        2.15211         50.5481         6.12883 
        2.16785         49.7143         6.02231 
        2.18349         49.2632         5.91901 
        2.19916         48.6398         5.81792 
        2.21489          48.207         5.71888 
        2.23063          47.633         5.62208 
         2.2463         47.1371         5.52798 
        2.26194         46.3104         5.43627 
        2.27765         45.9626         5.34618 
        2.29341           45.38         5.25791 
        2.30914         44.7646         5.17183 
        2.32486         44.0891         5.08773 
        2.34061         43.8647         5.00537 
        2.35635         43.2903         4.92492 
        2.37203         42.7939         4.84652 
        2.38768         42.3916            4.77 
        2.40339         41.9962         4.69487 
        2.41914         41.6461         4.62118 
        2.43483         41.1129         4.54935 
         2.4505         40.7188         4.47917 
        2.46622         40.2726         4.41023 
        2.48195         39.7984         4.34275 
        2.49759         39.3024         4.27705 
        2.51328         38.8037         4.21255 
        2.52906         38.5077         4.14897 
        2.54479         37.9645         4.08695 
        2.56049         37.4966         4.02632 
        2.57618         37.2392         3.96698 
        2.59189         36.7478         3.90875 
        2.60758         36.5269         3.85179 
        2.62325          36.033         3.79604 
        2.63898         35.6666          3.7412 
        2.65468           35.19         3.68756 
        2.67044         34.7377         3.63476 
        2.68618         34.5606         3.58311 
        2.70184         34.1874         3.53268 
        2.71755         33.9394         3.48309 
        2.73329         33.4517         3.43439 
        2.74897         33.1019         3.38678 
        2.76462         32.6269         3.34018 
        2.78034          32.521         3.29428 
        2.79607         32.1182         3.24919 
        2.81179         31.8118           3.205 
        2.82749         31.4044         3.16168 
        2.84321         31.1357         3.11912 
        2.85893         30.8019         3.07736 
        2.87462         30.4265         3.03644 
        2.89033         30.1151         2.99623 
        2.90605         29.9685         2.95671 
        2.92176         29.6476         2.91793 
        2.93747         29.3751         2.87987 
        2.95318          28.941         2.84249 
        2.96891         28.6583         2.80575 
        2.98456         28.3934         2.76983 
        3.00023         28.0688         2.73449 
        3.01596         27.7605         2.69965 
        3.03164         27.6554         2.66553 
        3.04738         27.3494          2.6319 
         3.0631         27.0734         2.59886 
        3.07883         26.7687         2.56639 
        3.09456          26.493         2.53448 
        3.11026         26.2558         2.50317 
        3.12596         26.0304         2.47239 
        3.14163         25.7072          2.4422 
        3.15734         25.4885         2.41245 
        3.17308         25.1462         2.38312 
        3.18879         25.0213         2.35436 
        3.20447         24.7122         2.32613 
         3.2202         24.4612         2.29827 
         3.2359         24.2212         2.27091 
        3.25157         24.1228         2.24407 
        3.26729         23.8647         2.21758 
        3.28304         23.5712         2.19148 
        3.29877         23.3049         2.16582 
        3.31446         23.0955         2.14064 
        3.33014         22.8677         2.11588 
        3.34585         22.7493         2.09147 
        3.36158         22.4129         2.06742 
        3.37727         22.1743         2.04382 
        3.39294         22.0771         2.02061 
        3.40867         21.8143         1.99768 
        3.42439         21.5975         1.97512 
        3.44008         21.4172         1.95295 
        3.45578          21.265         1.93111 
        3.47153         20.9788         1.90956 
        3.48724         20.8105         1.88837 
        3.50292         20.6656         1.86756 
        3.51859         20.4095         1.84707 
        3.53431         20.2287         1.82682 
        3.55007         19.9929         1.80684 
        3.56577         19.8091         1.78723 
        3.58146         19.7089         1.76792 
        3.59719         19.4183         1.74885 
        3.61292         19.3171         1.73007 
        3.62859         19.0788         1.71164 
        3.64429         18.9207         1.69344 
        3.66003         18.7839         1.67546 
        3.67578         18.5433         1.65774 
        3.69146         18.4797         1.64034 
        3.70712         18.2576         1.62323 
        3.72284         18.1069          1.6063 
        3.73853         17.9162         1.58964 
        3.75422         17.7317         1.57322 
        3.76993         17.5825         1.55701 
        3.78564         17.4024         1.54104 
        3.80137         17.2949         1.52526 
        3.81707         17.1249         1.50974 
        3.83279         16.9685         1.49443 
        3.84853         16.7917          1.4793 
        3.86424         16.6519         1.46442 
        3.87992         16.5178         1.44976 
        3.89561         16.3329          1.4353 
        3.91134         16.2466         1.42101 
        3.92704         16.0775         1.40693 
        3.94273         15.9248         1.39306 
        3.95845          15.755         1.37935 
        3.97418         15.6806         1.36582 
        3.98988         15.4946         1.35249 
        4.00554         15.3678         1.33938 
        4.02125         15.2384          1.3264 
        4.03698         15.1201         1.31358 
        4.05268         14.9783         1.30096 
        4.06839         14.8096         1.28849 
         4.0841         14.7508         1.27619 
        4.09983         14.5499         1.26404 
        4.11555         14.4692         1.25205 
        4.13124         14.3571         1.24024 
        4.14693         14.2091         1.22858 
        4.16266         14.0844         1.21705 
        4.17839         13.9744         1.20567 
        4.19408         13.8224         1.19446 
        4.20977         13.7517         1.18339 
        4.22551         13.5999         1.17243 
        4.24123         13.5077         1.16163 
        4.25691          13.417         1.15099 
        4.27259         13.2534         1.14048 
        4.28831          13.119         1.13008 
        4.30404         13.0485          1.1198 
        4.31974         12.9319         1.10967 
        4.33543         12.8368         1.09968 
        4.35116         12.7083         1.08978 
        4.36688         12.6152         1.08001 
        4.38255         12.4821          1.0704 
        4.39825         12.4061         1.06088 
        4.41398         12.3088         1.05146 
         4.4297         12.1737         1.04216 
        4.44541         12.0898         1.03298 
        4.46111          11.995         1.02392 
        4.47683         11.8959         1.01496 
        4.49251          11.783         1.00613 
        4.50819          11.706        0.997399 
         4.5239         11.6213        0.988764 
        4.53962         11.5208        0.980221 
        4.55535         11.4122        0.971775 
        4.57106         11.3026        0.963441 
        4.58678         11.2163        0.955203 
         4.6025         11.1237         0.94706 
        4.61821         11.0473        0.939013 
        4.63391         10.9652        0.931071 
         4.6496         10.8606        0.923224 
        4.66532         10.7642        0.915456 
        4.68103         10.6682        0.907781 
        4.69673         10.6179        0.900202 
        4.71241         10.5079        0.892717 
        4.72811         10.4231        0.885305 
        4.74384         10.3603        0.877968 
        4.75955         10.2584        0.870726 
        4.77525         10.1797        0.863569 
        4.79096         10.0996        0.856485 
        4.80669         10.0357        0.849477 
         4.8224         9.96459        0.842556 
        4.83809         9.88491        0.835719 
        4.85379           9.797        0.828954 
         4.8695         9.76701        0.822259 
        4.88521         9.62624        0.815641 
        4.90093         9.57678        0.809096 
        4.91663         9.48487        0.802628 
        4.93234         9.42228        0.796224 
        4.94807         9.34924        0.789886 
        4.96377         9.27598        0.783629 
        4.97943         9.20734        0.777453 
        4.99514         9.14639        0.771328 
        5.01086         9.07257        0.765265 
        5.02654         9.00625        0.759283 
        5.04227         8.93735        0.753347 
          5.058         8.84486        0.747472 
        5.07371         8.80498        0.741672 
        5.08942         8.74013        0.735932 
        5.10513         8.66316        0.730253 
        5.12084         8.59808        0.724631 
        5.13656         8.53619         0.71907 
        5.15225         8.48318        0.713576 
        5.16796         8.41489        0.708131 
        5.18369         8.35088        0.702739 
         5.1994         8.26874        0.697412 
        5.21509         8.23025        0.692146 
        5.23079         8.16237        0.686928 
        5.24649         8.09589        0.681769 
        5.26217         8.03466        0.676666 
        5.27788         7.97807        0.671608 
        5.29359         7.93137        0.666601 
        5.30933         7.84996        0.661638 
        5.32504         7.79849        0.656734 
        5.34073          7.7553        0.651885 
        5.35646         7.67678        0.647076 
        5.37218         7.62741        0.642315 
        5.38789         7.58494        0.637609 
        5.40357         7.53886        0.632956 
        5.41929         7.47145         0.62834 
        5.43502         7.41162        0.623768 
         5.4507         7.36426        0.619254 
        5.46639         7.31269        0.614784 
        5.48212          7.2616        0.610347 
        5.49786         7.21693        0.605949 
        5.51353         7.15506        0.601617 
        5.52921         7.11585        0.597322 
        5.54495         7.06007        0.593058 
        5.56066          7.0075        0.588839 
        5.57637         6.95192        0.584662 
        5.59207         6.91562         0.58053 
        5.60778         6.85474        0.576436 
        5.62346         6.80953        0.572387 
        5.63916         6.75887        0.568374 
        5.65487         6.71829        0.564397 
         5.6706         6.65429        0.560454 
        5.68633         6.62465        0.556547 
        5.70203         6.57715        0.552685 
        5.71773         6.52165        0.548861 
        5.73344         6.48903        0.545071 
        5.74916         6.45198        0.541314 
        5.76486         6.40902        0.537597 
        5.78054         6.34705        0.533921 
        5.79626         6.30602        0.530269 
          5.812         6.26763        0.526648 
         5.8277         6.22873        0.523071 
        5.84339         6.17989        0.519528 
        5.85911         6.14171        0.516011 
        5.87484         6.10581        0.512527 
        5.89053         6.05721        0.509082 
        5.90623          6.0132        0.505668 
        5.92195         5.97021        0.502278 
        5.93767         5.93585        0.498922 
        5.95336         5.90151        0.495603 
        5.96905         5.85116        0.492314 
        5.98476         5.82205        0.489052 
        6.00048         5.79004        0.485817 
        6.01617         5.74785        0.482617 
        6.03185         5.70019        0.479449 
        6.04756         5.66766        0.476302 
        6.06331         5.63876        0.473177 
        6.07903         5.59159        0.470086 
        6.09473          5.5553        0.467026 
        6.11044         5.50952        0.463991 
        6.12616         5.48181        0.460983 
        6.14186         5.46055        0.458005 
        6.15755         5.41705        0.455054 
        6.17326          5.3664        0.452126 
        6.18898          5.3307        0.449223 
        6.20467         5.30543        0.446351 
        6.22036         5.27698        0.443503 
         6.2361         5.22728        0.440674 
         6.2518         5.20289        0.437873 
        6.26748         5.17204        0.435104 
        6.28319          5.1322         0.43235 
        6.29893         5.10703        0.429618 
        6.31463         5.07584        0.426915 
        6.33033         5.03507        0.424235 
        6.34604         5.00673        0.421577 
        6.36177          4.9794        0.418939 
        6.37747         4.95076        0.416329 
