# k  (h/Mpc)    Pcb(k)  (Mpc/h)^3    Pcb_linear(k) (Mpc/h)^3   ShotnoiseSubtracted = true
      0.0200456         7868.92         8011.32 
      0.0350414         5552.45         5680.33 
      0.0492313         4069.44         4085.66 
      0.0637834         3488.28         3429.45 
      0.0800726         2756.72         2714.16 
       0.096163         1910.56         1938.54 
       0.111083         1519.84         1550.36 
       0.126058         1408.48         1391.29 
       0.142273         1210.26         1172.99 
       0.158546         986.659          916.62 
        0.17375         798.907         776.594 
       0.188953         767.004         709.428 
       0.204907         716.309         625.843 
       0.220756         601.013         525.943 
        0.23588         527.537         459.032 
         0.2514         465.222         419.827 
       0.267535          444.87         379.557 
       0.283568         402.228         333.327 
       0.299022         371.914         297.493 
       0.314451          343.76         273.116 
       0.330372         318.222          250.63 
       0.346141          286.27         227.024 
       0.361624         273.833         206.483 
       0.377134         256.338         190.527 
       0.392932         237.033         176.462 
       0.408854         227.291         162.553 
       0.424564         217.584          149.88 
       0.440253         206.262         139.191 
       0.455999         193.978         129.816 
       0.471626         179.624         121.071 
        0.48727         174.359         112.918 
       0.502856         167.417         105.665 
       0.518488         163.647         99.1892 
       0.534347         155.686         93.1178 
       0.550082         144.531         87.5141 
       0.565732         140.054         82.4093 
       0.581496         134.007         77.7388 
       0.597222         129.808          73.438 
       0.612804         123.986         69.4762 
       0.628434         121.089         65.7873 
       0.644267         116.894         62.3408 
       0.660051         114.583         59.1622 
       0.675724         110.932         56.2246 
       0.691403         107.539         53.4842 
       0.707174         103.328         50.9113 
       0.722871         101.694         48.5183 
        0.73838         99.6298         46.3052 
       0.754018         94.9505         44.2138 
       0.769845         93.1115         42.2294 
        0.78569         90.8348         40.3656 
       0.801365         88.0789         38.6334 
       0.817031         85.0645         37.0049 
       0.832809         84.0939         35.4609 
       0.848511         80.9412         34.0129 
       0.864097          78.866         32.6565 
       0.879701         77.8299         31.3735 
       0.895507         76.2187         30.1449 
       0.911279         74.8976         28.9853 
        0.92691          73.076         27.8969 
       0.942635         70.8251         26.8588 
       0.958396         70.5293         25.8719 
       0.974128         68.6838         24.9367 
       0.989692         67.1396         24.0574 
        1.00528         65.7814         23.2196 
        1.02113          64.476         22.4088 
        1.03692         62.6378         21.6401 
        1.05264         62.4156         20.9112 
        1.06832         60.6552         20.2174 
        1.08405         59.9258         19.5534 
        1.09979         59.3059         18.9191 
        1.11537         57.0695         18.3194 
        1.13105         57.4636         17.7424 
        1.14679         56.1643         17.1881 
        1.16256         55.1893         16.6567 
        1.17828         53.7807         16.1497 
        1.19395         53.3108         15.6656 
         1.2097         52.1468         15.1991 
        1.22537          52.066          14.754 
          1.241         50.6753         14.3282 
        1.25666         49.7067         13.9183 
        1.27241         49.2495         13.5226 
        1.28819         48.0904         13.1417 
        1.30392         47.4529         12.7768 
        1.31957         47.0604         12.4274 
        1.33529         46.3608         12.0899 
        1.35108         45.9219         11.7637 
        1.36674         45.1825         11.4519 
         1.3824         44.0221         11.1519 
        1.39811         43.8666         10.8616 
        1.41389         43.1803         10.5807 
        1.42964         42.4694         10.3102 
        1.44531         41.9582         10.0506 
        1.46101           41.04          9.7994 
        1.47667         41.0009         9.55761 
        1.49229         40.5304          9.3247 
        1.50793         39.7729         9.09933 
        1.52367         39.2543            8.88 
        1.53953          39.009         8.66649 
        1.55526          38.293         8.46175 
        1.57092         37.9288         8.26451 
        1.58662         37.4142         8.07313 
        1.60235         37.0128         7.88748 
        1.61809         36.3811         7.70761 
        1.63369         35.8969         7.53499 
        1.64941          35.387         7.36645 
        1.66519          34.986         7.20249 
        1.68085         34.7027         7.04472 
        1.69652         34.2476         6.89166 
        1.71228         34.0238         6.74231 
        1.72806         33.4774         6.59729 
        1.74368         32.9794         6.45802 
        1.75933         32.5981         6.32252 
        1.77505          32.435         6.19029 
        1.79081         31.8723         6.06164 
         1.8065         31.5259         5.93721 
        1.82218         31.2628         5.81641 
        1.83797         30.8158         5.69816 
        1.85367         30.3809         5.58387 
        1.86928         30.1907         5.47343 
        1.88497         29.7637         5.36538 
        1.90073         29.6021         5.25987 
        1.91647         29.1616         5.15731 
        1.93218         28.9225         5.05771 
        1.94787         28.5397         4.96091 
        1.96363         28.3719         4.86627 
        1.97935         27.9957         4.77431 
        1.99499         27.6539         4.68526 
        2.01064         27.4631         4.59837 
         2.0264           26.97         4.51314 
        2.04216          26.697         4.43013 
        2.05781         26.4289         4.34974 
        2.07353         26.1974         4.27107 
        2.08928         26.1509         4.19419 
        2.10499          25.826         4.11941 
        2.12065         25.3585          4.0467 
        2.13633         25.2824         3.97568 
        2.15211         24.7847         3.90592 
        2.16785         24.6175         3.83804 
        2.18349         24.4321          3.7722 
        2.19916         24.2057         3.70778 
        2.21489         23.8621         3.64466 
        2.23063         23.6941         3.58297 
         2.2463         23.5222           3.523 
        2.26194         23.3066         3.46455 
        2.27765         22.9977         3.40714 
        2.29341         22.7287         3.35089 
        2.30914         22.6281         3.29603 
        2.32486          22.334         3.24243 
        2.34061         22.1447         3.18994 
        2.35635         21.8495         3.13867 
        2.37203         21.6976         3.08871 
        2.38768         21.4528         3.03994 
        2.40339         21.3433         2.99206 
        2.41914         21.0982          2.9451 
        2.43483         20.8477         2.89932 
         2.4505         20.6357         2.85459 
        2.46622         20.4382         2.81066 
        2.48195         20.2612         2.76765 
        2.49759         19.9971         2.72578 
        2.51328         19.8251         2.68467 
        2.52906         19.7199         2.64415 
        2.54479          19.456         2.60462 
        2.56049         19.2465         2.56599 
        2.57618         19.0637         2.52817 
        2.59189         18.9771         2.49106 
        2.60758         18.7909         2.45476 
        2.62325         18.6098         2.41923 
        2.63898         18.4941         2.38428 
        2.65468         18.2777          2.3501 
        2.67044         18.0935         2.31644 
        2.68618         17.9222         2.28353 
        2.70184         17.7947         2.25139 
        2.71755         17.6091         2.21979 
        2.73329         17.4471         2.18875 
        2.74897         17.2125         2.15841 
        2.76462         17.2694         2.12871 
        2.78034         16.9959         2.09945 
        2.79607         16.8418         2.07072 
        2.81179         16.7193         2.04255 
        2.82749         16.5499         2.01495 
        2.84321         16.4382         1.98783 
        2.85893         16.2509         1.96121 
        2.87462         16.0904         1.93513 
        2.89033         15.9571         1.90951 
        2.90605         15.8808         1.88432 
        2.92176         15.6279         1.85961 
        2.93747         15.5699         1.83535 
        2.95318         15.3764         1.81153 
        2.96891         15.2558         1.78811 
        2.98456         15.1359         1.76522 
        3.00023         14.9761          1.7427 
        3.01596         14.9098          1.7205 
        3.03164         14.7642         1.69875 
        3.04738         14.5708         1.67732 
         3.0631         14.4501         1.65626 
        3.07883         14.3277         1.63557 
        3.09456         14.2304         1.61523 
        3.11026         14.1053         1.59528 
        3.12596         13.9452         1.57566 
        3.14163          13.881         1.55642 
        3.15734         13.7088         1.53746 
        3.17308         13.6003         1.51877 
        3.18879         13.5007         1.50044 
        3.20447         13.3783         1.48245 
         3.2202          13.244         1.46469 
         3.2359         13.1696         1.44726 
        3.25157         13.0586         1.43015 
        3.26729         12.9239         1.41327 
        3.28304         12.8167         1.39663 
        3.29877         12.6919         1.38029 
        3.31446         12.5832         1.36424 
        3.33014         12.4758         1.34846 
        3.34585         12.3649          1.3329 
        3.36158         12.2989         1.31757 
        3.37727          12.127         1.30253 
        3.39294         12.0666         1.28774 
        3.40867         11.9656         1.27313 
        3.42439         11.8596         1.25875 
        3.44008         11.7938         1.24462 
        3.45578         11.6794          1.2307 
        3.47153         11.5988         1.21697 
        3.48724         11.4877         1.20347 
        3.50292         11.3683          1.1902 
        3.51859          11.315         1.17714 
        3.53431         11.2116         1.16424 
        3.55007         11.1272          1.1515 
        3.56577         11.0304           1.139 
        3.58146         10.9758          1.1267 
        3.59719         10.8383         1.11455 
        3.61292         10.7446         1.10258 
        3.62859         10.6404         1.09083 
        3.64429         10.5878         1.07924 
        3.66003         10.4768         1.06777 
        3.67578         10.4055         1.05648 
        3.69146         10.3158          1.0454 
        3.70712         10.2388         1.03449 
        3.72284         10.1526          1.0237 
        3.73853         10.0598         1.01309 
        3.75422         10.0226         1.00262 
        3.76993          9.9352        0.992287 
        3.78564         9.81948        0.982107 
        3.80137         9.76117        0.972055 
        3.81707         9.66047        0.962164 
        3.83279         9.58729        0.952404 
        3.84853         9.51162        0.942764 
        3.86424         9.43551        0.933277 
        3.87992         9.35183        0.923935 
        3.89561         9.29778         0.91472 
        3.91134         9.22877        0.905614 
        3.92704         9.12816        0.896642 
        3.94273         9.08693        0.887801 
        3.95845         9.01015        0.879063 
        3.97418         8.92335        0.870442 
        3.98988         8.85099        0.861948 
        4.00554         8.80208        0.853591 
        4.02125         8.71922        0.845322 
        4.03698         8.66141         0.83715 
        4.05268         8.58877        0.829104 
        4.06839         8.50001        0.821159 
         4.0841         8.46182        0.813321 
        4.09983         8.38865        0.805575 
        4.11555         8.31306        0.797933 
        4.13124         8.25907        0.790411 
        4.14693         8.17102         0.78298 
        4.16266         8.12542        0.775628 
        4.17839         8.05692        0.768376 
        4.19408         8.00293        0.761232 
        4.20977         7.94258        0.754177 
        4.22551         7.87594        0.747195 
        4.24123         7.81897        0.740308 
        4.25691         7.75131        0.733528 
        4.27259         7.68244         0.72683 
        4.28831         7.62697        0.720203 
        4.30404         7.58195        0.713653 
        4.31974         7.51831        0.707199 
        4.33543         7.44646        0.700828 
        4.35116         7.39531        0.694521 
        4.36688         7.33518        0.688294 
        4.38255         7.28687        0.682167 
        4.39825         7.20609        0.676102 
        4.41398         7.18673        0.670099 
         4.4297         7.12165        0.664175 
        4.44541         7.06925        0.658324 
        4.46111         7.00316        0.652548 
        4.47683         6.95632        0.646838 
        4.49251         6.90786        0.641207 
        4.50819         6.85239        0.635646 
         4.5239         6.80986        0.630143 
        4.53962         6.75732        0.624698 
        4.55535         6.70132        0.619315 
        4.57106         6.65851        0.614004 
        4.58678         6.60549        0.608754 
         4.6025         6.54884        0.603564 
        4.61821         6.49372        0.598436 
        4.63391         6.46775        0.593375 
         4.6496         6.40186        0.588374 
        4.66532         6.38272        0.583423 
        4.68103         6.29174        0.578532 
        4.69673         6.26283        0.573702 
        4.71241          6.2262        0.568931 
        4.72811         6.15864        0.564208 
        4.74384         6.12142        0.559532 
        4.75955         6.06115        0.554916 
        4.77525         6.04628        0.550356 
        4.79096         5.98706        0.545841 
        4.80669         5.96209        0.541375 
         4.8224         5.90675        0.536964 
        4.83809         5.86176        0.532607 
        4.85379         5.80372        0.528295 
         4.8695         5.77462        0.524029 
        4.88521         5.73391        0.519811 
        4.90093         5.67488        0.515639 
        4.91663         5.65412        0.511517 
        4.93234         5.61473        0.507436 
        4.94807         5.57832        0.503397 
        4.96377         5.53843        0.499409 
        4.97943         5.48541        0.495474 
        4.99514         5.44718         0.49157 
        5.01086         5.42085        0.487706 
        5.02654         5.37322        0.483893 
        5.04227          5.3349         0.48011 
          5.058         5.30741        0.476366 
        5.07371         5.26442         0.47267 
        5.08942         5.21908        0.469012 
        5.10513         5.19195        0.465392 
        5.12084         5.15661         0.46181 
        5.13656         5.12338        0.458265 
        5.15225         5.10267        0.454764 
        5.16796         5.05443        0.451295 
        5.18369         5.01584        0.447858 
         5.1994         4.98861        0.444463 
        5.21509         4.95049        0.441107 
        5.23079         4.91995        0.437782 
        5.24649         4.88136        0.434493 
        5.26217         4.85807        0.431241 
        5.27788         4.81465        0.428018 
        5.29359          4.7819        0.424827 
        5.30933         4.75523        0.421664 
        5.32504         4.71268        0.418539 
        5.34073         4.68661        0.415449 
        5.35646           4.647        0.412384 
        5.37218         4.62036        0.409349 
        5.38789         4.59228         0.40635 
        5.40357         4.55487        0.403385 
        5.41929         4.53002        0.400443 
        5.43502         4.49835         0.39753 
         5.4507         4.46722        0.394653 
        5.46639         4.42865        0.391804 
        5.48212         4.40036        0.388976 
        5.49786         4.37754        0.386174 
        5.51353          4.3459        0.383412 
        5.52921         4.31574        0.380676 
        5.54495         4.29774        0.377958 
        5.56066         4.26645        0.375269 
        5.57637         4.23043        0.372607 
        5.59207           4.202        0.369974 
        5.60778         4.18891        0.367365 
        5.62346         4.15809        0.364784 
        5.63916         4.12781        0.362227 
        5.65487         4.08679        0.359692 
         5.6706         4.06586        0.357179 
        5.68633         4.04214        0.354689 
        5.70203         4.01686        0.352228 
        5.71773         3.99518        0.349791 
        5.73344         3.97033        0.347376 
        5.74916         3.94355        0.344981 
        5.76486         3.92162        0.342612 
        5.78054         3.88973         0.34027 
        5.79626         3.86253        0.337942 
          5.812         3.84872        0.335635 
         5.8277         3.81905        0.333355 
        5.84339         3.79321        0.331097 
        5.85911         3.77499        0.328855 
        5.87484         3.75024        0.326635 
        5.89053         3.72788         0.32444 
        5.90623         3.70598        0.322264 
        5.92195         3.67218        0.320104 
        5.93767         3.66437        0.317965 
        5.95336         3.63912        0.315849 
        5.96905         3.60103        0.313754 
        5.98476         3.58652        0.311674 
        6.00048         3.56145        0.309613 
        6.01617         3.54694        0.307573 
        6.03185         3.52847        0.305554 
        6.04756         3.50624        0.303549 
        6.06331         3.47653        0.301557 
        6.07903         3.45272        0.299588 
        6.09473         3.44156        0.297638 
        6.11044         3.41458        0.295703 
        6.12616         3.40503        0.293786 
        6.14186         3.37913        0.291888 
        6.15755         3.35833        0.290007 
        6.17326         3.33537        0.288142 
        6.18898         3.31565        0.286291 
        6.20467          3.2979        0.284461 
        6.22036          3.2794        0.282646 
         6.2361          3.2564        0.280843 
         6.2518         3.24275        0.279058 
        6.26748         3.21931        0.277293 
        6.28319         3.19864        0.275538 
        6.29893         3.18236        0.273797 
        6.31463         3.15273        0.272074 
        6.33033         3.14997        0.270367 
        6.34604         3.11945        0.268673 
        6.36177         3.10693        0.266991 
        6.37747         3.08397        0.265328 
