# k  (h/Mpc)    Pcb(k)  (Mpc/h)^3    Pcb_linear(k) (Mpc/h)^3   ShotnoiseSubtracted = true
      0.0200456          4154.2         4222.14 
      0.0350414         2951.08         2993.65 
      0.0492313         2154.01         2153.23 
      0.0637834         1832.43          1807.4 
      0.0800726         1449.12         1430.42 
       0.096163         1012.62         1021.65 
       0.111083         804.823         817.071 
       0.126058         740.242         733.242 
       0.142273         633.038         618.189 
       0.158546         505.876         483.078 
        0.17375         414.317         409.282 
       0.188953         391.348         373.884 
       0.204907         362.231         329.833 
       0.220756         301.093         277.183 
        0.23588         263.314          241.92 
         0.2514         234.789         221.258 
       0.267535         219.287         200.035 
       0.283568         196.903         175.671 
       0.299022         180.017         156.785 
       0.314451         162.912         143.938 
       0.330372         151.498         132.087 
       0.346141         136.639         119.647 
       0.361624         128.337         108.821 
       0.377134         120.885         100.412 
       0.392932          108.42         92.9994 
       0.408854         104.292         85.6688 
       0.424564         99.3156         78.9899 
       0.440253         92.1555         73.3565 
       0.455999         86.7532         68.4161 
       0.471626          80.653         63.8072 
        0.48727         77.7158           59.51 
       0.502856          73.546         55.6875 
       0.518488         70.6259         52.2748 
       0.534347         67.8772         49.0751 
       0.550082         62.3177         46.1218 
       0.565732         58.9382         43.4315 
       0.581496          57.224           40.97 
       0.597222         55.3561         38.7034 
       0.612804         52.0356         36.6154 
       0.628434         50.5352         34.6713 
       0.644267         49.1256          32.855 
       0.660051         47.0699         31.1798 
       0.675724         44.8053         29.6316 
       0.691403         43.4446         28.1873 
       0.707174         42.1396         26.8314 
       0.722871         40.5687         25.5702 
        0.73838         39.3406         24.4038 
       0.754018         37.5849         23.3016 
       0.769845          36.641         22.2558 
        0.78569         35.5633         21.2735 
       0.801365         34.2612         20.3606 
       0.817031         33.4966         19.5024 
       0.832809          32.852         18.6887 
       0.848511         30.9478         17.9255 
       0.864097         30.4262         17.2107 
       0.879701         29.7855         16.5345 
       0.895507          29.171          15.887 
       0.911279         28.2326         15.2759 
        0.92691         27.5719         14.7023 
       0.942635         26.5263         14.1552 
       0.958396         26.1601          13.635 
       0.974128         25.3621         13.1422 
       0.989692         25.0833         12.6788 
        1.00528         24.4887         12.2372 
        1.02113         23.5551         11.8099 
        1.03692         23.0875         11.4048 
        1.05264         22.7084         11.0207 
        1.06832         22.1362          10.655 
        1.08405         21.6145         10.3051 
        1.09979         21.1819         9.97076 
        1.11537          20.747         9.65472 
        1.13105         20.4529         9.35061 
        1.14679         20.1602         9.05852 
        1.16256         19.4249         8.77845 
        1.17828         19.3623         8.51123 
        1.19395         18.7494         8.25612 
         1.2097          18.598         8.01026 
        1.22537         18.1434         7.77567 
          1.241          17.834         7.55127 
        1.25666         17.3862         7.33522 
        1.27241         17.0708         7.12669 
        1.28819         16.7378         6.92597 
        1.30392         16.6079         6.73363 
        1.31957         16.3826          6.5495 
        1.33529         16.1029         6.37163 
        1.35108         15.7205         6.19972 
        1.36674         15.5479         6.03542 
         1.3824         15.1855         5.87727 
        1.39811         14.9658         5.72431 
        1.41389         14.8116         5.57624 
        1.42964         14.5835          5.4337 
        1.44531         14.4503         5.29687 
        1.46101         14.0303         5.16449 
        1.47667         13.8839         5.03707 
        1.49229         13.7128         4.91432 
        1.50793         13.5118         4.79554 
        1.52367         13.3037         4.67995 
        1.53953         13.1366         4.56743 
        1.55526         12.9281         4.45952 
        1.57092         12.7254         4.35557 
        1.58662         12.6101         4.25471 
        1.60235         12.3993         4.15687 
        1.61809         12.2631         4.06208 
        1.63369         12.0865          3.9711 
        1.64941         11.8757         3.88228 
        1.66519         11.8052         3.79587 
        1.68085          11.612         3.71272 
        1.69652         11.4538         3.63206 
        1.71228         11.2966         3.55334 
        1.72806         11.2261         3.47692 
        1.74368         11.0276         3.40352 
        1.75933         10.9173          3.3321 
        1.77505         10.7727         3.26242 
        1.79081         10.5961         3.19461 
         1.8065         10.5289         3.12904 
        1.82218         10.3431         3.06537 
        1.83797         10.2593         3.00305 
        1.85367         10.1097         2.94282 
        1.86928         10.0955         2.88461 
        1.88497          9.8646         2.82767 
        1.90073         9.83431         2.77206 
        1.91647         9.73146         2.71801 
        1.93218         9.63368         2.66552 
        1.94787         9.48117         2.61451 
        1.96363         9.41444         2.56463 
        1.97935         9.26012         2.51617 
        1.99499         9.14038         2.46923 
        2.01064         9.06298         2.42344 
         2.0264         8.98324         2.37852 
        2.04216         8.87739         2.33477 
        2.05781         8.74896         2.29241 
        2.07353         8.70015         2.25095 
        2.08928         8.61038         2.21043 
        2.10499         8.55832         2.17102 
        2.12065         8.41672          2.1327 
        2.13633         8.39321         2.09527 
        2.15211         8.25914          2.0585 
        2.16785         8.19985         2.02273 
        2.18349         8.13176         1.98803 
        2.19916         8.03896         1.95408 
        2.21489         7.94519         1.92081 
        2.23063         7.87501          1.8883 
         2.2463          7.7769          1.8567 
        2.26194         7.69757         1.82589 
        2.27765         7.66822         1.79564 
        2.29341         7.58194         1.76599 
        2.30914         7.47372         1.73708 
        2.32486         7.40592         1.70883 
        2.34061         7.35851         1.68117 
        2.35635         7.31845         1.65415 
        2.37203         7.23378         1.62781 
        2.38768         7.12789         1.60211 
        2.40339         7.09862         1.57688 
        2.41914         6.99119         1.55213 
        2.43483         6.97454           1.528 
         2.4505         6.90591         1.50443 
        2.46622         6.84057         1.48128 
        2.48195          6.7639         1.45861 
        2.49759         6.73627         1.43654 
        2.51328         6.65774         1.41488 
        2.52906         6.62724         1.39352 
        2.54479         6.54803         1.37269 
        2.56049         6.50387         1.35233 
        2.57618         6.45342          1.3324 
        2.59189         6.36368         1.31284 
        2.60758         6.35314         1.29371 
        2.62325         6.27554         1.27498 
        2.63898         6.19754         1.25657 
        2.65468         6.14069         1.23855 
        2.67044         6.11515         1.22082 
        2.68618         6.07113         1.20347 
        2.70184         6.00944         1.18653 
        2.71755         5.95251         1.16988 
        2.73329         5.91987         1.15352 
        2.74897         5.88725         1.13753 
        2.76462         5.83795         1.12188 
        2.78034         5.76037         1.10646 
        2.79607         5.72321         1.09131 
        2.81179          5.6967         1.07647 
        2.82749         5.62678         1.06192 
        2.84321         5.63179         1.04763 
        2.85893           5.569          1.0336 
        2.87462         5.49964         1.01986 
        2.89033         5.46672         1.00635 
        2.90605         5.41648        0.993079 
        2.92176         5.36575        0.980054 
        2.93747         5.32817        0.967271 
        2.95318         5.30724        0.954714 
        2.96891          5.2533        0.942375 
        2.98456         5.21681         0.93031 
        3.00023         5.16066        0.918439 
        3.01596         5.13381        0.906739 
        3.03164         5.11455        0.895278 
        3.04738         5.07102        0.883982 
         3.0631         5.01893        0.872885 
        3.07883         4.98449         0.86198 
        3.09456         4.95123        0.851263 
        3.11026         4.92462        0.840745 
        3.12596         4.88299        0.830408 
        3.14163         4.83339        0.820268 
        3.15734         4.80048        0.810275 
        3.17308         4.77433        0.800425 
        3.18879         4.73032        0.790767 
        3.20447         4.71745        0.781282 
         3.2202         4.65352        0.771924 
         3.2359          4.6427        0.762737 
        3.25157           4.593        0.753722 
        3.26729         4.58079        0.744826 
        3.28304         4.53738        0.736057 
        3.29877         4.50056         0.72744 
        3.31446         4.46509        0.718982 
        3.33014         4.44607        0.710665 
        3.34585         4.41728        0.702468 
        3.36158         4.38944        0.694389 
        3.37727         4.35609        0.686462 
        3.39294          4.3399        0.678667 
        3.40867         4.28849        0.670966 
        3.42439         4.26995        0.663388 
        3.44008         4.23215        0.655943 
        3.45578         4.20181        0.648607 
        3.47153         4.17797        0.641368 
        3.48724         4.15063        0.634252 
        3.50292         4.12592        0.627261 
        3.51859         4.09491         0.62038 
        3.53431         4.05569         0.61358 
        3.55007         4.04436        0.606867 
        3.56577         4.02419         0.60028 
        3.58146         3.99781        0.593795 
        3.59719         3.96982         0.58739 
        3.61292         3.94288        0.581083 
        3.62859         3.90396        0.574893 
        3.64429         3.87941        0.568781 
        3.66003         3.86486         0.56274 
        3.67578         3.84051        0.556789 
        3.69146          3.7976        0.550947 
        3.70712         3.78635        0.545199 
        3.72284         3.75817        0.539513 
        3.73853         3.73888        0.533918 
        3.75422         3.71133          0.5284 
        3.76993         3.68279        0.522957 
        3.78564         3.66518        0.517592 
        3.80137         3.64892        0.512294 
        3.81707         3.61467        0.507081 
        3.83279         3.59277        0.501938 
        3.84853          3.5597        0.496857 
        3.86424         3.54565        0.491857 
        3.87992          3.5222        0.486934 
        3.89561         3.51121        0.482077 
        3.91134          3.4769        0.477278 
        3.92704         3.45731        0.472549 
        3.94273         3.43685         0.46789 
        3.95845         3.41675        0.463285 
        3.97418         3.39205        0.458742 
        3.98988         3.37207        0.454265 
        4.00554         3.34622        0.449861 
        4.02125         3.31601        0.445503 
        4.03698         3.30063        0.441196 
        4.05268         3.27649        0.436956 
        4.06839         3.26705        0.432769 
         4.0841         3.23571        0.428638 
        4.09983         3.21138        0.424555 
        4.11555         3.19334        0.420528 
        4.13124         3.17153        0.416564 
        4.14693         3.14985        0.412647 
        4.16266         3.13263        0.408773 
        4.17839         3.11243        0.404951 
        4.19408         3.08734        0.401186 
        4.20977         3.06981        0.397468 
        4.22551          3.0418        0.393788 
        4.24123         3.02846        0.390159 
        4.25691         3.00823        0.386585 
        4.27259         2.99815        0.383055 
        4.28831         2.97232        0.379563 
        4.30404         2.95348        0.376111 
        4.31974         2.94095        0.372709 
        4.33543         2.91832        0.369352 
        4.35116         2.89406        0.366028 
        4.36688         2.88947        0.362746 
        4.38255         2.86502        0.359517 
        4.39825         2.85044         0.35632 
        4.41398         2.83796        0.353156 
         4.4297         2.81412        0.350034 
        4.44541         2.79822        0.346951 
        4.46111         2.78283        0.343907 
        4.47683         2.75466        0.340897 
        4.49251         2.74797         0.33793 
        4.50819         2.73073        0.334999 
         4.5239         2.71519        0.332099 
        4.53962         2.70142        0.329229 
        4.55535         2.68605        0.326393 
        4.57106         2.67138        0.323593 
        4.58678         2.65225        0.320827 
         4.6025         2.63606        0.318091 
        4.61821         2.62414        0.315389 
        4.63391         2.60874        0.312721 
         4.6496         2.59377        0.310086 
        4.66532         2.56667        0.307477 
        4.68103         2.56074        0.304899 
        4.69673          2.5444        0.302353 
        4.71241         2.52716        0.299839 
        4.72811         2.51686         0.29735 
        4.74384         2.50514        0.294885 
        4.75955         2.49225        0.292453 
        4.77525         2.48072        0.290049 
        4.79096         2.45856         0.28767 
        4.80669         2.44839        0.285316 
         4.8224         2.44346        0.282991 
        4.83809         2.42226        0.280695 
        4.85379         2.40997        0.278423 
         4.8695         2.39723        0.276174 
        4.88521         2.38234        0.273952 
        4.90093         2.36634        0.271753 
        4.91663         2.35282        0.269581 
        4.93234         2.34071         0.26743 
        4.94807         2.32873        0.265301 
        4.96377         2.31341          0.2632 
        4.97943          2.3048        0.261125 
        4.99514          2.2896        0.259068 
        5.01086         2.27361        0.257032 
        5.02654         2.26455        0.255022 
        5.04227         2.25773        0.253029 
          5.058         2.24487        0.251055 
        5.07371         2.23001        0.249107 
        5.08942         2.22182        0.247179 
        5.10513         2.20788        0.245272 
        5.12084         2.19969        0.243384 
        5.13656         2.18546        0.241516 
        5.15225         2.17138        0.239671 
        5.16796         2.15753        0.237842 
        5.18369         2.14761        0.236031 
         5.1994         2.14192        0.234242 
        5.21509         2.12613        0.232473 
        5.23079         2.11784         0.23072 
        5.24649         2.10532        0.228987 
        5.26217         2.09889        0.227273 
        5.27788         2.08092        0.225575 
        5.29359         2.07634        0.223893 
        5.30933         2.06696        0.222226 
        5.32504         2.05293        0.220579 
        5.34073         2.04401         0.21895 
        5.35646          2.0315        0.217335 
        5.37218         2.01971        0.215736 
        5.38789         2.01939        0.214155 
        5.40357         2.00563        0.212593 
        5.41929         1.99594        0.211042 
        5.43502         1.98625        0.209507 
         5.4507         1.97712         0.20799 
        5.46639          1.9685        0.206489 
        5.48212         1.95697        0.204999 
        5.49786         1.95298        0.203522 
        5.51353         1.93417        0.202067 
        5.52921         1.92923        0.200624 
        5.54495         1.92045        0.199192 
        5.56066         1.91209        0.197775 
        5.57637         1.90283        0.196372 
        5.59207         1.89452        0.194984 
        5.60778         1.88656        0.193609 
        5.62346          1.8771        0.192249 
        5.63916         1.86456        0.190901 
        5.65487         1.85634        0.189566 
         5.6706         1.85136        0.188241 
        5.68633         1.83764        0.186929 
        5.70203         1.83121        0.185632 
        5.71773         1.82621        0.184347 
        5.73344         1.81418        0.183075 
        5.74916         1.80188        0.181813 
        5.76486         1.80026        0.180564 
        5.78054         1.79139         0.17933 
        5.79626         1.78088        0.178103 
          5.812         1.77465        0.176887 
         5.8277         1.76264        0.175685 
        5.84339          1.7591        0.174495 
        5.85911         1.74897        0.173314 
        5.87484         1.74471        0.172144 
        5.89053         1.73415        0.170987 
        5.90623         1.72514         0.16984 
        5.92195         1.71745        0.168702 
        5.93767         1.71218        0.167574 
        5.95336         1.70213        0.166459 
        5.96905         1.69677        0.165355 
        5.98476         1.68605        0.164259 
        6.00048         1.67955        0.163173 
        6.01617         1.67434        0.162098 
        6.03185         1.66701        0.161034 
        6.04756         1.65891        0.159977 
        6.06331         1.65167        0.158927 
        6.07903         1.64517        0.157889 
        6.09473         1.64256        0.156861 
        6.11044         1.63006        0.155842 
        6.12616         1.62264        0.154832 
        6.14186         1.61613        0.153831 
        6.15755         1.61072         0.15284 
        6.17326         1.60392        0.151857 
        6.18898         1.59577        0.150882 
        6.20467         1.59024        0.149917 
        6.22036         1.58231        0.148961 
         6.2361         1.57701         0.14801 
         6.2518         1.56991         0.14707 
        6.26748         1.56194        0.146139 
        6.28319         1.55761        0.145215 
        6.29893         1.55428        0.144297 
        6.31463         1.54455        0.143389 
        6.33033         1.53659        0.142489 
        6.34604         1.52994        0.141596 
        6.36177         1.52637         0.14071 
        6.37747         1.51919        0.139834 
