# k  (h/Mpc)    Pcb(k)  (Mpc/h)^3    Pcb_linear(k) (Mpc/h)^3   ShotnoiseSubtracted = true
      0.0200456         6528.78         6642.91 
      0.0350414          4617.1         4710.07 
      0.0492313         3379.69         3387.79 
      0.0637834         2889.93         2843.67 
      0.0800726         2284.51         2250.55 
       0.096163         1587.22         1607.42 
       0.111083         1261.98         1285.54 
       0.126058         1167.16         1153.65 
       0.142273         1001.55         972.628 
       0.158546         810.647         760.052 
        0.17375         658.659         643.944 
       0.188953         629.213         588.251 
       0.204907         586.301         518.942 
       0.220756         490.125         436.107 
        0.23588         429.608         380.625 
         0.2514         380.203         348.116 
       0.267535         360.735         314.725 
       0.283568         325.655         276.392 
       0.299022         299.962         246.678 
       0.314451         275.187         226.465 
       0.330372         255.186          207.82 
       0.346141         229.484         188.246 
       0.361624         218.375         171.214 
       0.377134         205.016         157.983 
       0.392932         187.518         146.321 
       0.408854         179.936         134.787 
       0.424564         172.351         124.279 
       0.440253          162.09         115.416 
       0.455999          152.48         107.643 
       0.471626         141.083         100.391 
        0.48727         136.846         93.6301 
       0.502856         130.857          87.616 
       0.518488         127.087         82.2467 
       0.534347          121.49         77.2123 
       0.550082         112.342         72.5658 
       0.565732         108.014          68.333 
       0.581496         103.829         64.4602 
       0.597222         100.434         60.8941 
       0.612804         95.4882         57.6089 
       0.628434         93.3806         54.5502 
       0.644267         90.2383         51.6924 
       0.660051         87.8359         49.0567 
       0.675724         84.5483         46.6209 
       0.691403         82.0084         44.3486 
       0.707174         79.1368         42.2152 
       0.722871         77.2657         40.2309 
        0.73838         75.5783         38.3958 
       0.754018         71.8443         36.6617 
       0.769845         70.4125         35.0162 
        0.78569         68.6102         33.4707 
       0.801365         66.3108         32.0344 
       0.817031         64.3579         30.6841 
       0.832809         63.5538         29.4039 
       0.848511         60.6432         28.2032 
       0.864097         59.2381         27.0784 
       0.879701         58.3962         26.0146 
       0.895507         57.4035         24.9959 
       0.911279         56.0823         24.0343 
        0.92691         54.6642         23.1318 
       0.942635         52.7737         22.2711 
       0.958396         52.5454         21.4527 
       0.974128         51.1432         20.6773 
       0.989692         50.1921         19.9482 
        1.00528         49.1335         19.2535 
        1.02113         47.7843         18.5812 
        1.03692          46.708         17.9437 
        1.05264         46.3237         17.3394 
        1.06832         45.0478          16.764 
        1.08405          44.483         16.2135 
        1.09979         43.7807         15.6875 
        1.11537         42.2088         15.1903 
        1.13105         42.4208         14.7118 
        1.14679         41.5825         14.2522 
        1.16256         40.6013         13.8116 
        1.17828         39.7263         13.3912 
        1.19395         39.1664         12.9898 
         1.2097         38.6352          12.603 
        1.22537         38.2727         12.2339 
          1.241         37.3068         11.8808 
        1.25666         36.4878         11.5409 
        1.27241          36.191         11.2128 
        1.28819         35.1959          10.897 
        1.30392         34.8269         10.5944 
        1.31957         34.5818         10.3047 
        1.33529         34.2098         10.0248 
        1.35108         33.5797         9.75433 
        1.36674         32.9708         9.49584 
         1.3824         32.2161         9.24701 
        1.39811         32.1172         9.00635 
        1.41389          31.638         8.77338 
        1.42964         31.0456         8.54911 
        1.44531         30.8096         8.33383 
        1.46101         30.0374         8.12556 
        1.47667         29.8941         7.92508 
        1.49229          29.607         7.73194 
        1.50793         29.1031         7.54507 
        1.52367         28.8069         7.36321 
        1.53953         28.5486         7.18617 
        1.55526         27.9695          7.0164 
        1.57092         27.6489         6.85285 
        1.58662         27.2834         6.69416 
        1.60235         26.9786         6.54022 
        1.61809         26.6168         6.39108 
        1.63369         26.3043         6.24794 
        1.64941         25.8384         6.10819 
        1.66519         25.6904         5.97223 
        1.68085         25.3183         5.84141 
        1.69652         25.0391          5.7145 
        1.71228         24.8265         5.59066 
        1.72806         24.4283         5.47041 
        1.74368         24.0957         5.35493 
        1.75933         23.8338         5.24257 
        1.77505         23.6834         5.13293 
        1.79081         23.3031         5.02625 
         1.8065         23.1233         4.92308 
        1.82218          22.848         4.82291 
        1.83797         22.5062         4.72486 
        1.85367         22.2686         4.63009 
        1.86928         22.0543         4.53851 
        1.88497         21.7138         4.44892 
        1.90073         21.7353         4.36143 
        1.91647         21.3269         4.27639 
        1.93218         21.1468          4.1938 
        1.94787         20.9698         4.11354 
        1.96363         20.8044         4.03506 
        1.97935         20.5566         3.95881 
        1.99499         20.2878         3.88497 
        2.01064         20.1375         3.81292 
         2.0264         19.7922         3.74225 
        2.04216         19.6347         3.67342 
        2.05781         19.4249         3.60676 
        2.07353         19.2389         3.54153 
        2.08928         19.1487         3.47778 
        2.10499         18.8786         3.41578 
        2.12065         18.5682         3.35548 
        2.13633         18.5463          3.2966 
        2.15211         18.2144         3.23875 
        2.16785         18.1542         3.18246 
        2.18349         17.9613         3.12787 
        2.19916         17.7656         3.07446 
        2.21489         17.5895         3.02212 
        2.23063         17.4262         2.97097 
         2.2463         17.2572         2.92123 
        2.26194         17.1464         2.87277 
        2.27765         16.9109         2.82517 
        2.29341         16.7124         2.77852 
        2.30914         16.5962         2.73303 
        2.32486         16.4949         2.68859 
        2.34061          16.298         2.64507 
        2.35635         16.0726         2.60255 
        2.37203         16.0002         2.56112 
        2.38768         15.8621         2.52069 
        2.40339         15.6456         2.48098 
        2.41914         15.5202         2.44204 
        2.43483         15.4008         2.40408 
         2.4505         15.2083           2.367 
        2.46622         15.1002         2.33057 
        2.48195         14.9534         2.29491 
        2.49759          14.822         2.26019 
        2.51328         14.6701          2.2261 
        2.52906         14.5742          2.1925 
        2.54479          14.432         2.15973 
        2.56049         14.3326         2.12769 
        2.57618         14.2189         2.09633 
        2.59189         14.0505         2.06556 
        2.60758         13.9598         2.03546 
        2.62325         13.8539           2.006 
        2.63898         13.6744         1.97702 
        2.65468         13.6039         1.94868 
        2.67044         13.4358         1.92077 
        2.68618         13.3466         1.89348 
        2.70184         13.2142         1.86683 
        2.71755         13.0731         1.84063 
        2.73329         12.9834         1.81489 
        2.74897         12.8506         1.78973 
        2.76462         12.8371         1.76511 
        2.78034         12.6211         1.74085 
        2.79607         12.5229         1.71702 
        2.81179         12.4082         1.69367 
        2.82749         12.3295         1.67078 
        2.84321         12.1753         1.64828 
        2.85893         12.1096         1.62622 
        2.87462         12.0264         1.60459 
        2.89033         11.8542         1.58334 
        2.90605         11.7846         1.56246 
        2.92176          11.718         1.54197 
        2.93747         11.6117         1.52186 
        2.95318         11.4797          1.5021 
        2.96891         11.3831         1.48269 
        2.98456         11.3129          1.4637 
        3.00023         11.2356         1.44503 
        3.01596         11.1222         1.42662 
        3.03164          11.053         1.40859 
        3.04738         10.9222         1.39081 
         3.0631         10.8359         1.37336 
        3.07883         10.7274          1.3562 
        3.09456          10.673         1.33934 
        3.11026         10.5278         1.32279 
        3.12596         10.5135         1.30652 
        3.14163         10.3979         1.29057 
        3.15734         10.3021         1.27485 
        3.17308         10.2382         1.25935 
        3.18879         10.1848         1.24415 
        3.20447         10.0456         1.22923 
         3.2202          9.9702         1.21451 
         3.2359         9.93204         1.20005 
        3.25157         9.84705         1.18587 
        3.26729         9.75034         1.17187 
        3.28304         9.65602         1.15808 
        3.29877          9.5726         1.14452 
        3.31446         9.52307         1.13121 
        3.33014         9.41993         1.11813 
        3.34585          9.3935         1.10523 
        3.36158           9.307         1.09252 
        3.37727         9.21187         1.08005 
        3.39294         9.14446         1.06778 
        3.40867         9.02787         1.05566 
        3.42439         8.99299         1.04374 
        3.44008         8.92347         1.03203 
        3.45578         8.85301         1.02049 
        3.47153         8.81641          1.0091 
        3.48724         8.74029        0.997901 
        3.50292          8.6534        0.986902 
        3.51859          8.5977        0.976075 
        3.53431         8.51769        0.965377 
        3.55007         8.45997        0.954814 
        3.56577         8.40943        0.944451 
        3.58146          8.3398        0.934247 
        3.59719         8.26409        0.924171 
        3.61292         8.20144        0.914248 
        3.62859         8.12468        0.904508 
        3.64429         8.08049        0.894892 
        3.66003         7.99944        0.885387 
        3.67578         7.92127        0.876024 
        3.69146         7.89243        0.866833 
        3.70712         7.84398         0.85779 
        3.72284         7.75658        0.848843 
        3.73853         7.71635         0.84004 
        3.75422         7.65448        0.831359 
        3.76993          7.5978        0.822794 
        3.78564         7.52588        0.814353 
        3.80137         7.48022        0.806018 
        3.81707         7.41194        0.797817 
        3.83279         7.38902        0.789724 
        3.84853          7.3173         0.78173 
        3.86424         7.23853        0.773864 
        3.87992         7.18421        0.766117 
        3.89561         7.15527        0.758477 
        3.91134         7.08993        0.750926 
        3.92704         7.03833        0.743486 
        3.94273         6.98605        0.736155 
        3.95845         6.94607         0.72891 
        3.97418         6.87633        0.721761 
        3.98988          6.8373        0.714719 
        4.00554           6.779        0.707789 
        4.02125         6.72585        0.700932 
        4.03698         6.68505        0.694156 
        4.05268         6.63925        0.687485 
        4.06839         6.58095        0.680897 
         4.0841         6.53752        0.674398 
        4.09983         6.50601        0.667974 
        4.11555         6.45665        0.661638 
        4.13124         6.41193        0.655401 
        4.14693          6.3413        0.649239 
        4.16266         6.29646        0.643143 
        4.17839         6.24502        0.637129 
        4.19408         6.19166        0.631206 
        4.20977         6.14871        0.625356 
        4.22551          6.1073        0.619566 
        4.24123         6.05767        0.613856 
        4.25691         6.01497        0.608234 
        4.27259          5.9809        0.602681 
        4.28831         5.93055        0.597186 
        4.30404         5.87757        0.591754 
        4.31974         5.84008        0.586402 
        4.33543         5.79732         0.58112 
        4.35116         5.75645         0.57589 
        4.36688         5.70859        0.570727 
        4.38255         5.66219        0.565646 
        4.39825         5.62375        0.560617 
        4.41398         5.59096        0.555639 
         4.4297         5.56735        0.550727 
        4.44541           5.509        0.545875 
        4.46111         5.49505        0.541086 
        4.47683         5.42175        0.536351 
        4.49251         5.40419        0.531683 
        4.50819         5.35744        0.527071 
         4.5239         5.31427        0.522508 
        4.53962         5.29162        0.517993 
        4.55535         5.23725         0.51353 
        4.57106         5.20674        0.509126 
        4.58678         5.17783        0.504773 
         4.6025           5.125         0.50047 
        4.61821         5.09865        0.496218 
        4.63391         5.06727        0.492021 
         4.6496         5.02519        0.487874 
        4.66532         5.00494        0.483769 
        4.68103          4.9484        0.479713 
        4.69673         4.92734        0.475708 
        4.71241         4.89242        0.471752 
        4.72811         4.85318        0.467835 
        4.74384         4.82454        0.463958 
        4.75955         4.77839        0.460131 
        4.77525         4.75752        0.456349 
        4.79096          4.7195        0.452606 
        4.80669          4.6876        0.448902 
         4.8224          4.6672        0.445245 
        4.83809         4.62527        0.441632 
        4.85379          4.5827        0.438057 
         4.8695         4.56146        0.434519 
        4.88521           4.536        0.431022 
        4.90093          4.4949        0.427563 
        4.91663         4.46958        0.424145 
        4.93234         4.44958        0.420761 
        4.94807         4.40829        0.417412 
        4.96377         4.38023        0.414105 
        4.97943         4.34699        0.410842 
        4.99514         4.31678        0.407605 
        5.01086         4.28671        0.404401 
        5.02654         4.26833         0.40124 
        5.04227         4.23911        0.398103 
          5.058         4.20478        0.394998 
        5.07371         4.18078        0.391933 
        5.08942         4.15499          0.3889 
        5.10513         4.12907        0.385899 
        5.12084         4.10324        0.382928 
        5.13656         4.07934        0.379989 
        5.15225         4.05233        0.377086 
        5.16796         4.01869        0.374209 
        5.18369         3.99241        0.371359 
         5.1994         3.97119        0.368545 
        5.21509           3.943        0.365762 
        5.23079         3.92218        0.363004 
        5.24649         3.88671        0.360278 
        5.26217         3.87132        0.357581 
        5.27788         3.83958        0.354908 
        5.29359         3.81221        0.352262 
        5.30933         3.78878         0.34964 
        5.32504          3.7725        0.347048 
        5.34073         3.74113        0.344486 
        5.35646         3.71745        0.341945 
        5.37218         3.69427        0.339428 
        5.38789         3.67681        0.336942 
        5.40357         3.64815        0.334483 
        5.41929         3.61992        0.332043 
        5.43502         3.60623        0.329628 
         5.4507         3.57423        0.327242 
        5.46639         3.55584         0.32488 
        5.48212         3.54111        0.322535 
        5.49786         3.52273        0.320211 
        5.51353         3.48956        0.317922 
        5.52921         3.46492        0.315652 
        5.54495          3.4389        0.313399 
        5.56066          3.4289        0.311169 
        5.57637         3.40445        0.308962 
        5.59207         3.38571        0.306778 
        5.60778         3.36443        0.304615 
        5.62346         3.33414        0.302476 
        5.63916         3.31786        0.300355 
        5.65487         3.30375        0.298253 
         5.6706         3.28567        0.296169 
        5.68633         3.26378        0.294105 
        5.70203          3.2353        0.292064 
        5.71773         3.22921        0.290043 
        5.73344         3.20996        0.288041 
        5.74916         3.19131        0.286055 
        5.76486         3.16397        0.284091 
        5.78054         3.14699        0.282148 
        5.79626         3.13146        0.280218 
          5.812         3.11864        0.278305 
         5.8277         3.09949        0.276415 
        5.84339         3.07478        0.274542 
        5.85911         3.05882        0.272684 
        5.87484         3.04473        0.270843 
        5.89053         3.01641        0.269022 
        5.90623          3.0017        0.267218 
        5.92195          2.9847        0.265427 
        5.93767         2.97305        0.263653 
        5.95336          2.9551        0.261899 
        5.96905         2.93768        0.260161 
        5.98476         2.92088        0.258437 
        6.00048         2.90099        0.256728 
        6.01617         2.88391        0.255037 
        6.03185         2.86458        0.253363 
        6.04756         2.85224          0.2517 
        6.06331         2.82664        0.250048 
        6.07903         2.81799        0.248415 
        6.09473         2.80431        0.246798 
        6.11044         2.78464        0.245194 
        6.12616         2.77103        0.243605 
        6.14186         2.75835        0.242031 
        6.15755         2.73827        0.240471 
        6.17326         2.72633        0.238924 
        6.18898         2.70987         0.23739 
        6.20467         2.69243        0.235872 
        6.22036         2.67257        0.234367 
         6.2361         2.66377        0.232872 
         6.2518         2.64716        0.231392 
        6.26748         2.63176        0.229929 
        6.28319         2.61718        0.228473 
        6.29893         2.60461         0.22703 
        6.31463         2.59132        0.225601 
        6.33033         2.57941        0.224185 
        6.34604         2.56086        0.222781 
        6.36177          2.5476        0.221387 
        6.37747         2.53452        0.220007 
