# k  (h/Mpc)    Pcb(k)  (Mpc/h)^3    Pcb_linear(k) (Mpc/h)^3   ShotnoiseSubtracted = true
      0.0200456         13107.7         13375.3 
      0.0350414         9180.42         9483.61 
      0.0492313         6751.62         6821.23 
      0.0637834         5833.21         5725.66 
      0.0800726         4603.59         4531.44 
       0.096163         3169.34          3236.5 
       0.111083         2529.77          2588.4 
       0.126058         2352.36         2322.84 
       0.142273          2027.7         1958.36 
       0.158546         1697.57         1530.35 
        0.17375         1362.94         1296.57 
       0.188953         1325.26         1184.43 
       0.204907         1242.79         1044.88 
       0.220756         1057.44         878.091 
        0.23588         934.339         766.379 
         0.2514         815.825         700.924 
       0.267535         798.918         633.691 
       0.283568         723.906         556.508 
       0.299022         676.928         496.681 
       0.314451         638.902         455.982 
       0.330372         588.924          418.44 
       0.346141         537.599         379.029 
       0.361624         517.804         344.734 
       0.377134         480.565         318.096 
       0.392932         458.202         294.613 
       0.408854         440.787         271.391 
       0.424564         416.742         250.232 
       0.440253         405.352         232.386 
       0.455999         381.382         216.736 
       0.471626         358.162         202.135 
        0.48727         346.673         188.522 
       0.502856         335.639         176.413 
       0.518488         332.258         165.602 
       0.534347         311.514         155.465 
       0.550082         294.611          146.11 
       0.565732         291.521         137.587 
       0.581496         275.559         129.789 
       0.597222         269.798         122.609 
       0.612804         260.986         115.994 
       0.628434          251.07         109.835 
       0.644267         243.294         104.081 
       0.660051         239.616         98.7746 
       0.675724         234.889           93.87 
       0.691403         228.083         89.2948 
       0.707174         219.092         84.9992 
       0.722871         216.624          81.004 
        0.73838         212.395          77.309 
       0.754018         206.663         73.8174 
       0.769845         199.632         70.5042 
        0.78569         198.535         67.3925 
       0.801365         191.843         64.5005 
       0.817031         186.019         61.7817 
       0.832809         183.788          59.204 
       0.848511         178.751         56.7864 
       0.864097          176.46         54.5218 
       0.879701         172.463         52.3797 
       0.895507         167.877         50.3285 
       0.911279         163.567         48.3925 
        0.92691         163.212         46.5753 
       0.942635         158.982         44.8423 
       0.958396         158.493         43.1945 
       0.974128         154.166         41.6332 
       0.989692         150.425         40.1652 
        1.00528          148.02         38.7664 
        1.02113         147.063         37.4128 
        1.03692         141.993         36.1293 
        1.05264         139.803         34.9124 
        1.06832         137.166          33.754 
        1.08405         135.168         32.6454 
        1.09979          134.48         31.5864 
        1.11537         130.198         30.5852 
        1.13105          129.19         29.6218 
        1.14679         128.409         28.6965 
        1.16256         126.304         27.8093 
        1.17828         123.576         26.9628 
        1.19395         121.654         26.1546 
         1.2097         120.025         25.3757 
        1.22537         118.823         24.6326 
          1.241         116.393         23.9217 
        1.25666         114.479         23.2373 
        1.27241         112.595         22.5767 
        1.28819         111.209         21.9408 
        1.30392         109.653         21.3315 
        1.31957         108.417         20.7482 
        1.33529         105.911         20.1847 
        1.35108         104.814         19.6401 
        1.36674          103.91         19.1196 
         1.3824         101.698         18.6186 
        1.39811         100.761         18.1341 
        1.41389         99.2806          17.665 
        1.42964         97.4511         17.2134 
        1.44531         95.4592           16.78 
        1.46101         94.5893         16.3606 
        1.47667         93.8715          15.957 
        1.49229         92.1319         15.5681 
        1.50793         91.3234         15.1918 
        1.52367         90.0387         14.8256 
        1.53953         88.5274         14.4692 
        1.55526         87.7939         14.1273 
        1.57092         86.9723          13.798 
        1.58662         85.0381         13.4785 
        1.60235         84.7378         13.1686 
        1.61809         83.1863         12.8683 
        1.63369         82.4155         12.5801 
        1.64941         81.6699         12.2987 
        1.66519         79.6104          12.025 
        1.68085         79.1814         11.7615 
        1.69652         77.4354          11.506 
        1.71228         77.3902         11.2567 
        1.72806         76.1319         11.0145 
        1.74368         75.2019          10.782 
        1.75933         74.0024         10.5558 
        1.77505         73.4346          10.335 
        1.79081         72.1511         10.1202 
         1.8065         71.4013          9.9125 
        1.82218         70.2927         9.71081 
        1.83797         69.5962         9.51339 
        1.85367         68.8615         9.32258 
        1.86928         68.5728         9.13818 
        1.88497         67.1142         8.95779 
        1.90073         66.2475         8.78164 
        1.91647         65.8596          8.6104 
        1.93218         64.7941         8.44412 
        1.94787         64.0061         8.28251 
        1.96363         63.1091          8.1245 
        1.97935         62.8006         7.97097 
        1.99499         61.7478          7.8223 
        2.01064         61.2761         7.67722 
         2.0264          60.006         7.53493 
        2.04216         59.5124         7.39634 
        2.05781         58.7986         7.26213 
        2.07353         57.9304         7.13079 
        2.08928         57.2431         7.00243 
        2.10499         56.8287         6.87759 
        2.12065         56.2117         6.75618 
        2.13633         55.6475         6.63762 
        2.15211          55.233         6.52115 
        2.16785         54.5105         6.40781 
        2.18349         53.9883          6.2979 
        2.19916         53.2111         6.19034 
        2.21489         52.7538         6.08496 
        2.23063         52.2603         5.98197 
         2.2463         51.5893         5.88184 
        2.26194         50.7036         5.78426 
        2.27765          50.437         5.68841 
        2.29341         49.8114         5.59449 
        2.30914         49.0492         5.50289 
        2.32486         48.2854         5.41341 
        2.34061         48.0033         5.32578 
        2.35635          47.386         5.24018 
        2.37203         46.8269         5.15676 
        2.38768         46.3823         5.07534 
        2.40339         45.8529          4.9954 
        2.41914         45.5343           4.917 
        2.43483         45.1069         4.84056 
         2.4505         44.6483         4.76589 
        2.46622         44.1133         4.69254 
        2.48195         43.6058         4.62074 
        2.49759         42.9627         4.55084 
        2.51328         42.5047          4.4822 
        2.52906         42.1023         4.41455 
        2.54479         41.5991         4.34856 
        2.56049          41.035         4.28405 
        2.57618         40.7937         4.22091 
        2.59189         40.2338         4.15896 
        2.60758         39.9341         4.09835 
        2.62325         39.3901         4.03903 
        2.63898         39.0421         3.98068 
        2.65468         38.4905         3.92361 
        2.67044         37.9144         3.86743 
        2.68618         37.7622         3.81247 
        2.70184         37.3526         3.75881 
        2.71755          37.111         3.70605 
        2.73329         36.4733         3.65423 
        2.74897         36.1285         3.60358 
        2.76462         35.6543           3.554 
        2.78034          35.492         3.50515 
        2.79607          35.043         3.45717 
        2.81179         34.7059         3.41015 
        2.82749          34.164         3.36407 
        2.84321         33.9506         3.31878 
        2.85893         33.5922         3.27435 
        2.87462         33.1498         3.23081 
        2.89033         32.8166         3.18802 
        2.90605         32.6475         3.14598 
        2.92176          32.225         3.10472 
        2.93747         31.9825         3.06422 
        2.95318         31.5438         3.02444 
        2.96891         31.1205         2.98535 
        2.98456         30.9616         2.94713 
        3.00023         30.5681         2.90953 
        3.01596         30.1971         2.87246 
        3.03164         30.0293         2.83615 
        3.04738         29.7398         2.80037 
         3.0631         29.3887         2.76522 
        3.07883         29.0764         2.73067 
        3.09456         28.8164         2.69672 
        3.11026         28.5134          2.6634 
        3.12596         28.2553         2.63065 
        3.14163         27.9276         2.59853 
        3.15734         27.6826         2.56687 
        3.17308         27.3204         2.53567 
        3.18879         27.1353         2.50507 
        3.20447         26.8619         2.47503 
         3.2202         26.5513         2.44538 
         3.2359         26.3392         2.41628 
        3.25157         26.1369         2.38772 
        3.26729         25.8897         2.35954 
        3.28304         25.5842         2.33176 
        3.29877         25.2595         2.30446 
        3.31446           25.07         2.27767 
        3.33014         24.8426         2.25132 
        3.34585         24.6995         2.22535 
        3.36158         24.3158         2.19976 
        3.37727         24.0795         2.17465 
        3.39294         23.9058         2.14995 
        3.40867         23.6412         2.12556 
        3.42439         23.4131         2.10155 
        3.44008         23.2007         2.07797 
        3.45578         23.0099         2.05473 
        3.47153         22.7668         2.03179 
        3.48724         22.5167         2.00925 
        3.50292          22.362          1.9871 
        3.51859         22.1077          1.9653 
        3.53431         21.9449         1.94376 
        3.55007         21.6804          1.9225 
        3.56577         21.4912         1.90163 
        3.58146         21.3732         1.88108 
        3.59719         21.0806          1.8608 
        3.61292         20.9445         1.84082 
        3.62859         20.6927         1.82121 
        3.64429         20.5012         1.80184 
        3.66003         20.3231         1.78271 
        3.67578         20.1256         1.76385 
        3.69146         19.9745         1.74535 
        3.70712         19.7375         1.72714 
        3.72284         19.5949         1.70913 
        3.73853         19.3985          1.6914 
        3.75422         19.2083         1.67392 
        3.76993         19.0401         1.65668 
        3.78564         18.8331         1.63968 
        3.80137         18.7013          1.6229 
        3.81707         18.5577         1.60639 
        3.83279         18.3622         1.59009 
        3.84853         18.1738           1.574 
        3.86424         18.0534         1.55816 
        3.87992          17.862         1.54256 
        3.89561         17.6781         1.52718 
        3.91134          17.579         1.51197 
        3.92704         17.3944         1.49699 
        3.94273         17.2446         1.48223 
        3.95845         17.0479         1.46764 
        3.97418         16.9454         1.45325 
        3.98988         16.7459         1.43907 
        4.00554         16.6398         1.42512 
        4.02125         16.4713         1.41131 
        4.03698         16.3029         1.39767 
        4.05268         16.2057         1.38423 
        4.06839         15.9782         1.37097 
         4.0841         15.9489         1.35788 
        4.09983         15.7288         1.34495 
        4.11555         15.6208         1.33219 
        4.13124         15.5055         1.31963 
        4.14693         15.3424         1.30723 
        4.16266         15.1934         1.29495 
        4.17839         15.0799         1.28284 
        4.19408          14.935         1.27092 
        4.20977          14.823         1.25914 
        4.22551         14.6951         1.24748 
        4.24123         14.5909         1.23598 
        4.25691         14.4845         1.22466 
        4.27259         14.3326         1.21348 
        4.28831         14.1645         1.20242 
        4.30404         14.0909         1.19148 
        4.31974          13.953         1.18071 
        4.33543         13.8375         1.17007 
        4.35116         13.7118         1.15954 
        4.36688         13.6038         1.14914 
        4.38255         13.4933         1.13892 
        4.39825          13.407         1.12879 
        4.41398         13.2604         1.11877 
         4.4297         13.1413         1.10888 
        4.44541         13.0549         1.09911 
        4.46111         12.9704         1.08946 
        4.47683         12.8242         1.07993 
        4.49251         12.7338         1.07053 
        4.50819         12.6246         1.06125 
         4.5239         12.5473         1.05206 
        4.53962         12.4059         1.04297 
        4.55535         12.3233         1.03398 
        4.57106           12.22         1.02511 
        4.58678          12.093         1.01635 
         4.6025         12.0022         1.00768 
        4.61821         11.9048        0.999122 
        4.63391         11.8535        0.990671 
         4.6496         11.7001        0.982322 
        4.66532         11.6003        0.974057 
        4.68103         11.5048        0.965891 
        4.69673         11.4513        0.957826 
        4.71241         11.3335        0.949862 
        4.72811         11.2541        0.941975 
        4.74384         11.1514        0.934169 
        4.75955         11.0739        0.926463 
        4.77525         10.9875        0.918848 
        4.79096         10.9079        0.911311 
        4.80669         10.8012        0.903854 
         4.8224         10.7147         0.89649 
        4.83809         10.6642        0.889215 
        4.85379          10.542        0.882018 
         4.8695         10.5112        0.874894 
        4.88521         10.3955        0.867853 
        4.90093         10.3247        0.860888 
        4.91663          10.228        0.854006 
        4.93234         10.1517        0.847192 
        4.94807         10.0742        0.840448 
        4.96377          9.9931        0.833791 
        4.97943         9.91548         0.82722 
        4.99514         9.85303        0.820703 
        5.01086         9.77594        0.814252 
        5.02654         9.68686        0.807886 
        5.04227         9.62957         0.80157 
          5.058         9.53323        0.795319 
        5.07371          9.4865        0.789148 
        5.08942         9.39689        0.783041 
        5.10513         9.32295        0.776998 
        5.12084         9.26834        0.771016 
        5.13656         9.19239        0.765099 
        5.15225         9.13445        0.759254 
        5.16796         9.05464        0.753461 
        5.18369         8.99158        0.747723 
         5.1994         8.91418        0.742056 
        5.21509         8.86053        0.736452 
        5.23079         8.77976          0.7309 
        5.24649         8.73026         0.72541 
        5.26217         8.63776        0.719981 
        5.27788         8.59743        0.714599 
        5.29359         8.51591        0.709272 
        5.30933         8.45991        0.703991 
        5.32504         8.39528        0.698773 
        5.34073         8.34715        0.693614 
        5.35646         8.27126        0.688497 
        5.37218         8.20828        0.683431 
        5.38789         8.16428        0.678424 
        5.40357         8.11563        0.673473 
        5.41929          8.0376        0.668561 
        5.43502         7.97677        0.663697 
         5.4507         7.91459        0.658894 
        5.46639         7.85629        0.654137 
        5.48212         7.80648        0.649417 
        5.49786         7.75958        0.644738 
        5.51353         7.70017        0.640128 
        5.52921         7.64517        0.635559 
        5.54495         7.59051        0.631021 
        5.56066         7.53758        0.626532 
        5.57637         7.48278        0.622088 
        5.59207         7.43651        0.617691 
        5.60778         7.38044        0.613335 
        5.62346         7.32455        0.609027 
        5.63916         7.28277        0.604757 
        5.65487         7.22086        0.600526 
         5.6706         7.17367         0.59633 
        5.68633         7.11882        0.592173 
        5.70203         7.07617        0.588064 
        5.71773         7.01354        0.583995 
        5.73344         6.97508        0.579963 
        5.74916         6.93204        0.575965 
        5.76486         6.88773         0.57201 
        5.78054         6.82638        0.568099 
        5.79626         6.78375        0.564213 
          5.812         6.73354         0.56036 
         5.8277         6.69128        0.556554 
        5.84339         6.65312        0.552784 
        5.85911         6.59814        0.549042 
        5.87484         6.56529        0.545335 
        5.89053         6.51411         0.54167 
        5.90623         6.45924        0.538037 
        5.92195         6.42386         0.53443 
        5.93767         6.37513         0.53086 
        5.95336          6.3417        0.527327 
        5.96905         6.28967        0.523829 
        5.98476          6.2609        0.520357 
        6.00048         6.21519        0.516916 
        6.01617         6.17403         0.51351 
        6.03185         6.12006         0.51014 
        6.04756         6.08929        0.506791 
        6.06331         6.05103        0.503466 
        6.07903         6.01393        0.500178 
        6.09473          5.9714        0.496922 
        6.11044         5.91665        0.493692 
        6.12616         5.88636        0.490492 
        6.14186         5.85852        0.487323 
        6.15755         5.80775        0.484183 
        6.17326         5.75407        0.481068 
        6.18898         5.72321        0.477979 
        6.20467         5.69445        0.474922 
        6.22036         5.65033        0.471893 
         6.2361         5.61571        0.468882 
         6.2518          5.5814        0.465903 
        6.26748         5.54742        0.462956 
        6.28319         5.49604        0.460026 
        6.29893         5.47679        0.457119 
        6.31463         5.44035        0.454242 
        6.33033         5.39436        0.451392 
        6.34604         5.36433        0.448563 
        6.36177         5.33824        0.445757 
        6.37747          5.3085        0.442979 
