# k  (h/Mpc)    Pcb(k)  (Mpc/h)^3    Pcb_linear(k) (Mpc/h)^3   ShotnoiseSubtracted = true
      0.0200456         26307.5         26818.4 
      0.0350414         19673.4         19015.3 
      0.0492313         13332.6           13677 
      0.0637834         10826.8         11480.3 
      0.0800726         8465.81         9085.84 
       0.096163         6782.79         6489.41 
       0.111083          5526.7         5189.92 
       0.126058         4595.05         4657.45 
       0.142273          4033.4         3926.65 
       0.158546          3289.8         3068.45 
        0.17375         2968.65          2599.7 
       0.188953         2844.27         2374.86 
       0.204907         2445.34         2095.05 
       0.220756         2219.36         1760.63 
        0.23588          1982.4         1536.64 
         0.2514         1806.13          1405.4 
       0.267535         1735.65         1270.59 
       0.283568         1558.51         1115.84 
       0.299022         1482.75         995.879 
       0.314451          1549.6         914.275 
       0.330372         1389.43             839 
       0.346141         1276.43         759.979 
       0.361624         1223.79         691.216 
       0.377134         1180.53         637.803 
       0.392932         1116.77          590.72 
       0.408854         1078.24         544.157 
       0.424564         1056.12         501.733 
       0.440253         988.073         465.951 
       0.455999         944.095          434.57 
       0.471626          956.69         405.295 
        0.48727         905.095         377.999 
       0.502856         881.241         353.719 
       0.518488         846.125         332.043 
       0.534347         820.549         311.718 
       0.550082         784.022          292.96 
       0.565732         768.446         275.871 
       0.581496         751.993         260.236 
       0.597222         741.041         245.839 
       0.612804         720.756         232.576 
       0.628434         692.704         220.228 
       0.644267         674.732          208.69 
       0.660051         667.435          198.05 
       0.675724         655.379         188.216 
       0.691403          631.38         179.042 
       0.707174         616.364         170.429 
       0.722871         614.177         162.418 
        0.73838          594.88          155.01 
       0.754018         585.182         148.009 
       0.769845         575.326         141.366 
        0.78569         562.586         135.127 
       0.801365         546.019         129.328 
       0.817031         539.221         123.876 
       0.832809         529.742         118.708 
       0.848511         520.763         113.861 
       0.864097         511.695          109.32 
       0.879701         513.145         105.025 
       0.895507         493.167         100.912 
       0.911279         488.357         97.0303 
        0.92691         480.004         93.3867 
       0.942635         472.694         89.9118 
       0.958396         461.625         86.6079 
       0.974128         453.425         83.4774 
       0.989692         443.606         80.5339 
        1.00528         436.397         77.7292 
        1.02113         429.205         75.0151 
        1.03692         423.333         72.4417 
        1.05264         418.262         70.0018 
        1.06832         408.146          67.679 
        1.08405         406.511         65.4563 
        1.09979         396.522         63.3329 
        1.11537         387.835         61.3255 
        1.13105         382.776         59.3938 
        1.14679         376.222         57.5385 
        1.16256         373.901         55.7595 
        1.17828         368.006         54.0622 
        1.19395         359.683         52.4418 
         1.2097         354.116         50.8801 
        1.22537         349.982           49.39 
          1.241         342.517         47.9646 
        1.25666         339.079         46.5923 
        1.27241           336.1         45.2677 
        1.28819         326.617         43.9928 
        1.30392          325.18         42.7711 
        1.31957         318.427         41.6015 
        1.33529         313.496         40.4717 
        1.35108         312.937         39.3797 
        1.36674         304.677         38.3362 
         1.3824          298.98         37.3316 
        1.39811         295.232           36.36 
        1.41389         290.841         35.4195 
        1.42964         286.102         34.5141 
        1.44531         281.832          33.645 
        1.46101         275.547         32.8042 
        1.47667         274.312         31.9948 
        1.49229         270.899         31.2151 
        1.50793         265.138         30.4606 
        1.52367         261.014         29.7264 
        1.53953         257.942         29.0117 
        1.55526         253.057         28.3263 
        1.57092         251.133          27.666 
        1.58662         245.942         27.0254 
        1.60235         242.399         26.4039 
        1.61809          240.48         25.8018 
        1.63369         235.689         25.2239 
        1.64941         232.977         24.6597 
        1.66519         229.282         24.1108 
        1.68085         225.482         23.5827 
        1.69652         222.493         23.0703 
        1.71228         219.261         22.5703 
        1.72806         216.452         22.0849 
        1.74368         213.174         21.6187 
        1.75933         211.226         21.1651 
        1.77505         207.863         20.7224 
        1.79081         205.112         20.2918 
         1.8065         204.066         19.8752 
        1.82218         198.526         19.4708 
        1.83797         197.008          19.075 
        1.85367         194.124         18.6924 
        1.86928         190.689         18.3227 
        1.88497         188.752          17.961 
        1.90073         187.125         17.6078 
        1.91647         184.077         17.2644 
        1.93218         180.787          16.931 
        1.94787         177.992          16.607 
        1.96363         176.918         16.2902 
        1.97935         174.376         15.9823 
        1.99499          172.37         15.6842 
        2.01064         168.386         15.3933 
         2.0264          167.67          15.108 
        2.04216         164.604         14.8302 
        2.05781         162.639         14.5611 
        2.07353         161.548         14.2977 
        2.08928         159.558         14.0403 
        2.10499          156.52           13.79 
        2.12065         155.029         13.5466 
        2.13633         152.833         13.3089 
        2.15211         150.772         13.0753 
        2.16785         149.244         12.8481 
        2.18349         147.158         12.6277 
        2.19916         145.994         12.4121 
        2.21489         142.939         12.2008 
        2.23063         141.387         11.9942 
         2.2463         139.617         11.7935 
        2.26194          138.44         11.5978 
        2.27765          136.23         11.4056 
        2.29341         134.927         11.2173 
        2.30914         132.846         11.0337 
        2.32486         131.574         10.8543 
        2.34061         129.337         10.6785 
        2.35635         127.934         10.5069 
        2.37203         126.647         10.3397 
        2.38768         125.116         10.1764 
        2.40339         123.555         10.0161 
        2.41914         121.628         9.85891 
        2.43483         120.361         9.70566 
         2.4505         119.413         9.55593 
        2.46622         117.227         9.40887 
        2.48195         115.932          9.2649 
        2.49759         114.159         9.12474 
        2.51328         113.043         8.98712 
        2.52906         112.002         8.85148 
        2.54479         110.496         8.71916 
        2.56049         109.068         8.58981 
        2.57618          108.04         8.46322 
        2.59189         107.104         8.33899 
        2.60758          105.66         8.21747 
        2.62325         103.986         8.09853 
        2.63898         102.539         7.98153 
        2.65468         101.778         7.86711 
        2.67044         100.775         7.75445 
        2.68618         99.3507         7.64426 
        2.70184         98.4551         7.53667 
        2.71755         96.9914         7.43089 
        2.73329         95.7172         7.32699 
        2.74897         94.8363         7.22542 
        2.76462         94.1107         7.12601 
        2.78034          93.186         7.02806 
        2.79607         91.7924         6.93187 
        2.81179         90.8311         6.83759 
        2.82749         90.0408         6.74518 
        2.84321         88.6366         6.65438 
        2.85893         87.5581         6.56529 
        2.87462         86.7107         6.47799 
        2.89033         85.7859          6.3922 
        2.90605         84.7678          6.3079 
        2.92176         84.0095         6.22517 
        2.93747         83.1314         6.14397 
        2.95318         81.9731         6.06421 
        2.96891         81.5597         5.98584 
        2.98456         80.0682          5.9092 
        3.00023         79.3986          5.8338 
        3.01596         78.9386         5.75948 
        3.03164         77.7062         5.68668 
        3.04738         77.2187         5.61493 
         3.0631         76.4116         5.54445 
        3.07883         75.5039         5.47518 
        3.09456         74.4737          5.4071 
        3.11026         74.0587          5.3403 
        3.12596         73.0812         5.27463 
        3.14163         72.3619         5.21023 
        3.15734         71.3958         5.14676 
        3.17308         70.8725         5.08419 
        3.18879          70.001         5.02284 
        3.20447         69.5883          4.9626 
         3.2202         68.4787         4.90316 
         3.2359         68.0141          4.8448 
        3.25157         67.3153         4.78754 
        3.26729         66.4936         4.73103 
        3.28304         65.7183         4.67533 
        3.29877         65.1921          4.6206 
        3.31446         64.4681         4.56687 
        3.33014         63.8062         4.51405 
        3.34585         63.1662         4.46198 
        3.36158         62.6319         4.41066 
        3.37727         61.9238         4.36031 
        3.39294         61.3206          4.3108 
        3.40867         60.8531         4.26188 
        3.42439           59.86         4.21375 
        3.44008         59.3595         4.16646 
        3.45578         58.9995         4.11986 
        3.47153         58.4499         4.07388 
        3.48724         57.6778         4.02868 
        3.50292         57.2641         3.98428 
        3.51859         56.6562         3.94057 
        3.53431         55.9921         3.89738 
        3.55007         55.4047         3.85473 
        3.56577         54.8502          3.8129 
        3.58146         54.3378          3.7717 
        3.59719         53.9291         3.73102 
        3.61292         53.3488         3.69096 
        3.62859         52.9099         3.65164 
        3.64429         52.4482         3.61282 
        3.66003         51.7876         3.57445 
        3.67578         51.3055         3.53665 
        3.69146         50.8417         3.49954 
        3.70712         50.2661         3.46303 
        3.72284         49.6914         3.42691 
        3.73853         49.4625         3.39137 
        3.75422         49.0145         3.35633 
        3.76993         48.5436         3.32175 
        3.78564         48.0128         3.28767 
        3.80137          47.492         3.25402 
        3.81707         47.0858         3.22091 
        3.83279         46.6685         3.18824 
        3.84853         46.2088         3.15597 
        3.86424         45.8379         3.12421 
        3.87992         45.2919         3.09293 
        3.89561         45.0633         3.06209 
        3.91134          44.522          3.0316 
        3.92704         44.2267         3.00157 
        3.94273         43.7861         2.97197 
        3.95845         43.2965         2.94272 
        3.97418         42.8897         2.91386 
        3.98988         42.5024         2.88543 
        4.00554         42.1439         2.85746 
        4.02125         41.6892         2.82977 
        4.03698         41.4624         2.80242 
        4.05268         41.0549         2.77548 
        4.06839         40.6659         2.74889 
         4.0841         40.3719         2.72265 
        4.09983         40.0492         2.69672 
        4.11555         39.7157         2.67113 
        4.13124          39.194         2.64595 
        4.14693         38.8863         2.62108 
        4.16266          38.595         2.59647 
        4.17839         38.1107         2.57219 
        4.19408         37.9359         2.54828 
        4.20977         37.4854         2.52466 
        4.22551         37.1777         2.50129 
        4.24123         36.8704         2.47823 
        4.25691          36.539         2.45554 
        4.27259         36.2068         2.43311 
        4.28831         35.9206         2.41093 
        4.30404         35.6562           2.389 
        4.31974         35.2148          2.3674 
        4.33543         34.9184         2.34607 
        4.35116         34.6212         2.32496 
        4.36688         34.3641         2.30411 
        4.38255         34.0834          2.2836 
        4.39825         33.8317          2.2633 
        4.41398         33.5266          2.2432 
         4.4297         33.2034         2.22337 
        4.44541         33.0071         2.20378 
        4.46111         32.7502         2.18445 
        4.47683         32.4654         2.16533 
        4.49251         32.1471         2.14649 
        4.50819         31.8499         2.12787 
         4.5239          31.515         2.10945 
        4.53962         31.3141         2.09122 
        4.55535         31.0105          2.0732 
        4.57106         30.7821         2.05542 
        4.58678         30.5485         2.03785 
         4.6025         30.2792         2.02047 
        4.61821         30.0774         2.00331 
        4.63391         29.7734         1.98636 
         4.6496         29.5696         1.96962 
        4.66532         29.3263         1.95305 
        4.68103         29.0357         1.93668 
        4.69673         28.8043         1.92051 
        4.71241         28.5568         1.90454 
        4.72811         28.3293         1.88872 
        4.74384          28.144         1.87307 
        4.75955         27.9536         1.85762 
        4.77525         27.6939         1.84235 
        4.79096         27.5094         1.82724 
        4.80669         27.2463         1.81229 
         4.8224         27.0248         1.79752 
        4.83809         26.7944         1.78294 
        4.85379         26.5876         1.76851 
         4.8695         26.3699         1.75422 
        4.88521         26.1563          1.7401 
        4.90093         25.9286         1.72614 
        4.91663         25.7637         1.71234 
        4.93234         25.5812         1.69868 
        4.94807         25.3733         1.68516 
        4.96377         25.1419         1.67181 
        4.97943         24.9755         1.65863 
        4.99514         24.7926         1.64556 
        5.01086         24.6081         1.63263 
        5.02654         24.3807         1.61987 
        5.04227          24.202          1.6072 
          5.058         24.0555         1.59467 
        5.07371         23.8362         1.58229 
        5.08942         23.6685         1.57005 
        5.10513         23.4411         1.55793 
        5.12084         23.2359         1.54594 
        5.13656         23.1281         1.53407 
        5.15225         22.9207         1.52235 
        5.16796          22.711         1.51074 
        5.18369         22.5806         1.49923 
         5.1994         22.3753         1.48787 
        5.21509         22.1826         1.47664 
        5.23079         22.0393          1.4655 
        5.24649         21.8565          1.4545 
        5.26217          21.734         1.44361 
        5.27788         21.5749         1.43282 
        5.29359         21.3684         1.42214 
        5.30933         21.1699         1.41155 
        5.32504         21.0541         1.40109 
        5.34073         20.8816         1.39074 
        5.35646         20.7433         1.38048 
        5.37218         20.5588         1.37033 
        5.38789          20.443         1.36029 
        5.40357         20.2591         1.35036 
        5.41929         20.1415         1.34051 
        5.43502         19.9575         1.33076 
         5.4507         19.8888         1.32113 
        5.46639         19.6777         1.31159 
        5.48212         19.5393         1.30213 
        5.49786         19.3985         1.29274 
        5.51353         19.2389          1.2835 
        5.52921          19.077         1.27434 
        5.54495         18.9933         1.26524 
        5.56066         18.8119         1.25624 
        5.57637         18.6476         1.24733 
        5.59207         18.5577         1.23851 
        5.60778         18.4181         1.22978 
        5.62346         18.2704         1.22114 
        5.63916         18.1326         1.21258 
        5.65487          18.001         1.20409 
         5.6706         17.8984         1.19568 
        5.68633         17.7414         1.18735 
        5.70203         17.5966         1.17911 
        5.71773         17.5081         1.17095 
        5.73344         17.3854         1.16286 
        5.74916         17.2624         1.15485 
        5.76486          17.144         1.14692 
        5.78054         17.0089         1.13908 
        5.79626         16.9166         1.13129 
          5.812         16.7688         1.12356 
         5.8277         16.6211         1.11593 
        5.84339          16.521         1.10837 
        5.85911         16.3968         1.10087 
        5.87484         16.2611         1.09343 
        5.89053         16.1697         1.08608 
        5.90623         16.0587          1.0788 
        5.92195         15.9393         1.07157 
        5.93767         15.8318         1.06441 
        5.95336         15.7262         1.05733 
        5.96905         15.6057         1.05031 
        5.98476         15.5042         1.04335 
        6.00048         15.3977         1.03645 
        6.01617         15.2719         1.02962 
        6.03185         15.1868         1.02286 
        6.04756         15.0665         1.01615 
        6.06331         14.9861         1.00948 
        6.07903         14.8642         1.00289 
        6.09473         14.7615        0.996362 
        6.11044         14.6605        0.989887 
        6.12616         14.5854         0.98347 
        6.14186         14.4742        0.977116 
        6.15755         14.3778        0.970819 
        6.17326         14.2965        0.964573 
        6.18898         14.1984         0.95838 
        6.20467         14.0848        0.952252 
        6.22036         13.9664        0.946178 
         6.2361         13.8917        0.940141 
         6.2518         13.7838        0.934166 
        6.26748         13.7188        0.928257 
        6.28319          13.603        0.922383 
        6.29893         13.5265        0.916555 
        6.31463         13.4184        0.910787 
        6.33033         13.3343        0.905071 
        6.34604         13.2607          0.8994 
        6.36177          13.195        0.893772 
        6.37747         13.0641        0.888203 
