# k  (h/Mpc)    Pcb(k)  (Mpc/h)^3    Pcb_linear(k) (Mpc/h)^3   ShotnoiseSubtracted = true
      0.0200456         8607.02         8730.64 
      0.0350414         6670.14         6519.99 
      0.0492313         4869.34         4908.56 
      0.0637834          3986.5         4122.54 
      0.0800726         3100.24         3215.15 
       0.096163         2434.28         2365.74 
       0.111083         2038.92         1958.03 
       0.126058         1707.86         1733.53 
       0.142273          1433.4         1424.11 
       0.158546         1185.05         1138.19 
        0.17375         1056.16         994.871 
       0.188953         969.186         897.873 
       0.204907         814.988         772.277 
       0.220756         730.759         657.114 
        0.23588         656.043         588.168 
         0.2514         589.438         535.309 
       0.267535         564.568         474.801 
       0.283568         492.823         418.942 
       0.299022         469.551         380.058 
       0.314451         467.378         348.916 
       0.330372         402.495         316.515 
       0.346141         373.457          286.72 
       0.361624         355.563         263.187 
       0.377134          329.35         243.334 
       0.392932         320.907         224.097 
       0.408854         303.981         206.121 
       0.424564         292.358         190.898 
       0.440253         264.086         177.633 
       0.455999         251.493         165.292 
       0.471626         248.544          153.97 
        0.48727         237.763         143.829 
       0.502856         217.352         134.787 
       0.518488         216.949         126.439 
       0.534347         202.035         118.603 
       0.550082         197.629         111.518 
       0.565732         195.048         105.095 
       0.581496         181.644         99.1286 
       0.597222         177.674         93.6114 
       0.612804         172.416          88.561 
       0.628434         166.841         83.8894 
       0.644267         159.038         79.5047 
       0.660051         154.758         75.4442 
       0.675724         153.386         71.6917 
       0.691403         149.246         68.1928 
       0.707174          144.26         64.9089 
       0.722871         141.917         61.8554 
        0.73838         139.628          59.032 
       0.754018          131.09         56.3643 
       0.769845          130.71         53.8332 
        0.78569          127.24          51.456 
       0.801365         123.511         49.2466 
       0.817031         119.812         47.1694 
       0.832809         117.779         45.1995 
       0.848511          115.06         43.3517 
       0.864097         113.126         41.6206 
       0.879701         111.353         39.9829 
       0.895507         107.531         38.4146 
       0.911279         105.742         36.9342 
        0.92691          102.96         35.5446 
       0.942635          100.94         34.2193 
       0.958396         100.081         32.9591 
       0.974128         97.8236         31.7651 
       0.989692         95.8126         30.6424 
        1.00528         94.1833         29.5726 
        1.02113          91.841         28.5374 
        1.03692         91.6549         27.5559 
        1.05264         90.2679         26.6254 
        1.06832         87.1993         25.7396 
        1.08405         86.6497         24.8919 
        1.09979         85.8219         24.0821 
        1.11537         83.5181         23.3166 
        1.13105          82.243           22.58 
        1.14679         80.9792         21.8726 
        1.16256         79.4018         21.1943 
        1.17828         78.6458         20.5471 
        1.19395         76.5023         19.9293 
         1.2097         76.7105         19.3339 
        1.22537         74.8497         18.7658 
          1.241         74.4364         18.2224 
        1.25666         71.9971         17.6993 
        1.27241          71.861         17.1943 
        1.28819         71.0898         16.7083 
        1.30392         69.6709         16.2426 
        1.31957         69.2727         15.7968 
        1.33529         68.1971         15.3662 
        1.35108         67.3753         14.9501 
        1.36674         66.4537         14.5524 
         1.3824         65.5014         14.1696 
        1.39811         64.2721         13.7993 
        1.41389         63.3202          13.441 
        1.42964         62.8318          13.096 
        1.44531         61.9453         12.7649 
        1.46101         61.3809         12.4446 
        1.47667         60.4479         12.1362 
        1.49229         59.7059         11.8392 
        1.50793         59.0424         11.5519 
        1.52367         58.4665         11.2723 
        1.53953          57.562         11.0001 
        1.55526         56.7669         10.7391 
        1.57092         56.4175         10.4876 
        1.58662         55.6065         10.2437 
        1.60235         54.8569         10.0071 
        1.61809         54.0418         9.77789 
        1.63369         53.3703         9.55792 
        1.64941         52.9783         9.34317 
        1.66519         51.9161         9.13427 
        1.68085         51.6763         8.93327 
        1.69652          50.548         8.73828 
        1.71228         50.4823         8.54803 
        1.72806         49.6589         8.36332 
        1.74368         49.0617         8.18593 
        1.75933         48.7253         8.01336 
        1.77505         48.3053         7.84498 
        1.79081         47.6043         7.68115 
         1.8065         46.9443         7.52272 
        1.82218         45.9488         7.36892 
        1.83797         45.7037         7.21837 
        1.85367         45.3072         7.07288 
        1.86928         45.1014         6.93229 
        1.88497         44.1466         6.79477 
        1.90073         43.6746         6.66048 
        1.91647         43.5054         6.52995 
        1.93218         43.3612         6.40321 
        1.94787         42.5821         6.28003 
        1.96363         41.8051         6.15962 
        1.97935         41.6084         6.04262 
        1.99499         41.0847         5.92933 
        2.01064         40.6153         5.81879 
         2.0264         40.3417         5.71038 
        2.04216         39.8874          5.6048 
        2.05781         39.3501         5.50256 
        2.07353         38.8485         5.40252 
        2.08928         38.7775         5.30475 
        2.10499         38.3398         5.20967 
        2.12065         37.8484         5.11722 
        2.13633         37.6052         5.02693 
        2.15211         36.9307         4.93825 
        2.16785         36.4989         4.85196 
        2.18349         36.1796         4.76828 
        2.19916         35.8265          4.6864 
        2.21489          35.524         4.60618 
        2.23063         35.2402         4.52779 
         2.2463         34.9329         4.45158 
        2.26194         34.3695         4.37732 
        2.27765         34.0463         4.30438 
        2.29341         33.7478         4.23291 
        2.30914         33.3782         4.16322 
        2.32486         32.9336         4.09514 
        2.34061         32.7439         4.02847 
        2.35635         32.4238         3.96336 
        2.37203         32.1397         3.89991 
        2.38768         31.8592         3.83798 
        2.40339         31.6265         3.77718 
        2.41914         31.2429         3.71756 
        2.43483         31.0663         3.65944 
         2.4505         30.5925         3.60266 
        2.46622          30.281          3.5469 
        2.48195         30.0549         3.49231 
        2.49759         29.5764         3.43917 
        2.51328         29.4227         3.38699 
        2.52906         29.2385         3.33558 
        2.54479         28.8544         3.28542 
        2.56049         28.7782          3.2364 
        2.57618         28.3688         3.18842 
        2.59189         28.0174         3.14134 
        2.60758          27.863         3.09529 
        2.62325         27.4696         3.05022 
        2.63898         27.3837          3.0059 
        2.65468          27.011         2.96255 
        2.67044         26.7686         2.91987 
        2.68618         26.4702         2.87813 
        2.70184         26.1722         2.83737 
        2.71755         26.0226         2.79731 
        2.73329         25.6801         2.75796 
        2.74897         25.5105          2.7195 
        2.76462         25.3436         2.68185 
        2.78034         24.9615         2.64477 
        2.79607         24.7447         2.60835 
        2.81179         24.5447         2.57266 
        2.82749         24.3395         2.53767 
        2.84321         24.1433          2.5033 
        2.85893         23.8759         2.46958 
        2.87462         23.6883         2.43654 
        2.89033         23.4859         2.40407 
        2.90605          23.151         2.37217 
        2.92176         22.9028         2.34087 
        2.93747         22.7889         2.31015 
        2.95318         22.6578         2.27997 
        2.96891         22.3576         2.25032 
        2.98456         22.1903         2.22133 
        3.00023         21.8661          2.1928 
        3.01596          21.634          2.1647 
        3.03164         21.5015         2.13716 
        3.04738         21.3418         2.11003 
         3.0631         21.1342         2.08337 
        3.07883         20.9076         2.05718 
        3.09456         20.7181         2.03144 
        3.11026         20.5071         2.00618 
        3.12596         20.2864         1.98136 
        3.14163         20.1466         1.95701 
        3.15734         19.9824         1.93302 
        3.17308          19.837         1.90937 
        3.18879         19.5792         1.88618 
        3.20447         19.4477         1.86341 
         3.2202         19.2064         1.84095 
         3.2359         19.0663          1.8189 
        3.25157         18.9062         1.79726 
        3.26729         18.7263         1.77591 
        3.28304         18.6153         1.75487 
        3.29877         18.4778         1.73419 
        3.31446         18.2504          1.7139 
        3.33014         18.0578         1.69394 
        3.34585          18.005         1.67428 
        3.36158          17.766          1.6549 
        3.37727         17.6078         1.63588 
        3.39294         17.4515         1.61719 
        3.40867         17.3263         1.59871 
        3.42439         17.1411         1.58054 
        3.44008         16.9821         1.56269 
        3.45578         16.8333         1.54509 
        3.47153          16.717         1.52774 
        3.48724         16.5662         1.51067 
        3.50292         16.4522         1.49391 
        3.51859         16.2781         1.47741 
        3.53431         16.1315         1.46112 
        3.55007         15.9739         1.44502 
        3.56577         15.8861         1.42923 
        3.58146         15.7267         1.41369 
        3.59719         15.5797         1.39834 
        3.61292         15.4445         1.38323 
        3.62859         15.2889         1.36839 
        3.64429          15.174         1.35375 
        3.66003          15.061         1.33927 
        3.67578         14.9649         1.32501 
        3.69146         14.8395         1.31102 
        3.70712         14.6643         1.29725 
        3.72284         14.5165         1.28363 
        3.73853          14.448         1.27023 
        3.75422         14.2618         1.25701 
        3.76993         14.1586         1.24397 
        3.78564          14.076         1.23113 
        3.80137         13.9428         1.21844 
        3.81707         13.7735         1.20596 
        3.83279         13.7343         1.19364 
        3.84853         13.5735         1.18148 
        3.86424         13.4641         1.16951 
        3.87992         13.3496         1.15772 
        3.89561         13.2522          1.1461 
        3.91134         13.1496         1.13461 
        3.92704         13.0416         1.12329 
        3.94273         12.9419         1.11214 
        3.95845         12.8213         1.10112 
        3.97418         12.6818         1.09024 
        3.98988         12.6129         1.07953 
        4.00554          12.495         1.06899 
        4.02125         12.3927         1.05857 
        4.03698         12.3222         1.04826 
        4.05268         12.1933         1.03812 
        4.06839          12.063          1.0281 
         4.0841         11.9885         1.01822 
        4.09983         11.8929         1.00846 
        4.11555         11.8024        0.998823 
        4.13124         11.6718        0.989342 
        4.14693         11.5932        0.979977 
        4.16266          11.523        0.970711 
        4.17839         11.4157        0.961571 
        4.19408         11.3298        0.952569 
        4.20977         11.2188        0.943679 
        4.22551         11.1469        0.934881 
        4.24123         11.0689        0.926205 
        4.25691         10.9385        0.917662 
        4.27259         10.8608        0.909225 
        4.28831         10.7689        0.900877 
        4.30404         10.7218        0.892625 
        4.31974         10.6071        0.884496 
        4.33543         10.5075        0.876472 
        4.35116         10.4552        0.868529 
        4.36688         10.3543        0.860687 
        4.38255         10.2817        0.852971 
        4.39825         10.1833        0.845334 
        4.41398         10.1079        0.837774 
         4.4297         10.0237        0.830316 
        4.44541          9.9708        0.822949 
        4.46111         9.86084        0.815678 
        4.47683         9.78582        0.808489 
        4.49251          9.7135        0.801402 
        4.50819         9.65281        0.794402 
         4.5239         9.59398        0.787475 
        4.53962         9.48046        0.780623 
        4.55535         9.43168        0.773848 
        4.57106         9.33541        0.767164 
        4.58678         9.29454        0.760558 
         4.6025         9.20136        0.754028 
        4.61821         9.13339        0.747576 
        4.63391         9.05224        0.741207 
         4.6496         8.98785        0.734916 
        4.66532         8.92494        0.728688 
        4.68103         8.82529        0.722535 
        4.69673         8.78874        0.716459 
        4.71241         8.69873        0.710459 
        4.72811         8.63385        0.704518 
        4.74384         8.59618        0.698637 
        4.75955         8.52636        0.692832 
        4.77525         8.47209        0.687097 
        4.79096         8.39214         0.68142 
        4.80669         8.31994        0.675804 
         4.8224         8.24741        0.670258 
        4.83809         8.21562         0.66478 
        4.85379         8.15194         0.65936 
         4.8695          8.0935        0.653996 
        4.88521         8.01131        0.648694 
        4.90093         7.97229         0.64345 
        4.91663         7.91437        0.638269 
        4.93234         7.84562         0.63314 
        4.94807         7.78582        0.628063 
        4.96377          7.7323        0.623052 
        4.97943         7.66151        0.618106 
        4.99514         7.61149        0.613201 
        5.01086         7.55864        0.608346 
        5.02654         7.50187        0.603556 
        5.04227         7.43694        0.598803 
          5.058         7.37483        0.594099 
        5.07371         7.35856        0.589455 
        5.08942         7.28521         0.58486 
        5.10513         7.23662        0.580314 
        5.12084         7.16376        0.575813 
        5.13656         7.12586        0.571362 
        5.15225         7.06664        0.566965 
        5.16796         7.04363        0.562607 
        5.18369         6.98156        0.558291 
         5.1994         6.93479        0.554029 
        5.21509         6.86372        0.549815 
        5.23079         6.83149        0.545639 
        5.24649         6.78056        0.541511 
        5.26217         6.74343        0.537428 
        5.27788         6.67958        0.533381 
        5.29359         6.65197        0.529375 
        5.30933         6.58222        0.525405 
        5.32504         6.54921        0.521482 
        5.34073         6.50193        0.517604 
        5.35646         6.45829        0.513757 
        5.37218         6.41523        0.509949 
        5.38789         6.36352        0.506185 
        5.40357          6.3069        0.502464 
        5.41929         6.28051        0.498772 
        5.43502         6.23853        0.495116 
         5.4507         6.18847        0.491507 
        5.46639         6.13128        0.487932 
        5.48212         6.11079        0.484385 
        5.49786         6.06381        0.480869 
        5.51353         6.03114        0.477405 
        5.52921         5.97851        0.473972 
        5.54495         5.93878        0.470563 
        5.56066         5.89224        0.467191 
        5.57637         5.86305        0.463852 
        5.59207         5.81276        0.460549 
        5.60778         5.78499        0.457277 
        5.62346         5.74659        0.454042 
        5.63916          5.6945        0.450835 
        5.65487         5.65977        0.447657 
         5.6706         5.62127        0.444506 
        5.68633          5.5966        0.441384 
        5.70203         5.54564        0.438298 
        5.71773         5.51524        0.435243 
        5.73344         5.47543        0.432215 
        5.74916         5.43806        0.429214 
        5.76486         5.41813        0.426244 
        5.78054         5.36059        0.423308 
        5.79626         5.32713        0.420391 
          5.812         5.29984        0.417499 
         5.8277         5.26372        0.414642 
        5.84339         5.22853        0.411812 
        5.85911         5.19493        0.409003 
        5.87484         5.15104        0.406221 
        5.89053         5.11891         0.40347 
        5.90623          5.0932        0.400744 
        5.92195         5.07027        0.398038 
        5.93767         5.00749        0.395358 
        5.95336         4.99448        0.392708 
        5.96905         4.96521        0.390083 
        5.98476         4.93388        0.387478 
        6.00048         4.90206        0.384896 
        6.01617         4.86598        0.382341 
        6.03185         4.83941        0.379813 
        6.04756         4.80793        0.377301 
        6.06331         4.77967        0.374807 
        6.07903         4.74266         0.37234 
        6.09473         4.71273        0.369898 
        6.11044         4.67477        0.367476 
        6.12616         4.65687        0.365076 
        6.14186         4.62024        0.362699 
        6.15755         4.59445        0.360344 
        6.17326         4.56587        0.358009 
        6.18898          4.5375        0.355692 
        6.20467         4.50151        0.353401 
        6.22036         4.48193        0.351129 
         6.2361         4.45102        0.348872 
         6.2518         4.42574        0.346638 
        6.26748         4.39073        0.344429 
        6.28319         4.37204        0.342233 
        6.29893         4.34463        0.340054 
        6.31463         4.32083        0.337898 
        6.33033         4.28896        0.335761 
        6.34604         4.26502        0.333641 
        6.36177         4.23883        0.331537 
        6.37747         4.21882        0.329456 
