# k  (h/Mpc)    Pcb(k)  (Mpc/h)^3    Pcb_linear(k) (Mpc/h)^3   ShotnoiseSubtracted = true
      0.0200456         18456.2         18770.5 
      0.0350414         14416.2         14017.7 
      0.0492313         10328.6         10553.2 
      0.0637834         8407.85          8863.3 
      0.0800726         6517.71         6912.45 
       0.096163         5252.48         5086.25 
       0.111083         4403.12         4209.69 
       0.126058          3643.6         3727.01 
       0.142273         3126.43         3061.77 
       0.158546         2587.81         2447.07 
        0.17375         2339.59         2138.93 
       0.188953          2203.2         1930.39 
       0.204907         1882.43         1660.36 
       0.220756         1700.76         1412.77 
        0.23588         1529.78         1264.54 
         0.2514         1383.59         1150.89 
       0.267535          1336.5          1020.8 
       0.283568         1186.72         900.707 
       0.299022         1136.95         817.109 
       0.314451          1179.1         750.155 
       0.330372         1034.19         680.494 
       0.346141         952.975         616.436 
       0.361624         916.017         565.841 
       0.377134         875.218         523.158 
       0.392932         840.951         481.798 
       0.408854         803.544         443.152 
       0.424564         785.954         410.422 
       0.440253         726.118         381.903 
       0.455999         695.579         355.372 
       0.471626         708.754         331.028 
        0.48727          669.99         309.225 
       0.502856         635.154         289.787 
       0.518488         624.426         271.838 
       0.534347             593         254.992 
       0.550082         568.188         239.759 
       0.565732         562.475          225.95 
       0.581496         550.727         213.122 
       0.597222         536.892         201.261 
       0.612804         525.951         190.403 
       0.628434          504.47         180.359 
       0.644267             489         170.932 
       0.660051         482.982         162.202 
       0.675724         474.501         154.134 
       0.691403         463.141         146.612 
       0.707174         447.195         139.551 
       0.722871         440.088         132.987 
        0.73838         434.639         126.916 
       0.754018         421.212         121.181 
       0.769845         417.617         115.739 
        0.78569         409.402         110.628 
       0.801365         396.208         105.878 
       0.817031         392.783         101.412 
       0.832809         387.471         97.1771 
       0.848511         379.152         93.2044 
       0.864097         370.716         89.4825 
       0.879701         367.954         85.9616 
       0.895507         355.626         82.5898 
       0.911279         349.842         79.4071 
        0.92691         346.727         76.4194 
       0.942635          344.36           73.57 
       0.958396         332.678         70.8607 
       0.974128         329.676         68.2936 
       0.989692         317.836         65.8798 
        1.00528         317.506         63.5798 
        1.02113         312.356         61.3542 
        1.03692         306.671         59.2441 
        1.05264         301.781         57.2435 
        1.06832          299.15          55.339 
        1.08405         293.911         53.5165 
        1.09979         290.013         51.7756 
        1.11537         282.782         50.1298 
        1.13105         279.444         48.5462 
        1.14679         276.173         47.0252 
        1.16256         273.696         45.5668 
        1.17828         269.617         44.1754 
        1.19395         262.716         42.8472 
         1.2097         262.685         41.5671 
        1.22537         258.668         40.3457 
          1.241         252.994         39.1774 
        1.25666         250.705         38.0527 
        1.27241         246.544         36.9671 
        1.28819         242.792         35.9222 
        1.30392         240.752          34.921 
        1.31957         234.652         33.9626 
        1.33529         231.842         33.0368 
        1.35108         230.641          32.142 
        1.36674         225.157          31.287 
         1.3824          223.75          30.464 
        1.39811         221.368          29.668 
        1.41389         215.474         28.8975 
        1.42964         213.666         28.1558 
        1.44531          211.36         27.4439 
        1.46101         208.035         26.7553 
        1.47667         205.519         26.0924 
        1.49229         202.835         25.4539 
        1.50793         199.818         24.8361 
        1.52367         197.802         24.2349 
        1.53953         193.254         23.6497 
        1.55526         192.838         23.0885 
        1.57092         190.996          22.548 
        1.58662         186.239         22.0236 
        1.60235         184.705         21.5149 
        1.61809         181.821         21.0221 
        1.63369         179.023         20.5491 
        1.64941         177.465         20.0874 
        1.66519         175.081         19.6383 
        1.68085         172.303         19.2062 
        1.69652         170.176         18.7869 
        1.71228         168.023         18.3779 
        1.72806         166.194         17.9808 
        1.74368         164.434         17.5994 
        1.75933         162.904         17.2284 
        1.77505         160.348         16.8664 
        1.79081         157.167         16.5142 
         1.8065         155.507         16.1735 
        1.82218         153.147         15.8429 
        1.83797         152.484         15.5192 
        1.85367         150.306         15.2064 
        1.86928         148.282         14.9041 
        1.88497         146.826         14.6085 
        1.90073         145.275         14.3198 
        1.91647         142.717         14.0391 
        1.93218         141.405         13.7666 
        1.94787         139.208         13.5018 
        1.96363         138.502         13.2429 
        1.97935         136.605         12.9914 
        1.99499          135.34         12.7478 
        2.01064         132.527         12.5102 
         2.0264         131.399         12.2771 
        2.04216         129.531         12.0501 
        2.05781         128.179         11.8303 
        2.07353         126.338         11.6152 
        2.08928         124.914          11.405 
        2.10499         123.659         11.2006 
        2.12065         122.662         11.0018 
        2.13633         121.538         10.8077 
        2.15211         119.454          10.617 
        2.16785         117.804         10.4315 
        2.18349         116.325         10.2516 
        2.19916         115.363         10.0756 
        2.21489         114.315         9.90309 
        2.23063         112.174         9.73455 
         2.2463          111.42         9.57071 
        2.26194         110.085         9.41105 
        2.27765         108.708         9.25423 
        2.29341         107.735         9.10058 
        2.30914         106.496         8.95075 
        2.32486         104.546         8.80438 
        2.34061         104.097         8.66105 
        2.35635         102.604         8.52105 
        2.37203         101.083         8.38464 
        2.38768         100.246          8.2515 
        2.40339         99.5469         8.12078 
        2.41914         97.6498          7.9926 
        2.43483         96.9347         7.86764 
         2.4505         95.9855         7.74557 
        2.46622         94.8221         7.62568 
        2.48195         93.8256         7.50832 
        2.49759          92.599         7.39406 
        2.51328         91.9233          7.2819 
        2.52906          90.053         7.17135 
        2.54479         89.3803         7.06352 
        2.56049         88.2599         6.95812 
        2.57618         87.1072         6.85496 
        2.59189         86.8855         6.75375 
        2.60758         85.0773         6.65475 
        2.62325         84.8629         6.55785 
        2.63898         83.7741         6.46255 
        2.65468         82.7961         6.36935 
        2.67044         81.7275         6.27759 
        2.68618         81.1359         6.18786 
        2.70184         79.8091         6.10024 
        2.71755         79.1073          6.0141 
        2.73329         77.9885          5.9295 
        2.74897         77.6439          5.8468 
        2.76462         76.6344         5.76587 
        2.78034          75.631         5.68614 
        2.79607         74.9995         5.60784 
        2.81179         74.3008          5.5311 
        2.82749           73.71         5.45589 
        2.84321         72.8647           5.382 
        2.85893         72.0618          5.3095 
        2.87462         71.2344         5.23846 
        2.89033         70.5594         5.16866 
        2.90605         70.0476         5.10007 
        2.92176         68.9829         5.03277 
        2.93747         68.3509         4.96672 
        2.95318          67.594         4.90184 
        2.96891         66.8779         4.83809 
        2.98456         66.2314         4.77576 
        3.00023         65.4515         4.71444 
        3.01596         65.0766         4.65401 
        3.03164         64.2616         4.59481 
        3.04738         63.6905         4.53647 
         3.0631         62.7461         4.47916 
        3.07883         62.2108         4.42285 
        3.09456         61.5354         4.36751 
        3.11026         60.8986         4.31321 
        3.12596         60.4391         4.25984 
        3.14163         59.6625         4.20749 
        3.15734         59.0683         4.15591 
        3.17308         58.5188         4.10506 
        3.18879          57.798         4.05521 
        3.20447          57.465         4.00626 
         3.2202         56.6667         3.95797 
         3.2359         56.1219         3.91056 
        3.25157         55.7301         3.86404 
        3.26729         55.0004         3.81814 
        3.28304          54.589          3.7729 
        3.29877         53.9619         3.72844 
        3.31446         53.5372         3.68481 
        3.33014         53.0116         3.64191 
        3.34585         52.3652         3.59963 
        3.36158         51.9035         3.55796 
        3.37727          51.491         3.51708 
        3.39294         51.0587         3.47688 
        3.40867         50.5872         3.43717 
        3.42439          49.973          3.3981 
        3.44008         49.4734         3.35971 
        3.45578         49.0097         3.32189 
        3.47153         48.5416         3.28457 
        3.48724         47.9653         3.24789 
        3.50292         47.4807         3.21185 
        3.51859         47.2078         3.17638 
        3.53431         46.5164         3.14134 
        3.55007         46.2136         3.10674 
        3.56577         45.8563         3.07279 
        3.58146         45.2751         3.03938 
        3.59719         44.8601         3.00638 
        3.61292         44.4398         2.97388 
        3.62859         44.1644         2.94199 
        3.64429         43.7871          2.9105 
        3.66003         43.3467         2.87938 
        3.67578          43.016         2.84873 
        3.69146         42.6401         2.81864 
        3.70712         42.1964         2.78903 
        3.72284         41.7717         2.75975 
        3.73853         41.4665         2.73094 
        3.75422         41.0789         2.70252 
        3.76993         40.7769         2.67449 
        3.78564          40.408         2.64687 
        3.80137         39.9678         2.61959 
        3.81707         39.5769         2.59276 
        3.83279          39.223         2.56628 
        3.84853         38.8641         2.54013 
        3.86424         38.5994         2.51439 
        3.87992         38.2802         2.48905 
        3.89561         37.9992         2.46406 
        3.91134         37.6789         2.43936 
        3.92704          37.206         2.41503 
        3.94273         36.9737         2.39105 
        3.95845         36.6202         2.36736 
        3.97418         36.2532         2.34398 
        3.98988         35.8708         2.32095 
        4.00554         35.5785         2.29829 
        4.02125         35.3348         2.27588 
        4.03698         35.0028         2.25372 
        4.05268         34.7426         2.23191 
        4.06839         34.3269         2.21038 
         4.0841         34.1862         2.18913 
        4.09983         33.7608         2.16814 
        4.11555          33.478         2.14743 
        4.13124         33.2831         2.12704 
        4.14693         32.9963         2.10691 
        4.16266         32.6041         2.08699 
        4.17839         32.4241         2.06734 
        4.19408         32.1052         2.04798 
        4.20977         31.8425         2.02887 
        4.22551         31.6539         2.00996 
        4.24123         31.3202          1.9913 
        4.25691         31.0906         1.97294 
        4.27259         30.7974         1.95479 
        4.28831         30.5274         1.93685 
        4.30404         30.2411         1.91911 
        4.31974         29.9999         1.90163 
        4.33543          29.792         1.88438 
        4.35116         29.5404          1.8673 
        4.36688         29.3219         1.85044 
        4.38255         29.0903         1.83385 
        4.39825         28.7718         1.81743 
        4.41398         28.6006         1.80118 
         4.4297         28.3084         1.78514 
        4.44541         28.1427         1.76931 
        4.46111         27.9336         1.75367 
        4.47683          27.594         1.73822 
        4.49251         27.4425         1.72298 
        4.50819          27.217         1.70793 
         4.5239         26.9428         1.69304 
        4.53962         26.7869         1.67831 
        4.55535         26.5262         1.66374 
        4.57106         26.3063         1.64937 
        4.58678         26.1049         1.63517 
         4.6025         25.8514         1.62113 
        4.61821         25.6687         1.60726 
        4.63391         25.4397         1.59357 
         4.6496          25.264         1.58004 
        4.66532         25.0336         1.56665 
        4.68103         24.8145         1.55342 
        4.69673         24.6865         1.54036 
        4.71241         24.5043         1.52746 
        4.72811         24.2826         1.51468 
        4.74384         24.1042         1.50204 
        4.75955          23.895         1.48956 
        4.77525          23.747         1.47723 
        4.79096         23.5396         1.46502 
        4.80669         23.3787         1.45295 
         4.8224          23.209         1.44103 
        4.83809         22.9985         1.42925 
        4.85379         22.7909          1.4176 
         4.8695         22.6001         1.40606 
        4.88521         22.4301         1.39467 
        4.90093         22.3144         1.38339 
        4.91663         22.0901         1.37225 
        4.93234          21.898         1.36122 
        4.94807         21.7958         1.35031 
        4.96377         21.5662         1.33954 
        4.97943         21.4098          1.3289 
        4.99514         21.2478         1.31836 
        5.01086         21.0673         1.30792 
        5.02654         20.9773         1.29762 
        5.04227         20.7623          1.2874 
          5.058         20.6159         1.27729 
        5.07371         20.5078          1.2673 
        5.08942         20.2978         1.25742 
        5.10513         20.1652         1.24765 
        5.12084         19.9903         1.23797 
        5.13656         19.8536          1.2284 
        5.15225         19.6638         1.21895 
        5.16796         19.5601         1.20958 
        5.18369         19.4255          1.2003 
         5.1994         19.2834         1.19114 
        5.21509         19.1335         1.18208 
        5.23079         19.0123          1.1731 
        5.24649         18.8847         1.16423 
        5.26217         18.6706         1.15545 
        5.27788         18.5506         1.14675 
        5.29359         18.4496         1.13813 
        5.30933         18.2786          1.1296 
        5.32504         18.1094         1.12116 
        5.34073         18.0281         1.11283 
        5.35646         17.8796         1.10456 
        5.37218         17.7323         1.09637 
        5.38789         17.6475         1.08828 
        5.40357         17.5038         1.08028 
        5.41929         17.3814         1.07234 
        5.43502         17.2334         1.06448 
         5.4507         17.1294         1.05672 
        5.46639         17.0076         1.04903 
        5.48212         16.8703         1.04141 
        5.49786         16.7422         1.03385 
        5.51353         16.6306          1.0264 
        5.52921         16.4955         1.01902 
        5.54495         16.3827         1.01169 
        5.56066         16.2931         1.00444 
        5.57637         16.1545        0.997263 
        5.59207         16.0127        0.990162 
        5.60778         15.9274        0.983127 
        5.62346         15.8421        0.976171 
        5.63916         15.6885        0.969275 
        5.65487         15.6167        0.962443 
         5.6706         15.4866        0.955668 
        5.68633          15.383        0.948957 
        5.70203         15.2556        0.942323 
        5.71773           15.16        0.935754 
        5.73344         15.0676        0.929245 
        5.74916         14.9466        0.922791 
        5.76486         14.8441        0.916408 
        5.78054         14.7403        0.910095 
        5.79626         14.6294        0.903823 
          5.812         14.5423        0.897605 
         5.8277         14.4518        0.891463 
        5.84339         14.3092        0.885379 
        5.85911         14.2504         0.87934 
        5.87484         14.1359        0.873358 
        5.89053         14.0412        0.867444 
        5.90623         13.9239        0.861582 
        5.92195         13.8355        0.855764 
        5.93767         13.7601        0.850004 
        5.95336          13.694        0.844305 
        5.96905         13.5583        0.838661 
        5.98476         13.4928        0.833061 
        6.00048         13.3886         0.82751 
        6.01617         13.2827        0.822017 
        6.03185         13.2106        0.816581 
        6.04756         13.1078        0.811181 
        6.06331         12.9978        0.805819 
        6.07903         12.9259        0.800516 
        6.09473          12.843        0.795266 
        6.11044         12.7497        0.790058 
        6.12616         12.6581        0.784898 
        6.14186         12.5819        0.779789 
        6.15755         12.5093        0.774725 
        6.17326         12.4137        0.769703 
        6.18898         12.3269        0.764724 
        6.20467         12.2483        0.759797 
        6.22036         12.1787        0.754914 
         6.2361         12.1005         0.75006 
         6.2518         12.0448        0.745258 
        6.26748          11.945        0.740508 
        6.28319         11.8628        0.735786 
        6.29893          11.768        0.731101 
        6.31463         11.7111        0.726466 
        6.33033         11.6116        0.721872 
        6.34604         11.5545        0.717314 
        6.36177         11.4732        0.712792 
        6.37747         11.3901        0.708317 
