# k  (h/Mpc)    Pcb(k)  (Mpc/h)^3    Pcb_linear(k) (Mpc/h)^3   ShotnoiseSubtracted = true
      0.0200456         15742.8         15999.2 
      0.0350414         12274.3         11948.1 
      0.0492313         8835.75         8995.12 
      0.0637834          7200.4         7554.71 
      0.0800726         5586.22         5891.89 
       0.096163         4474.06         4335.31 
       0.111083          3751.5         3588.16 
       0.126058         3110.74         3176.75 
       0.142273         2654.52         2609.73 
       0.158546         2198.34         2085.78 
        0.17375          1978.8         1823.14 
       0.188953          1851.5         1645.38 
       0.204907         1576.07         1415.23 
       0.220756         1420.94         1204.19 
        0.23588         1277.95         1077.84 
         0.2514          1151.6         980.974 
       0.267535         1113.82          870.09 
       0.283568         983.129         767.726 
       0.299022         942.314          696.47 
       0.314451         970.408         639.401 
       0.330372         842.506         580.026 
       0.346141         778.507         525.424 
       0.361624         747.532         482.299 
       0.377134         710.041         445.918 
       0.392932         685.043         410.665 
       0.408854         653.115         377.725 
       0.424564         636.268         349.827 
       0.440253         583.318         325.519 
       0.455999         559.212         302.904 
       0.471626          568.38         282.155 
        0.48727         537.695         263.571 
       0.502856         503.037         247.003 
       0.518488         499.674         231.704 
       0.534347         469.424         217.345 
       0.550082         451.988          204.36 
       0.565732         448.512          192.59 
       0.581496         436.431         181.657 
       0.597222         424.327         171.546 
       0.612804         415.201         162.291 
       0.628434         398.429          153.73 
       0.644267         384.147         145.695 
       0.660051         378.767         138.254 
       0.675724         373.422         131.378 
       0.691403         364.216         124.966 
       0.707174         350.746         118.948 
       0.722871         345.188         113.352 
        0.73838         341.735         108.178 
       0.754018         328.779          103.29 
       0.769845         327.072         98.6512 
        0.78569         320.182          94.295 
       0.801365         311.251         90.2462 
       0.817031         306.511         86.4396 
       0.832809         302.136         82.8297 
       0.848511         294.582         79.4436 
       0.864097         287.894         76.2712 
       0.879701         286.065         73.2702 
       0.895507         278.241         70.3962 
       0.911279           271.5         67.6833 
        0.92691         269.241         65.1368 
       0.942635         267.593          62.708 
       0.958396         260.004         60.3987 
       0.974128           256.5         58.2107 
       0.989692         247.473         56.1532 
        1.00528         247.121         54.1928 
        1.02113         243.464         52.2958 
        1.03692         238.026         50.4972 
        1.05264         234.429          48.792 
        1.06832          233.97         47.1687 
        1.08405         227.574         45.6153 
        1.09979         226.142         44.1314 
        1.11537         221.221         42.7286 
        1.13105         217.745         41.3788 
        1.14679         215.791         40.0824 
        1.16256         212.908         38.8393 
        1.17828         210.414         37.6533 
        1.19395         204.676         36.5212 
         1.2097         204.283         35.4301 
        1.22537         202.685          34.389 
          1.241         197.855         33.3932 
        1.25666         195.272         32.4345 
        1.27241         191.396         31.5092 
        1.28819         189.597         30.6186 
        1.30392         186.729         29.7652 
        1.31957         182.678         28.9483 
        1.33529         180.703         28.1592 
        1.35108         178.738         27.3965 
        1.36674         175.914         26.6677 
         1.3824         174.527         25.9662 
        1.39811         171.112         25.2878 
        1.41389         168.699          24.631 
        1.42964          166.43         23.9989 
        1.44531         164.685         23.3921 
        1.46101         161.471         22.8051 
        1.47667         160.857         22.2401 
        1.49229         158.219         21.6958 
        1.50793         155.584         21.1692 
        1.52367         154.149         20.6568 
        1.53953         151.053          20.158 
        1.55526         150.716         19.6797 
        1.57092         148.661          19.219 
        1.58662         145.359          18.772 
        1.60235         143.913         18.3384 
        1.61809         141.943         17.9183 
        1.63369         140.272         17.5152 
        1.64941           139.3         17.1217 
        1.66519          136.98         16.7389 
        1.68085         134.889         16.3705 
        1.69652         133.629         16.0132 
        1.71228         132.539         15.6646 
        1.72806         130.656         15.3261 
        1.74368         128.826          15.001 
        1.75933         127.737         14.6848 
        1.77505         125.367         14.3762 
        1.79081         124.065          14.076 
         1.8065         121.882         13.7857 
        1.82218         120.561         13.5038 
        1.83797         120.278         13.2279 
        1.85367         117.928         12.9613 
        1.86928         117.424         12.7037 
        1.88497         115.477         12.4517 
        1.90073         114.549         12.2056 
        1.91647         112.605         11.9664 
        1.93218         111.325         11.7341 
        1.94787         109.764         11.5084 
        1.96363         108.959         11.2877 
        1.97935         107.717         11.0733 
        1.99499         106.758         10.8657 
        2.01064         104.449         10.6631 
         2.0264         103.797         10.4645 
        2.04216         101.738          10.271 
        2.05781         101.313         10.0836 
        2.07353          99.841         9.90031 
        2.08928         98.4484         9.72115 
        2.10499         97.3576         9.54691 
        2.12065         97.0135         9.37748 
        2.13633         95.6837         9.21203 
        2.15211         94.2418         9.04952 
        2.16785         92.8921         8.89139 
        2.18349         91.6832         8.73804 
        2.19916         90.8194         8.58799 
        2.21489         89.7268         8.44099 
        2.23063         88.6149         8.29733 
         2.2463         88.0923         8.15768 
        2.26194         86.7979         8.02159 
        2.27765         85.9335         7.88792 
        2.29341         85.0114         7.75696 
        2.30914         83.9486         7.62925 
        2.32486         82.2576         7.50449 
        2.34061         81.8953         7.38233 
        2.35635          80.801           7.263 
        2.37203         79.7824         7.14672 
        2.38768         79.0201         7.03324 
        2.40339         78.1459         6.92182 
        2.41914         77.0819         6.81256 
        2.43483         76.4866         6.70605 
         2.4505         75.3413         6.60201 
        2.46622         74.8484         6.49981 
        2.48195         73.8048         6.39978 
        2.49759         72.9106          6.3024 
        2.51328         72.1431         6.20679 
        2.52906         71.1082         6.11257 
        2.54479         70.4582         6.02065 
        2.56049         69.7219         5.93081 
        2.57618         68.7012         5.84289 
        2.59189         68.3592         5.75662 
        2.60758         67.3845         5.67223 
        2.62325         66.6667         5.58964 
        2.63898          65.915         5.50841 
        2.65468         65.2934         5.42897 
        2.67044         64.6642         5.35076 
        2.68618          63.971         5.27427 
        2.70184         63.0784         5.19959 
        2.71755         62.3231         5.12617 
        2.73329         61.8801         5.05406 
        2.74897         61.3695         4.98358 
        2.76462         60.8414         4.91459 
        2.78034         60.0424         4.84663 
        2.79607         59.1382         4.77989 
        2.81179         58.5006         4.71448 
        2.82749         58.0549         4.65038 
        2.84321         57.6439         4.58739 
        2.85893         56.9185          4.5256 
        2.87462         56.1479         4.46505 
        2.89033         55.5368         4.40555 
        2.90605         54.9222         4.34709 
        2.92176         54.4336         4.28973 
        2.93747         53.7221         4.23342 
        2.95318         53.3723         4.17812 
        2.96891         52.6812         4.12379 
        2.98456         52.2127         4.07066 
        3.00023         51.5135         4.01839 
        3.01596         51.1329         3.96688 
        3.03164         50.6184         3.91643 
        3.04738         50.1183          3.8667 
         3.0631         49.5426         3.81786 
        3.07883         49.0743         3.76985 
        3.09456         48.4548         3.72269 
        3.11026         47.9419          3.6764 
        3.12596         47.5322         3.63091 
        3.14163         47.0955         3.58629 
        3.15734         46.5513         3.54232 
        3.17308         46.2681         3.49899 
        3.18879         45.8006          3.4565 
        3.20447         45.2481         3.41477 
         3.2202         44.7802         3.37361 
         3.2359         44.4538          3.3332 
        3.25157         43.8726         3.29355 
        3.26729         43.5052         3.25443 
        3.28304          43.099         3.21586 
        3.29877         42.5061         3.17797 
        3.31446         42.2342         3.14078 
        3.33014         41.8124         3.10421 
        3.34585         41.2907         3.06818 
        3.36158         40.9733         3.03266 
        3.37727         40.5164         2.99781 
        3.39294         40.0867         2.96355 
        3.40867          39.794          2.9297 
        3.42439         39.3312          2.8964 
        3.44008         39.0346         2.86368 
        3.45578         38.5998         2.83144 
        3.47153         38.3394         2.79963 
        3.48724         37.8659         2.76836 
        3.50292         37.5787         2.73765 
        3.51859         37.2892         2.70742 
        3.53431         36.9182         2.67755 
        3.55007         36.3527         2.64806 
        3.56577         36.2562         2.61912 
        3.58146         35.8565         2.59064 
        3.59719         35.4326         2.56251 
        3.61292         35.2252         2.53481 
        3.62859         34.7591         2.50763 
        3.64429         34.5321         2.48079 
        3.66003         34.2224         2.45427 
        3.67578         33.8959         2.42814 
        3.69146         33.6654         2.40249 
        3.70712         33.2005         2.37726 
        3.72284         32.9798          2.3523 
        3.73853         32.7807         2.32774 
        3.75422          32.452         2.30352 
        3.76993         32.0989         2.27963 
        3.78564         31.8275         2.25608 
        3.80137         31.6064         2.23283 
        3.81707         31.2327         2.20996 
        3.83279         30.9248         2.18739 
        3.84853         30.7072          2.1651 
        3.86424         30.2594         2.14317 
        3.87992         30.0569         2.12157 
        3.89561         29.8861         2.10026 
        3.91134         29.6498         2.07921 
        3.92704         29.2433         2.05847 
        3.94273         28.9639         2.03803 
        3.95845          28.829         2.01784 
        3.97418         28.4777         1.99791 
        3.98988         28.2311         1.97828 
        4.00554         27.9242         1.95897 
        4.02125         27.7635         1.93986 
        4.03698         27.5643         1.92098 
        4.05268          27.246         1.90239 
        4.06839         27.0024         1.88403 
         4.0841         26.8462         1.86593 
        4.09983           26.48         1.84803 
        4.11555         26.2807         1.83038 
        4.13124         26.1939         1.81301 
        4.14693         25.8561         1.79584 
        4.16266          25.618         1.77886 
        4.17839         25.5257         1.76211 
        4.19408         25.1996         1.74562 
        4.20977         25.0296         1.72933 
        4.22551         24.8353          1.7132 
        4.24123         24.5834          1.6973 
        4.25691          24.363         1.68165 
        4.27259          24.194         1.66619 
        4.28831         23.9607         1.65089 
        4.30404         23.7384         1.63577 
        4.31974         23.5025         1.62087 
        4.33543         23.3836         1.60617 
        4.35116         23.1518         1.59161 
        4.36688         22.9818         1.57724 
        4.38255         22.7631          1.5631 
        4.39825         22.6047          1.5491 
        4.41398         22.4116         1.53525 
         4.4297         22.2065         1.52158 
        4.44541         21.9663         1.50808 
        4.46111         21.8008         1.49476 
        4.47683         21.6158         1.48159 
        4.49251          21.515          1.4686 
        4.50819          21.332         1.45577 
         4.5239         21.1343         1.44308 
        4.53962          20.988         1.43052 
        4.55535         20.7914         1.41811 
        4.57106         20.6699         1.40586 
        4.58678         20.4712         1.39375 
         4.6025         20.2227         1.38178 
        4.61821         20.1165         1.36996 
        4.63391          19.966         1.35829 
         4.6496         19.8032         1.34676 
        4.66532         19.6478         1.33535 
        4.68103         19.4787         1.32407 
        4.69673         19.3386         1.31294 
        4.71241         19.2293         1.30194 
        4.72811         19.0433         1.29105 
        4.74384         18.8456         1.28028 
        4.75955         18.7304         1.26964 
        4.77525         18.5887         1.25913 
        4.79096         18.4261         1.24873 
        4.80669         18.2734         1.23844 
         4.8224         18.1141         1.22827 
        4.83809         17.9807         1.21823 
        4.85379         17.8714          1.2083 
         4.8695         17.7434         1.19847 
        4.88521         17.5702         1.18876 
        4.90093         17.4418         1.17915 
        4.91663          17.287         1.16965 
        4.93234         17.1377         1.16025 
        4.94807         17.0567         1.15095 
        4.96377         16.9194         1.14177 
        4.97943         16.7689          1.1327 
        4.99514         16.6384         1.12371 
        5.01086         16.5595         1.11482 
        5.02654         16.3875         1.10604 
        5.04227          16.247         1.09733 
          5.058         16.1619         1.08871 
        5.07371          15.995          1.0802 
        5.08942         15.9245         1.07178 
        5.10513         15.7922         1.06345 
        5.12084         15.6624          1.0552 
        5.13656         15.5518         1.04704 
        5.15225         15.4177         1.03898 
        5.16796         15.2683           1.031 
        5.18369         15.1827         1.02309 
         5.1994         15.0641         1.01528 
        5.21509          14.962         1.00756 
        5.23079         14.8595        0.999904 
        5.24649          14.763        0.992338 
        5.26217         14.6387        0.984855 
        5.27788         14.5016         0.97744 
        5.29359         14.3979        0.970099 
        5.30933         14.3321        0.962824 
        5.32504         14.2139        0.955635 
        5.34073         14.1068        0.948527 
        5.35646          13.992        0.941478 
        5.37218         13.8867        0.934499 
        5.38789         13.7763        0.927602 
        5.40357         13.7124        0.920783 
        5.41929         13.6004        0.914017 
        5.43502         13.5017        0.907319 
         5.4507         13.4054        0.900704 
        5.46639         13.2737        0.894153 
        5.48212         13.1869        0.887653 
        5.49786         13.1409         0.88121 
        5.51353         12.9993        0.874862 
        5.52921         12.9442        0.868571 
        5.54495         12.8446        0.862323 
        5.56066         12.7412        0.856144 
        5.57637         12.6542        0.850026 
        5.59207         12.5658        0.843973 
        5.60778         12.4604        0.837977 
        5.62346         12.3526        0.832048 
        5.63916         12.2742        0.826171 
        5.65487         12.2204        0.820347 
         5.6706         12.1229        0.814573 
        5.68633          12.017        0.808852 
        5.70203         11.9496        0.803198 
        5.71773         11.8485        0.797599 
        5.73344         11.7777         0.79205 
        5.74916         11.7127        0.786549 
        5.76486         11.6395        0.781108 
        5.78054         11.5478        0.775727 
        5.79626         11.4885        0.770382 
          5.812         11.3638        0.765082 
         5.8277         11.2968        0.759847 
        5.84339         11.2013        0.754661 
        5.85911         11.1327        0.749513 
        5.87484         11.0588        0.744415 
        5.89053         10.9758        0.739374 
        5.90623         10.9031        0.734377 
        5.92195         10.8442        0.729418 
        5.93767         10.7749        0.724508 
        5.95336          10.682        0.719651 
        5.96905          10.613         0.71484 
        5.98476          10.547        0.710067 
        6.00048         10.4764        0.705336 
        6.01617         10.3749        0.700654 
        6.03185         10.3483         0.69602 
        6.04756         10.2485        0.691418 
        6.06331          10.205        0.686847 
        6.07903         10.1198        0.682327 
        6.09473         10.0537        0.677852 
        6.11044         9.98826        0.673413 
        6.12616         9.92962        0.669015 
        6.14186         9.85913         0.66466 
        6.15755         9.79692        0.660344 
        6.17326         9.72309        0.656064 
        6.18898         9.65587        0.651819 
        6.20467         9.58487         0.64762 
        6.22036         9.52649        0.643457 
         6.2361         9.45961        0.639321 
         6.2518         9.41905        0.635227 
        6.26748         9.34553        0.631178 
        6.28319         9.29931        0.627154 
        6.29893         9.23906        0.623161 
        6.31463         9.15731         0.61921 
        6.33033         9.09013        0.615294 
        6.34604         9.04931        0.611409 
        6.36177         8.99344        0.607554 
        6.37747         8.92406         0.60374 
