# k  (h/Mpc)    Pcb(k)  (Mpc/h)^3    Pcb_linear(k) (Mpc/h)^3   ShotnoiseSubtracted = true
      0.0200456         448.249         454.511 
      0.0350414          338.62         339.426 
      0.0492313         256.265         255.536 
      0.0637834         215.548         214.617 
      0.0800726         168.361         167.379 
       0.096163         123.191         123.159 
       0.111083         101.336         101.934 
       0.126058         90.2882         90.2462 
       0.142273         74.6681         74.1381 
       0.158546         59.8325         59.2535 
        0.17375         51.5779         51.7923 
       0.188953         46.8409         46.7426 
       0.204907         41.1825         40.2042 
       0.220756         34.6883         34.2089 
        0.23588         30.9462         30.6196 
         0.2514         27.9609         27.8678 
       0.267535         24.9434         24.7178 
       0.283568         22.1123         21.8098 
       0.299022          20.125         19.7855 
       0.314451         18.1861         18.1643 
       0.330372         16.6536         16.4776 
       0.346141         15.1049         14.9264 
       0.361624         13.9282         13.7013 
       0.377134         12.9658         12.6678 
       0.392932         11.6268         11.6663 
       0.408854         10.9799         10.7305 
       0.424564          10.123           9.938 
       0.440253         9.40763         9.24744 
       0.455999         8.82929           8.605 
       0.471626         8.26934         8.01555 
        0.48727         7.68551         7.48761 
       0.502856          7.1726         7.01693 
       0.518488           6.832         6.58231 
       0.534347         6.47292          6.1744 
       0.550082         5.95419         5.80554 
       0.565732         5.52029         5.47116 
       0.581496         5.34586         5.16056 
       0.597222          5.0841         4.87334 
       0.612804         4.76039         4.61042 
       0.628434         4.57259         4.36722 
       0.644267         4.32192         4.13896 
       0.660051         4.08049         3.92757 
       0.675724         3.88873         3.73222 
       0.691403         3.73304         3.55007 
       0.707174         3.53116         3.37911 
       0.722871         3.36235         3.22015 
        0.73838         3.23608         3.07316 
       0.754018         3.11912         2.93428 
       0.769845         2.95671         2.80252 
        0.78569         2.83838         2.67876 
       0.801365         2.70916         2.56374 
       0.817031         2.61082          2.4556 
       0.832809         2.50304         2.35305 
       0.848511         2.38003         2.25686 
       0.864097         2.27879         2.16674 
       0.879701          2.1947         2.08148 
       0.895507          2.1183         1.99984 
       0.911279         2.06003         1.92277 
        0.92691         1.97658         1.85043 
       0.942635         1.89697         1.78143 
       0.958396          1.8219         1.71583 
       0.974128         1.76261         1.65367 
       0.989692         1.71488         1.59522 
        1.00528          1.6459         1.53953 
        1.02113         1.57829         1.48564 
        1.03692         1.54536         1.43454 
        1.05264         1.48809          1.3861 
        1.06832         1.44587         1.33998 
        1.08405         1.37824         1.29585 
        1.09979         1.34229          1.2537 
        1.11537         1.30909         1.21385 
        1.13105         1.27179          1.1755 
        1.14679         1.23795         1.13867 
        1.16256         1.18687         1.10336 
        1.17828         1.15613         1.06967 
        1.19395         1.12024          1.0375 
         1.2097         1.07535         1.00651 
        1.22537         1.05594        0.976934 
          1.241         1.02715        0.948645 
        1.25666         1.01152        0.921411 
        1.27241        0.966741        0.895124 
        1.28819        0.940447        0.869823 
        1.30392        0.922107         0.84558 
        1.31957        0.897246        0.822372 
        1.33529        0.870218        0.799956 
        1.35108        0.846193         0.77829 
        1.36674        0.816138        0.757586 
         1.3824        0.805102        0.737657 
        1.39811        0.781273        0.718383 
        1.41389         0.76427        0.699727 
        1.42964        0.746839        0.681768 
        1.44531        0.722956         0.66453 
        1.46101        0.710816        0.647854 
        1.47667        0.682429        0.631803 
        1.49229        0.675603        0.616342 
        1.50793        0.655311        0.601382 
        1.52367        0.642991        0.586826 
        1.53953        0.623901        0.572655 
        1.55526        0.611339        0.559068 
        1.57092        0.595168        0.545979 
        1.58662        0.584583        0.533281 
        1.60235        0.571542        0.520963 
        1.61809         0.55353         0.50903 
        1.63369        0.550328        0.497578 
        1.64941        0.533056        0.486399 
        1.66519         0.52105        0.475523 
        1.68085        0.506441         0.46506 
        1.69652         0.49682        0.454909 
        1.71228        0.488959        0.445004 
        1.72806        0.474518        0.435388 
        1.74368        0.469431        0.426154 
        1.75933        0.456833         0.41717 
        1.77505        0.447439        0.408404 
        1.79081        0.439305        0.399875 
         1.8065        0.425964        0.391627 
        1.82218        0.421031         0.38362 
        1.83797        0.411364        0.375783 
        1.85367        0.406726        0.368209 
        1.86928        0.397246         0.36089 
        1.88497        0.388693        0.353731 
        1.90073        0.380028         0.34674 
        1.91647        0.374617        0.339945 
        1.93218        0.365347        0.333347 
        1.94787        0.359093        0.326934 
        1.96363        0.352012        0.320665 
        1.97935        0.344011        0.314574 
        1.99499        0.338775        0.308677 
        2.01064        0.332358        0.302922 
         2.0264        0.324371        0.297278 
        2.04216        0.321933        0.291782 
        2.05781         0.31475        0.286459 
        2.07353        0.306951        0.281251 
        2.08928        0.301141        0.276161 
        2.10499        0.297222        0.271212 
        2.12065         0.29354        0.266399 
        2.13633        0.287184        0.261698 
        2.15211        0.282438        0.257082 
        2.16785        0.276742        0.252589 
        2.18349        0.270695        0.248233 
        2.19916        0.268051        0.243971 
        2.21489         0.26231        0.239794 
        2.23063        0.259008        0.235713 
         2.2463        0.254067        0.231746 
        2.26194        0.248047         0.22788 
        2.27765         0.24488        0.224083 
        2.29341        0.241369        0.220362 
        2.30914        0.237551        0.216734 
        2.32486        0.232855         0.21319 
        2.34061        0.229154        0.209719 
        2.35635        0.224901         0.20633 
        2.37203        0.221508        0.203026 
        2.38768         0.21795        0.199803 
        2.40339        0.215067        0.196637 
        2.41914        0.211784        0.193533 
        2.43483        0.208087        0.190508 
         2.4505        0.203595        0.187552 
        2.46622        0.200777        0.184649 
        2.48195        0.198078        0.181807 
        2.49759        0.195814        0.179041 
        2.51328        0.192276        0.176325 
        2.52906        0.189496        0.173648 
        2.54479        0.185809        0.171037 
        2.56049        0.182605        0.168484 
        2.57618         0.18006        0.165987 
        2.59189         0.17822        0.163536 
        2.60758        0.176029        0.161139 
        2.62325        0.172314        0.158792 
        2.63898        0.170236        0.156485 
        2.65468        0.167028        0.154228 
        2.67044        0.165138        0.152006 
        2.68618        0.162773        0.149833 
        2.70184        0.160163        0.147712 
        2.71755         0.15725        0.145626 
        2.73329        0.155689        0.143577 
        2.74897        0.153771        0.141575 
        2.76462        0.151234        0.139615 
        2.78034         0.14907        0.137685 
        2.79607        0.146611        0.135789 
        2.81179        0.145442        0.133931 
        2.82749        0.142913        0.132109 
        2.84321        0.140947         0.13032 
        2.85893        0.139396        0.128565 
        2.87462        0.137435        0.126845 
        2.89033        0.135575        0.125154 
        2.90605        0.133229        0.123494 
        2.92176        0.131888        0.121864 
        2.93747        0.129714        0.120264 
        2.95318        0.128336        0.118693 
        2.96891        0.126506         0.11715 
        2.98456        0.124942        0.115641 
        3.00023        0.123436        0.114156 
        3.01596        0.121739        0.112693 
        3.03164        0.120605        0.111259 
        3.04738        0.118328        0.109846 
         3.0631        0.117272        0.108459 
        3.07883        0.115518        0.107095 
        3.09456        0.114108        0.105755 
        3.11026         0.11259         0.10444 
        3.12596        0.111342        0.103148 
        3.14163        0.109925        0.101881 
        3.15734        0.108917        0.100631 
        3.17308        0.107772       0.0994003 
        3.18879        0.106189       0.0981932 
        3.20447        0.104571       0.0970079 
         3.2202        0.104029       0.0958386 
         3.2359        0.102408       0.0946906 
        3.25157        0.101167       0.0935642 
        3.26729       0.0997998       0.0924528 
        3.28304       0.0992977       0.0913572 
        3.29877       0.0978345       0.0902809 
        3.31446        0.096822       0.0892243 
        3.33014       0.0960884       0.0881855 
        3.34585       0.0948216       0.0871618 
        3.36158       0.0938929       0.0861528 
        3.37727       0.0930534       0.0851629 
        3.39294       0.0916721       0.0841895 
        3.40867       0.0906003       0.0832279 
        3.42439       0.0897468       0.0822818 
        3.44008       0.0885376       0.0813523 
        3.45578       0.0878965       0.0804365 
        3.47153       0.0869862       0.0795328 
        3.48724       0.0862777       0.0786446 
        3.50292       0.0851932        0.077772 
        3.51859       0.0840936       0.0769132 
        3.53431       0.0833274       0.0760646 
        3.55007       0.0827119       0.0752268 
        3.56577       0.0818343       0.0744049 
        3.58146       0.0811961       0.0735957 
        3.59719       0.0805565       0.0727967 
        3.61292        0.079723       0.0720098 
        3.62859       0.0787498       0.0712375 
        3.64429       0.0780395       0.0704751 
        3.66003       0.0774505       0.0697216 
        3.67578       0.0765463       0.0689793 
        3.69146       0.0757973       0.0682507 
        3.70712       0.0753431       0.0675339 
        3.72284       0.0749226       0.0668248 
        3.73853       0.0739458       0.0661271 
        3.75422       0.0734343       0.0654392 
        3.76993       0.0725907       0.0647604 
        3.78564       0.0720641       0.0640916 
        3.80137       0.0712458       0.0634311 
        3.81707       0.0707364       0.0627813 
        3.83279       0.0702416       0.0621401 
        3.84853       0.0695797       0.0615069 
        3.86424       0.0689948       0.0608837 
        3.87992       0.0682675       0.0602701 
        3.89561        0.067738       0.0596649 
        3.91134       0.0672286       0.0590669 
        3.92704       0.0666038       0.0584777 
        3.94273       0.0660121       0.0578971 
        3.95845       0.0655042       0.0573234 
        3.97418       0.0650184       0.0567574 
        3.98988       0.0641774       0.0561997 
        4.00554       0.0638891       0.0556511 
        4.02125       0.0629886       0.0551083 
        4.03698       0.0621224       0.0545718 
        4.05268       0.0613119       0.0540437 
        4.06839       0.0605341       0.0535223 
         4.0841       0.0597761       0.0530078 
        4.09983        0.059038       0.0524995 
        4.11555       0.0580714        0.051998 
        4.13124       0.0573811       0.0515044 
        4.14693       0.0566028       0.0510169 
        4.16266       0.0559721       0.0505345 
        4.17839       0.0553473       0.0500587 
        4.19408       0.0547768       0.0495901 
        4.20977       0.0540754       0.0491272 
        4.22551       0.0533975       0.0486692 
        4.24123       0.0528434       0.0482175 
        4.25691        0.052238       0.0477728 
        4.27259       0.0517712       0.0473336 
        4.28831         0.05115        0.046899 
        4.30404       0.0508115       0.0464694 
        4.31974       0.0503858       0.0460462 
        4.33543       0.0498719       0.0456285 
        4.35116       0.0495221        0.045215 
        4.36688       0.0489815       0.0448067 
        4.38255       0.0486209       0.0444051 
        4.39825       0.0482527       0.0440075 
        4.41398       0.0480898       0.0436139 
         4.4297       0.0477665       0.0432256 
        4.44541       0.0473857       0.0428421 
        4.46111       0.0471853       0.0424636 
        4.47683        0.046891       0.0420894 
        4.49251       0.0465919       0.0417204 
        4.50819       0.0463132        0.041356 
         4.5239        0.046038       0.0409954 
        4.53962       0.0459062       0.0406387 
        4.55535       0.0458169        0.040286 
        4.57106       0.0456651        0.039938 
        4.58678       0.0453333       0.0395941 
         4.6025       0.0453572       0.0392541 
        4.61821       0.0453518       0.0389183 
        4.63391       0.0453026       0.0385867 
         4.6496       0.0451195       0.0382592 
        4.66532       0.0451772        0.037935 
        4.68103       0.0450745       0.0376146 
        4.69673       0.0451014       0.0372983 
        4.71241       0.0450652        0.036986 
        4.72811       0.0450586       0.0366767 
        4.74384       0.0451912       0.0363705 
        4.75955       0.0453117       0.0360684 
        4.77525       0.0453957       0.0357698 
        4.79096        0.045442       0.0354742 
        4.80669       0.0454594       0.0351819 
         4.8224        0.045847       0.0348931 
        4.83809       0.0459829        0.034608 
        4.85379       0.0460379       0.0343258 
         4.8695       0.0462637       0.0340466 
        4.88521       0.0464581       0.0337706 
        4.90093       0.0467668       0.0334976 
        4.91663       0.0469789       0.0332278 
        4.93234       0.0471215       0.0329608 
        4.94807       0.0474185       0.0326965 
        4.96377        0.047828       0.0324356 
        4.97943       0.0482895       0.0321782 
        4.99514       0.0484845       0.0319228 
        5.01086       0.0489943       0.0316701 
        5.02654       0.0491482       0.0314207 
        5.04227       0.0495982       0.0311732 
          5.058       0.0501232       0.0309284 
        5.07371       0.0505867       0.0306866 
        5.08942       0.0508399       0.0304474 
        5.10513       0.0516009       0.0302107 
        5.12084       0.0520748       0.0299764 
        5.13656       0.0525372       0.0297447 
        5.15225       0.0532638       0.0295158 
        5.16796       0.0537859       0.0292889 
        5.18369       0.0544019       0.0290642 
         5.1994       0.0550508       0.0288423 
        5.21509       0.0556907       0.0286229 
        5.23079       0.0562113       0.0284056 
        5.24649       0.0570247       0.0281907 
        5.26217       0.0578675       0.0279781 
        5.27788        0.058611       0.0277674 
        5.29359       0.0594379       0.0275589 
        5.30933       0.0601215       0.0273522 
        5.32504       0.0610814        0.027148 
        5.34073       0.0619489       0.0269461 
        5.35646       0.0629133       0.0267458 
        5.37218       0.0638256       0.0265476 
        5.38789        0.065028       0.0263516 
        5.40357       0.0654725       0.0261579 
        5.41929       0.0668391       0.0259657 
        5.43502       0.0676137       0.0257754 
         5.4507       0.0688284       0.0255875 
        5.46639       0.0701028       0.0254014 
        5.48212       0.0710563       0.0252167 
        5.49786       0.0724504       0.0250337 
        5.51353       0.0740155       0.0248534 
        5.52921       0.0747062       0.0246746 
        5.54495       0.0760393       0.0244972 
        5.56066       0.0774045       0.0243216 
        5.57637       0.0788915       0.0241478 
        5.59207       0.0804712       0.0239759 
        5.60778       0.0820054       0.0238055 
        5.62346       0.0831651       0.0236371 
        5.63916       0.0850441       0.0234701 
        5.65487       0.0864535       0.0233047 
         5.6706       0.0877588       0.0231406 
        5.68633       0.0896319       0.0229781 
        5.70203       0.0908489       0.0228175 
        5.71773       0.0931269       0.0226584 
        5.73344       0.0948618       0.0225008 
        5.74916       0.0969422       0.0223445 
        5.76486       0.0986218         0.02219 
        5.78054        0.100199       0.0220371 
        5.79626         0.10207       0.0218853 
          5.812        0.104627       0.0217347 
         5.8277        0.106265        0.021586 
        5.84339        0.108229       0.0214386 
        5.85911        0.111046       0.0212924 
        5.87484        0.112594       0.0211476 
        5.89053        0.115467       0.0210044 
        5.90623        0.117631       0.0208624 
        5.92195        0.120537       0.0207216 
        5.93767        0.123004       0.0205821 
        5.95336        0.124888       0.0204441 
        5.96905        0.127994       0.0203074 
        5.98476        0.130511       0.0201718 
        6.00048        0.132762       0.0200374 
        6.01617        0.135796       0.0199044 
        6.03185         0.13897       0.0197728 
        6.04756        0.141431        0.019642 
        6.06331        0.144088       0.0195122 
        6.07903        0.147476       0.0193838 
        6.09473        0.150723       0.0192566 
        6.11044        0.153843       0.0191305 
        6.12616        0.156636       0.0190056 
        6.14186        0.160488       0.0188819 
        6.15755        0.162825       0.0187593 
        6.17326        0.167314       0.0186377 
        6.18898        0.169602       0.0185171 
        6.20467        0.174429       0.0183978 
        6.22036        0.177652       0.0182795 
         6.2361        0.180915        0.018162 
         6.2518        0.185045       0.0180457 
        6.26748        0.187817       0.0179307 
        6.28319        0.191968       0.0178164 
        6.29893         0.19651        0.017703 
        6.31463        0.200141       0.0175907 
        6.33033        0.205139       0.0174795 
        6.34604        0.209023       0.0173691 
        6.36177        0.212266       0.0172596 
        6.37747         0.21713       0.0171512 
