# k  (h/Mpc)    Pcb(k)  (Mpc/h)^3    Pcb_linear(k) (Mpc/h)^3   ShotnoiseSubtracted = true
      0.0200456         4296.12         4353.55 
      0.0350414         3311.18          3251.2 
      0.0492313          2442.6         2447.66 
      0.0637834         2009.74         2055.71 
      0.0800726         1565.66         1603.24 
       0.096163          1208.1         1179.68 
       0.111083         1008.84         976.376 
       0.126058         855.265         864.426 
       0.142273         709.818         710.134 
       0.158546         582.739         567.561 
        0.17375         516.554         496.094 
       0.188953         467.547         447.726 
       0.204907         390.883         385.097 
       0.220756         347.937         327.671 
        0.23588         311.403         293.291 
         0.2514         281.275         266.933 
       0.267535         262.357          236.76 
       0.283568         229.478         208.906 
       0.299022          215.11         189.517 
       0.314451         206.986         173.988 
       0.330372         181.223         157.831 
       0.346141         166.915         142.973 
       0.361624         156.257         131.239 
       0.377134         143.094         121.339 
       0.392932         139.143         111.746 
       0.408854         129.513         102.783 
       0.424564         123.701         95.1915 
       0.440253         112.635         88.5769 
       0.455999         104.333         82.4233 
       0.471626          100.05         76.7772 
        0.48727          97.229         71.7204 
       0.502856          89.701         67.2119 
       0.518488         86.3333         63.0489 
       0.534347         81.4941         59.1417 
       0.550082         78.8736         55.6086 
       0.565732         76.4914         52.4058 
       0.581496         71.0585         49.4306 
       0.597222         68.3987         46.6795 
       0.612804         66.1173         44.1611 
       0.628434         64.5981         41.8316 
       0.644267         61.1748         39.6452 
       0.660051         58.7683         37.6204 
       0.675724         56.8145         35.7492 
       0.691403         55.8606         34.0045 
       0.707174         53.9695         32.3669 
       0.722871         52.3172         30.8443 
        0.73838          50.078         29.4364 
       0.754018         47.5647         28.1062 
       0.769845          46.903          26.844 
        0.78569         45.2362         25.6586 
       0.801365         44.0652         24.5569 
       0.817031         42.3853         23.5211 
       0.832809         41.6799         22.5388 
       0.848511         40.3865         21.6174 
       0.864097         39.4856         20.7542 
       0.879701         38.7385         19.9376 
       0.895507          37.352         19.1555 
       0.911279         36.3232         18.4173 
        0.92691         35.5967         17.7244 
       0.942635         34.8877         17.0635 
       0.958396         34.2385         16.4351 
       0.974128         33.3206         15.8397 
       0.989692         32.1437         15.2799 
        1.00528         31.8252         14.7464 
        1.02113         30.9982         14.2302 
        1.03692         30.4799         13.7408 
        1.05264         29.8375         13.2768 
        1.06832         29.3018         12.8351 
        1.08405           28.48         12.4124 
        1.09979         28.1914         12.0086 
        1.11537         27.3228         11.6269 
        1.13105         26.8858         11.2596 
        1.14679         26.2469         10.9068 
        1.16256         25.8968         10.5686 
        1.17828         25.5041         10.2459 
        1.19395         25.0427         9.93778 
         1.2097         24.5298         9.64088 
        1.22537         24.1115          9.3576 
          1.241          23.679         9.08663 
        1.25666         23.3775         8.82577 
        1.27241         22.9811         8.57398 
        1.28819         22.1376         8.33163 
        1.30392         22.4141         8.09942 
        1.31957         21.8245         7.87712 
        1.33529         21.4085         7.66241 
        1.35108         21.2274         7.45488 
        1.36674         20.8444         7.25656 
         1.3824         20.4552         7.06568 
        1.39811          20.058         6.88106 
        1.41389         19.8442         6.70236 
        1.42964         19.6155         6.53034 
        1.44531         19.3036         6.36523 
        1.46101         19.0399          6.2055 
        1.47667         18.7746         6.05175 
        1.49229         18.3803         5.90365 
        1.50793         18.2267         5.76036 
        1.52367         18.0038         5.62093 
        1.53953         17.7279          5.4852 
        1.55526         17.4266         5.35505 
        1.57092         17.3942         5.22968 
        1.58662         17.1341         5.10805 
        1.60235         16.8253         4.99007 
        1.61809         16.6769         4.87576 
        1.63369         16.4062         4.76607 
        1.64941         16.2486         4.65899 
        1.66519         15.9719         4.55482 
        1.68085         15.6897         4.45459 
        1.69652         15.7328         4.35736 
        1.71228         15.4005         4.26249 
        1.72806         15.1874         4.17038 
        1.74368         15.0611         4.08193 
        1.75933         14.9199         3.99588 
        1.77505         14.7133         3.91191 
        1.79081         14.5484         3.83022 
         1.8065         14.4432         3.75122 
        1.82218          14.307         3.67452 
        1.83797         14.1535         3.59945 
        1.85367         14.0282         3.52691 
        1.86928         13.8471          3.4568 
        1.88497         13.6995         3.38822 
        1.90073         13.5071         3.32126 
        1.91647         13.2214         3.25617 
        1.93218         13.2408         3.19297 
        1.94787         12.9846         3.13155 
        1.96363         12.9437          3.0715 
        1.97935         12.7963         3.01316 
        1.99499         12.6453         2.95667 
        2.01064         12.5227         2.90155 
         2.0264         12.3266         2.84749 
        2.04216         12.3611         2.79484 
        2.05781         12.2041         2.74386 
        2.07353         12.0583         2.69398 
        2.08928         11.8943         2.64522 
        2.10499         11.7648         2.59781 
        2.12065          11.698         2.55171 
        2.13633          11.562         2.50669 
        2.15211         11.4565         2.46247 
        2.16785         11.3143         2.41944 
        2.18349         11.2163         2.37771 
        2.19916         11.1012         2.33688 
        2.21489         11.0219         2.29688 
        2.23063         10.9671         2.25779 
         2.2463         10.7628         2.21979 
        2.26194         10.6955         2.18276 
        2.27765          10.573         2.14638 
        2.29341         10.4371         2.11075 
        2.30914         10.4221           2.076 
        2.32486         10.3104         2.04205 
        2.34061         10.2403         2.00881 
        2.35635         10.1181         1.97634 
        2.37203         10.0016          1.9447 
        2.38768         9.89946         1.91382 
        2.40339          9.8618          1.8835 
        2.41914         9.74428         1.85377 
        2.43483          9.6956         1.82479 
         2.4505         9.61004         1.79647 
        2.46622         9.49109         1.76867 
        2.48195         9.47268         1.74145 
        2.49759         9.29976         1.71495 
        2.51328         9.28027         1.68893 
        2.52906         9.17436         1.66329 
        2.54479         9.07826         1.63828 
        2.56049         9.00926         1.61383 
        2.57618         8.95642         1.58991 
        2.59189         8.94464         1.56643 
        2.60758         8.79998         1.54347 
        2.62325         8.72999           1.521 
        2.63898         8.71668          1.4989 
        2.65468         8.58679         1.47728 
        2.67044         8.53239           1.456 
        2.68618         8.43783         1.43518 
        2.70184         8.41347         1.41486 
        2.71755         8.31685         1.39488 
        2.73329         8.21097         1.37526 
        2.74897         8.17415         1.35608 
        2.76462         8.14496         1.33731 
        2.78034         8.05414         1.31882 
        2.79607         8.01374         1.30066 
        2.81179         7.92216         1.28286 
        2.82749         7.86146         1.26542 
        2.84321         7.80663         1.24828 
        2.85893         7.76525         1.23146 
        2.87462         7.69925         1.21499 
        2.89033         7.61434          1.1988 
        2.90605         7.58045         1.18289 
        2.92176          7.5098         1.16728 
        2.93747         7.44412         1.15196 
        2.95318          7.3801         1.13691 
        2.96891         7.32302         1.12212 
        2.98456         7.27483         1.10767 
        3.00023         7.23816         1.09345 
        3.01596         7.12866         1.07943 
        3.03164         7.11193          1.0657 
        3.04738         7.05521         1.05217 
         3.0631         6.99759         1.03888 
        3.07883          6.9537         1.02582 
        3.09456         6.86358         1.01298 
        3.11026         6.83979         1.00039 
        3.12596         6.77958        0.988007 
        3.14163         6.75568        0.975867 
        3.15734         6.68625        0.963902 
        3.17308         6.66817         0.95211 
        3.18879         6.59451        0.940547 
        3.20447         6.54617        0.929194 
         3.2202         6.49695        0.917994 
         3.2359         6.44958        0.906998 
        3.25157         6.40642        0.896208 
        3.26729          6.3632        0.885562 
        3.28304         6.31624        0.875069 
        3.29877          6.2817        0.864759 
        3.31446         6.24925        0.854638 
        3.33014         6.17668        0.844688 
        3.34585         6.14276        0.834882 
        3.36158         6.08891        0.825217 
        3.37727         6.05235        0.815736 
        3.39294         6.01148        0.806412 
        3.40867         5.98032        0.797201 
        3.42439         5.90804        0.788139 
        3.44008         5.87332        0.779236 
        3.45578         5.83505        0.770464 
        3.47153         5.78551        0.761808 
        3.48724         5.74936          0.7533 
        3.50292          5.7077        0.744942 
        3.51859         5.67383        0.736715 
        3.53431         5.63553        0.728588 
        3.55007           5.597        0.720563 
        3.56577          5.5362         0.71269 
        3.58146         5.50867        0.704939 
        3.59719         5.47597        0.697286 
        3.61292         5.44302        0.689749 
        3.62859         5.40535        0.682351 
        3.64429         5.36635        0.675049 
        3.66003         5.33583        0.667831 
        3.67578          5.3063        0.660721 
        3.69146          5.2623        0.653742 
        3.70712         5.23249        0.646876 
        3.72284         5.19985        0.640084 
        3.73853         5.15165        0.633401 
        3.75422         5.11264        0.626811 
        3.76993         5.09834         0.62031 
        3.78564         5.05464        0.613903 
        3.80137           5.017        0.607577 
        3.81707         4.97367        0.601353 
        3.83279         4.95602        0.595212 
        3.84853         4.90496        0.589146 
        3.86424         4.87861        0.583177 
        3.87992         4.85859          0.5773 
        3.89561         4.82786        0.571503 
        3.91134         4.79056        0.565774 
        3.92704         4.74908        0.560131 
        3.94273          4.7251         0.55457 
        3.95845         4.69087        0.549074 
        3.97418         4.65936        0.543652 
        3.98988         4.62875        0.538311 
        4.00554         4.60555        0.533056 
        4.02125          4.5593        0.527856 
        4.03698         4.53792        0.522718 
        4.05268         4.49808         0.51766 
        4.06839         4.46914        0.512665 
         4.0841         4.43617        0.507738 
        4.09983         4.41349        0.502868 
        4.11555         4.37488        0.498065 
        4.13124         4.35308        0.493337 
        4.14693         4.33559        0.488667 
        4.16266          4.2935        0.484047 
        4.17839         4.26935        0.479489 
        4.19408         4.24404           0.475 
        4.20977         4.20924        0.470567 
        4.22551         4.17839         0.46618 
        4.24123         4.14147        0.461854 
        4.25691         4.12236        0.457594 
        4.27259         4.09531        0.453386 
        4.28831          4.0594        0.449224 
        4.30404         4.04322        0.445109 
        4.31974         4.00868        0.441055 
        4.33543           3.985        0.437054 
        4.35116         3.96469        0.433093 
        4.36688         3.94448        0.429183 
        4.38255         3.92243        0.425336 
        4.39825         3.89742        0.421527 
        4.41398         3.87093        0.417758 
         4.4297         3.85051        0.414038 
        4.44541         3.82361        0.410365 
        4.46111         3.78372        0.406739 
        4.47683         3.76432        0.403155 
        4.49251         3.74361        0.399621 
        4.50819          3.7243         0.39613 
         4.5239         3.69022        0.392676 
        4.53962         3.66275        0.389259 
        4.55535         3.65201        0.385881 
        4.57106         3.62498        0.382548 
        4.58678         3.59922        0.379254 
         4.6025         3.58571        0.375997 
        4.61821           3.555         0.37278 
        4.63391         3.52982        0.369604 
         4.6496         3.50929        0.366467 
        4.66532         3.49291        0.363362 
        4.68103         3.46971        0.360293 
        4.69673         3.45095        0.357263 
        4.71241         3.42837        0.354271 
        4.72811         3.40617        0.351309 
        4.74384          3.3966        0.348376 
        4.75955         3.36006        0.345482 
        4.77525         3.34293        0.342622 
        4.79096         3.32589        0.339791 
        4.80669         3.30115        0.336991 
         4.8224         3.28599        0.334225 
        4.83809         3.27125        0.331494 
        4.85379         3.24464        0.328791 
         4.8695         3.22674        0.326116 
        4.88521         3.20556        0.323472 
        4.90093         3.18948        0.320858 
        4.91663         3.17233        0.318274 
        4.93234         3.14911        0.315716 
        4.94807         3.13925        0.313185 
        4.96377          3.1149        0.310686 
        4.97943          3.1017         0.30822 
        4.99514         3.07852        0.305774 
        5.01086         3.05424        0.303353 
        5.02654         3.03936        0.300964 
        5.04227         3.02587        0.298594 
          5.058          3.0133        0.296248 
        5.07371         2.99147        0.293933 
        5.08942         2.96323        0.291641 
        5.10513         2.95577        0.289374 
        5.12084         2.93358         0.28713 
        5.13656         2.92095        0.284911 
        5.15225         2.90522        0.282718 
        5.16796         2.88614        0.280545 
        5.18369         2.86498        0.278393 
         5.1994          2.8508        0.276267 
        5.21509         2.83783        0.274166 
        5.23079         2.82559        0.272084 
        5.24649          2.8021        0.270025 
        5.26217         2.78701        0.267989 
        5.27788         2.77722        0.265971 
        5.29359         2.76185        0.263974 
        5.30933         2.75008        0.261994 
        5.32504         2.73319        0.260038 
        5.34073         2.71156        0.258104 
        5.35646         2.69683        0.256186 
        5.37218         2.68732        0.254287 
        5.38789         2.66936         0.25241 
        5.40357         2.65547        0.250554 
        5.41929          2.6437        0.248713 
        5.43502          2.6289        0.246891 
         5.4507         2.60473        0.245091 
        5.46639         2.59412        0.243308 
        5.48212         2.58476        0.241539 
        5.49786         2.56887        0.239786 
        5.51353         2.55283        0.238059 
        5.52921          2.5398        0.236347 
        5.54495         2.52494        0.234647 
        5.56066         2.50939        0.232965 
        5.57637         2.49998        0.231301 
        5.59207          2.4852        0.229654 
        5.60778         2.47827        0.228022 
        5.62346         2.45444        0.226409 
        5.63916         2.44829        0.224809 
        5.65487         2.42749        0.223225 
         5.6706         2.42309        0.221653 
        5.68633          2.4092        0.220097 
        5.70203         2.39433        0.218558 
        5.71773         2.38209        0.217035 
        5.73344         2.36644        0.215525 
        5.74916         2.35613        0.214028 
        5.76486         2.34596        0.212548 
        5.78054         2.32887        0.211083 
        5.79626         2.32061        0.209629 
          5.812          2.3019        0.208186 
         5.8277         2.29201        0.206762 
        5.84339         2.28677        0.205351 
        5.85911         2.27214         0.20395 
        5.87484         2.25894        0.202563 
        5.89053         2.25048        0.201191 
        5.90623         2.23795        0.199832 
        5.92195         2.22519        0.198482 
        5.93767          2.2167        0.197146 
        5.95336         2.20355        0.195824 
        5.96905         2.19435        0.194515 
        5.98476         2.17827        0.193216 
        6.00048         2.16817        0.191929 
        6.01617         2.15768        0.190655 
        6.03185          2.1466        0.189394 
        6.04756         2.13958        0.188142 
        6.06331         2.12913        0.186898 
        6.07903         2.11681        0.185668 
        6.09473         2.10452         0.18445 
        6.11044         2.09871        0.183243 
        6.12616          2.0862        0.182046 
        6.14186         2.07943        0.180861 
        6.15755         2.06538        0.179686 
        6.17326         2.05395        0.178522 
        6.18898         2.04675        0.177367 
        6.20467           2.032        0.176224 
        6.22036         2.02507        0.175091 
         6.2361         2.01523        0.173966 
         6.2518         2.00861        0.172852 
        6.26748         1.99754         0.17175 
        6.28319         1.98891        0.170655 
        6.29893         1.97772        0.169568 
        6.31463         1.96675        0.168493 
        6.33033         1.95611        0.167428 
        6.34604         1.94768        0.166371 
        6.36177         1.94159        0.165322 
        6.37747         1.93189        0.164284 
