# k  (h/Mpc)    Pcb(k)  (Mpc/h)^3    Pcb_linear(k) (Mpc/h)^3   ShotnoiseSubtracted = true
      0.0200456         11674.2         11909.9 
      0.0350414         8610.76         8894.25 
      0.0492313         6612.84         6696.02 
      0.0637834         5712.09         5623.77 
      0.0800726         4455.93         4385.95 
       0.096163         3148.34         3227.23 
       0.111083         2579.24         2671.05 
       0.126058         2379.44         2364.79 
       0.142273         2012.38          1942.7 
       0.158546         1705.67         1552.67 
        0.17375         1398.47         1357.15 
       0.188953         1349.93         1224.83 
       0.204907         1254.38          1053.5 
       0.220756         1072.75         896.403 
        0.23588          954.42          802.35 
         0.2514         835.411         730.242 
       0.267535         813.587           647.7 
       0.283568         738.929         571.499 
       0.299022         692.334         518.456 
       0.314451         653.737         475.974 
       0.330372         602.693         431.774 
       0.346141         551.129         391.129 
       0.361624          529.85         359.026 
       0.377134         493.396         331.944 
       0.392932         470.817         305.701 
       0.408854         452.904          281.18 
       0.424564          429.84         260.413 
       0.440253         417.161         242.318 
       0.455999         393.311         225.484 
       0.471626         368.006         210.038 
        0.48727         358.103         196.204 
       0.502856         346.723          183.87 
       0.518488         343.074         172.482 
       0.534347         321.958         161.793 
       0.550082         304.577         152.127 
       0.565732         301.797         143.365 
       0.581496         285.757         135.226 
       0.597222          279.95           127.7 
       0.612804          270.59         120.811 
       0.628434          260.78         114.438 
       0.644267         252.852         108.456 
       0.660051         249.068         102.917 
       0.675724         244.763         97.7983 
       0.691403         237.681         93.0252 
       0.707174         228.066         88.5455 
       0.722871         226.129         84.3801 
        0.73838         221.542         80.5285 
       0.754018         215.526         76.8894 
       0.769845         208.705         73.4365 
        0.78569         207.408         70.1937 
       0.801365         201.108         67.1798 
       0.817031         194.893         64.3461 
       0.832809         192.143         61.6589 
       0.848511         187.652         59.1383 
       0.864097         184.959         56.7767 
       0.879701         180.877         54.5427 
       0.895507         176.433         52.4033 
       0.911279         172.285         50.3839 
        0.92691         171.558         48.4882 
       0.942635         167.553         46.6802 
       0.958396         167.103         44.9612 
       0.974128         162.495         43.3323 
       0.989692         158.572         41.8008 
        1.00528         156.132         40.3415 
        1.02113         155.372         38.9293 
        1.03692         149.761         37.5904 
        1.05264          147.92          36.321 
        1.06832         145.118         35.1126 
        1.08405         143.193         33.9563 
        1.09979         142.634         32.8517 
        1.11537         137.923         31.8074 
        1.13105         137.293         30.8026 
        1.14679         136.365         29.8375 
        1.16256         134.164         28.9122 
        1.17828         131.063         28.0294 
        1.19395         129.573         27.1866 
         1.2097         127.484         26.3743 
        1.22537         126.472         25.5994 
          1.241         123.938         24.8581 
        1.25666         121.816         24.1445 
        1.27241         120.216         23.4556 
        1.28819         118.548         22.7927 
        1.30392         117.181         22.1574 
        1.31957         115.596         21.5493 
        1.33529         113.169         20.9619 
        1.35108         112.017         20.3941 
        1.36674         111.007         19.8516 
         1.3824         108.793         19.3294 
        1.39811         107.925         18.8243 
        1.41389         106.256         18.3355 
        1.42964         104.667         17.8649 
        1.44531         102.308         17.4132 
        1.46101         101.553         16.9762 
        1.47667         100.713         16.5556 
        1.49229         98.9527         16.1505 
        1.50793         98.1133         15.7585 
        1.52367         96.9386         15.3771 
        1.53953         95.2752         15.0057 
        1.55526         94.3775         14.6497 
        1.57092         93.5324         14.3067 
        1.58662         91.7563          13.974 
        1.60235         91.2632         13.6512 
        1.61809         89.7263         13.3385 
        1.63369         88.7732         13.0384 
        1.64941         87.9407         12.7455 
        1.66519         86.0884         12.4605 
        1.68085         85.4022         12.1863 
        1.69652         83.6376         11.9203 
        1.71228         83.5837         11.6608 
        1.72806         82.2811         11.4088 
        1.74368         81.3494         11.1668 
        1.75933         80.2105         10.9314 
        1.77505         79.5259         10.7017 
        1.79081         78.2011         10.4782 
         1.8065         77.5389         10.2621 
        1.82218         76.2049         10.0523 
        1.83797         75.6981         9.84695 
        1.85367         74.7504         9.64848 
        1.86928         74.5216         9.45669 
        1.88497         72.9068         9.26908 
        1.90073         71.9865         9.08589 
        1.91647         71.5911         8.90784 
        1.93218         70.5152         8.73494 
        1.94787          69.634         8.56691 
        1.96363         68.6087         8.40265 
        1.97935         68.3995         8.24304 
        1.99499         67.2091          8.0885 
        2.01064         66.8212         7.93771 
         2.0264         65.4361         7.78982 
        2.04216          64.831         7.64579 
        2.05781         64.1766         7.50632 
        2.07353         63.3331         7.36985 
        2.08928         62.5118         7.23648 
        2.10499         62.1699         7.10677 
        2.12065         61.4932         6.98065 
        2.13633         60.8638         6.85749 
        2.15211         60.4532         6.73651 
        2.16785         59.5774          6.6188 
        2.18349         59.1479         6.50465 
        2.19916         58.3357         6.39295 
        2.21489         57.9233         6.28352 
        2.23063         57.1771         6.17658 
         2.2463         56.6354         6.07262 
        2.26194         55.6217         5.97132 
        2.27765         55.2158         5.87181 
        2.29341         54.6997         5.77433 
        2.30914         53.8299         5.67926 
        2.32486         53.0997         5.58639 
        2.34061         52.6881         5.49545 
        2.35635         52.2016         5.40662 
        2.37203         51.4352         5.32006 
        2.38768         51.1038         5.23559 
        2.40339         50.4823         5.15264 
        2.41914         50.1897         5.07131 
        2.43483         49.6398         4.99202 
         2.4505         49.1261         4.91457 
        2.46622         48.6285          4.8385 
        2.48195         48.0564         4.76404 
        2.49759         47.3927         4.69154 
        2.51328         46.8813         4.62037 
        2.52906         46.4975         4.55023 
        2.54479         45.9533         4.48181 
        2.56049         45.3345         4.41493 
        2.57618          45.008         4.34948 
        2.59189         44.4721         4.28526 
        2.60758          44.076         4.22244 
        2.62325         43.5729         4.16096 
        2.63898         43.1769         4.10049 
        2.65468         42.5604         4.04136 
        2.67044         42.0626         3.98314 
        2.68618         41.8012          3.9262 
        2.70184         41.3646         3.87061 
        2.71755         41.1103         3.81595 
        2.73329         40.3785         3.76227 
        2.74897         40.0593          3.7098 
        2.76462         39.5095         3.65845 
        2.78034         39.3413         3.60786 
        2.79607         38.8332         3.55818 
        2.81179         38.4763         3.50949 
        2.82749         37.9488         3.46177 
        2.84321          37.692         3.41488 
        2.85893         37.2521         3.36888 
        2.87462         36.7528         3.32381 
        2.89033         36.4979         3.27952 
        2.90605         36.1826           3.236 
        2.92176         35.8928          3.1933 
        2.93747         35.5116         3.15139 
        2.95318         35.0446         3.11022 
        2.96891         34.6372         3.06977 
        2.98456         34.4172         3.03022 
        3.00023         33.9597         2.99132 
        3.01596         33.6223         2.95297 
        3.03164         33.4406         2.91541 
        3.04738         33.1019         2.87839 
         3.0631         32.7329         2.84203 
        3.07883           32.39          2.8063 
        3.09456         32.0826         2.77119 
        3.11026         31.7685         2.73673 
        3.12596         31.5032         2.70287 
        3.14163         31.1106         2.66966 
        3.15734         30.9049         2.63693 
        3.17308         30.5173         2.60467 
        3.18879         30.2236         2.57303 
        3.20447         29.9695         2.54198 
         3.2202         29.6545         2.51133 
         3.2359         29.3683         2.48125 
        3.25157         29.2541         2.45174 
        3.26729         28.9311         2.42261 
        3.28304           28.56         2.39391 
        3.29877         28.1767          2.3657 
        3.31446         28.0147         2.33801 
        3.33014         27.7677          2.3108 
        3.34585         27.5986         2.28397 
        3.36158         27.1642         2.25753 
        3.37727         26.9274         2.23159 
        3.39294         26.7729         2.20608 
        3.40867         26.4654         2.18089 
        3.42439         26.1602          2.1561 
        3.44008         25.9876         2.13174 
        3.45578          25.821         2.10774 
        3.47153         25.4506         2.08406 
        3.48724         25.2062         2.06079 
        3.50292         25.0922         2.03792 
        3.51859         24.7637         2.01542 
        3.53431         24.5866         1.99318 
        3.55007         24.3381         1.97123 
        3.56577           24.09         1.94969 
        3.58146         23.9896         1.92849 
        3.59719         23.6863         1.90755 
        3.61292         23.4619         1.88693 
        3.62859         23.2122         1.86669 
        3.64429         23.0171         1.84672 
        3.66003         22.8372         1.82697 
        3.67578         22.5756         1.80752 
        3.69146         22.3953         1.78843 
        3.70712         22.1577         1.76964 
        3.72284         22.0359         1.75106 
        3.73853         21.7781         1.73278 
        3.75422         21.5749         1.71475 
        3.76993          21.448         1.69697 
        3.78564         21.1957         1.67944 
        3.80137         21.0295         1.66213 
        3.81707         20.8266         1.64511 
        3.83279         20.6534         1.62831 
        3.84853          20.452         1.61171 
        3.86424         20.2849         1.59538 
        3.87992         20.1067         1.57931 
        3.89561         19.8989         1.56345 
        3.91134         19.7693         1.54778 
        3.92704         19.5844         1.53234 
        3.94273         19.4144         1.51712 
        3.95845         19.2068         1.50209 
        3.97418         19.0783         1.48726 
        3.98988         18.8769         1.47265 
        4.00554         18.7291         1.45827 
        4.02125         18.5823         1.44405 
        4.03698         18.3793         1.42999 
        4.05268         18.2387         1.41615 
        4.06839         18.0778         1.40249 
         4.0841         17.9588         1.38901 
        4.09983          17.726         1.37569 
        4.11555         17.6284         1.36254 
        4.13124         17.4924         1.34961 
        4.14693         17.2854         1.33684 
        4.16266         17.1588          1.3242 
        4.17839         17.0207         1.31173 
        4.19408         16.8573         1.29945 
        4.20977         16.7173         1.28732 
        4.22551         16.6116         1.27532 
        4.24123         16.4877         1.26348 
        4.25691         16.3526         1.25183 
        4.27259         16.1873         1.24032 
        4.28831          15.989         1.22893 
        4.30404         15.9208         1.21768 
        4.31974         15.7588         1.20659 
        4.33543         15.6394         1.19564 
        4.35116          15.508          1.1848 
        4.36688         15.4059         1.17411 
        4.38255         15.2491         1.16358 
        4.39825         15.1632         1.15316 
        4.41398         15.0318         1.14285 
         4.4297         14.8623         1.13268 
        4.44541         14.7809         1.12263 
        4.46111         14.6624         1.11271 
        4.47683         14.5342          1.1029 
        4.49251         14.4281         1.09323 
        4.50819         14.2991         1.08368 
         4.5239         14.2072         1.07423 
        4.53962         14.0578         1.06489 
        4.55535         13.9472         1.05565 
        4.57106         13.8374         1.04653 
        4.58678         13.7057         1.03752 
         4.6025         13.6082         1.02861 
        4.61821         13.5163         1.01981 
        4.63391         13.4098         1.01112 
         4.6496         13.2848         1.00254 
        4.66532         13.1554         0.99404 
        4.68103         13.0454        0.985646 
        4.69673         12.9966        0.977358 
        4.71241         12.8641        0.969173 
        4.72811          12.753        0.961068 
        4.74384         12.6613        0.953046 
        4.75955         12.5681        0.945128 
        4.77525         12.4558        0.937304 
        4.79096         12.3855        0.929559 
        4.80669         12.2868        0.921898 
         4.8224         12.1585        0.914332 
        4.83809         12.0996         0.90686 
        4.85379          11.983        0.899466 
         4.8695         11.9087        0.892149 
        4.88521          11.799        0.884916 
        4.90093         11.7173        0.877763 
        4.91663         11.6302        0.870695 
        4.93234         11.5305        0.863698 
        4.94807         11.4371        0.856773 
        4.96377         11.3499        0.849937 
        4.97943         11.2782         0.84319 
        4.99514         11.1899        0.836499 
        5.01086         11.1043        0.829875 
        5.02654         11.0158        0.823341 
        5.04227         10.9452        0.816857 
          5.058         10.8208         0.81044 
        5.07371         10.7849        0.804105 
        5.08942         10.6956        0.797837 
        5.10513            10.6        0.791635 
        5.12084         10.5353        0.785496 
        5.13656          10.486        0.779424 
        5.15225         10.3725        0.773425 
        5.16796         10.2827        0.767481 
        5.18369         10.2249        0.761593 
         5.1994         10.1291        0.755779 
        5.21509         10.0786         0.75003 
        5.23079         9.98943        0.744334 
        5.24649         9.91551        0.738702 
        5.26217         9.84489        0.733132 
        5.27788         9.77769        0.727612 
        5.29359         9.70691        0.722147 
        5.30933         9.60865        0.716731 
        5.32504          9.5586         0.71138 
        5.34073         9.51469        0.706089 
        5.35646         9.41272        0.700842 
        5.37218         9.34721        0.695647 
        5.38789         9.29626        0.690512 
        5.40357         9.23427        0.685436 
        5.41929         9.16164          0.6804 
        5.43502         9.07812        0.675413 
         5.4507         9.01859        0.670489 
        5.46639         8.95452        0.665613 
        5.48212         8.90011        0.660774 
        5.49786         8.83365        0.655978 
        5.51353         8.76111        0.651253 
        5.52921         8.71495        0.646569 
        5.54495         8.65586        0.641918 
        5.56066         8.57803        0.637318 
        5.57637         8.51325        0.632764 
        5.59207         8.47448        0.628259 
        5.60778         8.40747        0.623795 
        5.62346          8.3624        0.619381 
        5.63916         8.28883        0.615006 
        5.65487         8.23458        0.610671 
         5.6706         8.16451        0.606372 
        5.68633         8.11387        0.602114 
        5.70203         8.07156        0.597905 
        5.71773         8.01106        0.593737 
        5.73344         7.94355        0.589607 
        5.74916         7.89648        0.585512 
        5.76486         7.86219        0.581461 
        5.78054         7.78826        0.577456 
        5.79626         7.72436        0.573477 
          5.812         7.66511        0.569531 
         5.8277         7.62879        0.565634 
        5.84339         7.57493        0.561774 
        5.85911         7.52635        0.557942 
        5.87484         7.48111        0.554147 
        5.89053         7.42495        0.550394 
        5.90623          7.3665        0.546675 
        5.92195         7.32274        0.542983 
        5.93767         7.28131        0.539328 
        5.95336         7.22433        0.535712 
        5.96905          7.1795        0.532131 
        5.98476         7.12819        0.528578 
        6.00048         7.09299        0.525056 
        6.01617         7.03334        0.521571 
        6.03185         6.98653        0.518122 
        6.04756         6.94468        0.514695 
        6.06331         6.89582        0.511293 
        6.07903         6.85041        0.507928 
        6.09473         6.80064        0.504597 
        6.11044         6.74789        0.501292 
        6.12616         6.72037        0.498018 
        6.14186         6.67755        0.494777 
        6.15755         6.62941        0.491564 
        6.17326         6.57245        0.488378 
        6.18898          6.5366        0.485218 
        6.20467         6.49836        0.482092 
        6.22036         6.44791        0.478993 
         6.2361          6.3953        0.475914 
         6.2518         6.36464        0.472867 
        6.26748         6.32624        0.469853 
        6.28319         6.28353        0.466857 
        6.29893         6.23524        0.463885 
        6.31463         6.20966        0.460943 
        6.33033         6.16372        0.458028 
        6.34604         6.11902        0.455136 
        6.36177         6.09127        0.452267 
        6.37747          6.0524        0.449427 
