# k  (h/Mpc)    Pcb(k)  (Mpc/h)^3    Pcb_linear(k) (Mpc/h)^3   ShotnoiseSubtracted = true
      0.0200456         1233.61         1251.58 
      0.0350414         928.607         934.671 
      0.0492313         704.982         703.665 
      0.0637834         595.507         590.986 
      0.0800726         465.228         460.907 
       0.096163         338.021          339.14 
       0.111083         277.537         280.693 
       0.126058         249.268         248.509 
       0.142273         206.925         204.153 
       0.158546         166.229         163.165 
        0.17375          142.15         142.619 
       0.188953         130.289         128.714 
       0.204907         116.077         110.709 
       0.220756         97.3206         94.2004 
        0.23588         86.7265         84.3166 
         0.2514         78.0142         76.7391 
       0.267535          70.208         68.0649 
       0.283568         62.5436         60.0572 
       0.299022         57.1838          54.483 
       0.314451         51.4115         50.0187 
       0.330372          47.351         45.3739 
       0.346141         42.9564         41.1026 
       0.361624         39.8152         37.7291 
       0.377134         37.3309          34.883 
       0.392932         33.1384         32.1253 
       0.408854         31.6979         29.5484 
       0.424564         29.5172         27.3661 
       0.440253         27.2881         25.4645 
       0.455999         25.7138         23.6954 
       0.471626         24.1347         22.0723 
        0.48727         22.6722         20.6185 
       0.502856         21.1759         19.3224 
       0.518488         20.2285         18.1256 
       0.534347         19.3054         17.0023 
       0.550082         17.6574         15.9866 
       0.565732         16.3573         15.0658 
       0.581496         16.0235         14.2105 
       0.597222         15.3787         13.4196 
       0.612804         14.3261         12.6956 
       0.628434         13.8048         12.0259 
       0.644267         13.2556         11.3974 
       0.660051         12.5065         10.8153 
       0.675724         11.8808         10.2773 
       0.691403         11.4819         9.77575 
       0.707174         10.9316         9.30499 
       0.722871         10.4803         8.86726 
        0.73838         10.0841         8.46251 
       0.754018         9.73817         8.08008 
       0.769845         9.26543         7.71723 
        0.78569         8.96952         7.37646 
       0.801365         8.58528         7.05973 
       0.817031         8.31133         6.76195 
       0.832809         8.05464         6.47956 
       0.848511         7.59058         6.21467 
       0.864097         7.35052          5.9665 
       0.879701         7.11398         5.73174 
       0.895507         6.81028         5.50691 
       0.911279         6.71115         5.29469 
        0.92691         6.46495         5.09548 
       0.942635         6.18185         4.90549 
       0.958396         5.97995         4.72484 
       0.974128         5.82466         4.55367 
       0.989692         5.72442         4.39272 
        1.00528         5.47723         4.23937 
        1.02113         5.27627         4.09097 
        1.03692         5.18299         3.95027 
        1.05264         5.00723         3.81687 
        1.06832          4.8927         3.68988 
        1.08405         4.67621         3.56837 
        1.09979         4.58142         3.45229 
        1.11537          4.4756         3.34255 
        1.13105         4.35666         3.23695 
        1.14679         4.24653         3.13554 
        1.16256         4.11608          3.0383 
        1.17828         4.03175         2.94552 
        1.19395         3.92067         2.85696 
         1.2097         3.77007          2.7716 
        1.22537         3.68652         2.69017 
          1.241         3.61511         2.61226 
        1.25666         3.58797         2.53727 
        1.27241         3.43473         2.46488 
        1.28819         3.35843         2.39522 
        1.30392         3.30163         2.32846 
        1.31957         3.22783         2.26455 
        1.33529         3.14158         2.20282 
        1.35108          3.0702         2.14316 
        1.36674         3.00413         2.08615 
         1.3824         2.90612         2.03127 
        1.39811         2.85631          1.9782 
        1.41389         2.81021         1.92682 
        1.42964         2.74961         1.87737 
        1.44531         2.69509          1.8299 
        1.46101         2.64003         1.78398 
        1.47667         2.55791         1.73978 
        1.49229         2.53686         1.69721 
        1.50793         2.46977         1.65602 
        1.52367         2.44318         1.61593 
        1.53953          2.3666         1.57691 
        1.55526         2.32043         1.53949 
        1.57092         2.28491         1.50345 
        1.58662         2.24048         1.46848 
        1.60235         2.19436         1.43457 
        1.61809         2.15184         1.40171 
        1.63369         2.12641         1.37017 
        1.64941         2.07549         1.33939 
        1.66519         2.04449         1.30944 
        1.68085         1.98894         1.28063 
        1.69652         1.95863         1.25267 
        1.71228         1.93439          1.2254 
        1.72806         1.88565         1.19892 
        1.74368         1.86181         1.17349 
        1.75933         1.82202         1.14875 
        1.77505          1.7961         1.12461 
        1.79081         1.76525         1.10113 
         1.8065         1.73149         1.07842 
        1.82218         1.71259         1.05637 
        1.83797         1.68862         1.03479 
        1.85367         1.66483         1.01393 
        1.86928         1.63714        0.993776 
        1.88497         1.59805        0.974061 
        1.90073         1.56899         0.95481 
        1.91647         1.55577        0.936099 
        1.93218           1.534         0.91793 
        1.94787         1.50213        0.900272 
        1.96363         1.47833         0.88301 
        1.97935         1.45385        0.866237 
        1.99499         1.42694        0.849997 
        2.01064         1.40958        0.834151 
         2.0264          1.4004         0.81861 
        2.04216         1.37325        0.803474 
        2.05781         1.35079        0.788818 
        2.07353         1.33573        0.774476 
        2.08928         1.31114         0.76046 
        2.10499         1.29383         0.74683 
        2.12065         1.28495        0.733576 
        2.13633         1.25955        0.720634 
        2.15211         1.23813         0.70792 
        2.16785         1.22036         0.69555 
        2.18349         1.20861        0.683554 
        2.19916         1.18634        0.671817 
        2.21489           1.169        0.660317 
        2.23063         1.15385        0.649079 
         2.2463         1.14602        0.638154 
        2.26194         1.11889        0.627509 
        2.27765         1.10712        0.617052 
        2.29341         1.09778        0.606807 
        2.30914         1.08761        0.596817 
        2.32486         1.07077        0.587057 
        2.34061         1.05445          0.5775 
        2.35635         1.03718        0.568166 
        2.37203         1.02835         0.55907 
        2.38768          1.0168        0.550193 
        2.40339         1.00522        0.541476 
        2.41914        0.993025        0.532929 
        2.43483        0.978482        0.524597 
         2.4505        0.964771        0.516458 
        2.46622        0.953497        0.508464 
        2.48195        0.948202        0.500639 
        2.49759        0.933511         0.49302 
        2.51328        0.918179        0.485541 
        2.52906        0.909286         0.47817 
        2.54479        0.900509         0.47098 
        2.56049         0.88777        0.463952 
        2.57618        0.880356        0.457074 
        2.59189        0.869247        0.450326 
        2.60758        0.858756        0.443724 
        2.62325        0.849179        0.437263 
        2.63898        0.842327        0.430909 
        2.65468        0.832135        0.424695 
        2.67044        0.820365        0.418576 
        2.68618        0.810066        0.412593 
        2.70184        0.801017        0.406751 
        2.71755        0.793283        0.401007 
        2.73329        0.786591        0.395366 
        2.74897        0.777534        0.389852 
        2.76462        0.768285        0.384456 
        2.78034         0.76205         0.37914 
        2.79607        0.752921        0.373919 
        2.81179        0.743378        0.368802 
        2.82749        0.739237        0.363787 
        2.84321        0.732242         0.35886 
        2.85893        0.722104        0.354026 
        2.87462        0.716506        0.349289 
        2.89033        0.706076        0.344635 
        2.90605        0.701326        0.340062 
        2.92176        0.693164        0.335574 
        2.93747        0.687486         0.33117 
        2.95318        0.680863        0.326844 
        2.96891        0.674228        0.322593 
        2.98456        0.669694        0.318437 
        3.00023         0.66167        0.314349 
        3.01596        0.655323        0.310319 
        3.03164        0.649798        0.306372 
        3.04738        0.639247        0.302482 
         3.0631        0.637471        0.298661 
        3.07883         0.63006        0.294906 
        3.09456        0.623175        0.291216 
        3.11026        0.618348        0.287595 
        3.12596         0.61213        0.284037 
        3.14163        0.607307        0.280546 
        3.15734        0.604456        0.277107 
        3.17308        0.595467        0.273717 
        3.18879        0.590488        0.270393 
        3.20447        0.585502        0.267129 
         3.2202        0.581385        0.263909 
         3.2359         0.57632        0.260748 
        3.25157        0.570175        0.257646 
        3.26729        0.568122        0.254585 
        3.28304        0.560206        0.251569 
        3.29877        0.555161        0.248605 
        3.31446        0.551809        0.245695 
        3.33014        0.547839        0.242835 
        3.34585        0.543774        0.240016 
        3.36158        0.537824        0.237237 
        3.37727        0.534826        0.234511 
        3.39294        0.530742        0.231831 
        3.40867        0.525906        0.229183 
        3.42439        0.520855        0.226578 
        3.44008        0.519201        0.224018 
        3.45578        0.515445        0.221496 
        3.47153        0.509762        0.219008 
        3.48724        0.507914        0.216562 
        3.50292        0.504443        0.214159 
        3.51859        0.498698        0.211794 
        3.53431        0.496336        0.209458 
        3.55007        0.493896        0.207151 
        3.56577        0.487995        0.204887 
        3.58146        0.484448        0.202659 
        3.59719        0.482569        0.200459 
        3.61292        0.479096        0.198292 
        3.62859        0.472817        0.196165 
        3.64429        0.472181        0.194066 
        3.66003        0.467805        0.191991 
        3.67578        0.463691        0.189947 
        3.69146        0.461628        0.187941 
        3.70712        0.457806        0.185967 
        3.72284        0.454639        0.184014 
        3.73853        0.451979        0.182093 
        3.75422        0.447358        0.180199 
        3.76993        0.446413        0.178329 
        3.78564        0.442651        0.176488 
        3.80137        0.438837        0.174669 
        3.81707        0.438093         0.17288 
        3.83279        0.433071        0.171114 
        3.84853        0.429724         0.16937 
        3.86424        0.427327        0.167654 
        3.87992        0.424929        0.165965 
        3.89561        0.421918        0.164298 
        3.91134        0.419889        0.162651 
        3.92704        0.415667        0.161029 
        3.94273        0.413537         0.15943 
        3.95845        0.411096         0.15785 
        3.97418        0.407423        0.156292 
        3.98988        0.404848        0.154756 
        4.00554        0.401362        0.153245 
        4.02125         0.39821        0.151751 
        4.03698        0.394918        0.150273 
        4.05268        0.391885        0.148819 
        4.06839        0.388161        0.147383 
         4.0841        0.384069        0.145967 
        4.09983         0.38098        0.144567 
        4.11555        0.377403        0.143186 
        4.13124        0.373844        0.141827 
        4.14693        0.371125        0.140484 
        4.16266        0.367823        0.139156 
        4.17839         0.36519        0.137846 
        4.19408        0.362262        0.136555 
        4.20977        0.360453        0.135281 
        4.22551        0.357071         0.13402 
        4.24123        0.354272        0.132776 
        4.25691        0.352114        0.131551 
        4.27259        0.349627        0.130342 
        4.28831        0.347228        0.129145 
        4.30404        0.343992        0.127962 
        4.31974        0.342114        0.126797 
        4.33543        0.339986        0.125646 
        4.35116        0.338332        0.124508 
        4.36688         0.33603        0.123383 
        4.38255        0.333856        0.122277 
        4.39825        0.331665        0.121182 
        4.41398        0.329561        0.120099 
         4.4297        0.327796         0.11903 
        4.44541        0.326291        0.117974 
        4.46111        0.324683        0.116931 
        4.47683        0.323486        0.115901 
        4.49251        0.320705        0.114885 
        4.50819        0.318863        0.113881 
         4.5239        0.318556        0.112888 
        4.53962        0.316604        0.111906 
        4.55535        0.315944        0.110935 
        4.57106        0.314161        0.109977 
        4.58678        0.312735         0.10903 
         4.6025        0.311053        0.108093 
        4.61821        0.309848        0.107168 
        4.63391        0.308933        0.106256 
         4.6496        0.307716        0.105354 
        4.66532        0.306418        0.104461 
        4.68103        0.306165        0.103579 
        4.69673        0.305121        0.102708 
        4.71241        0.304316        0.101848 
        4.72811        0.303265        0.100996 
        4.74384        0.302958        0.100153 
        4.75955        0.302202       0.0993207 
        4.77525        0.300966       0.0984985 
        4.79096        0.300727       0.0976847 
        4.80669        0.300022       0.0968796 
         4.8224        0.299153       0.0960846 
        4.83809        0.298951       0.0952993 
        4.85379        0.298927       0.0945223 
         4.8695        0.297828       0.0937533 
        4.88521        0.297254       0.0929933 
        4.90093        0.298044       0.0922416 
        4.91663        0.297819       0.0914989 
        4.93234        0.296446       0.0907635 
        4.94807        0.297085       0.0900358 
        4.96377        0.297311       0.0893174 
        4.97943         0.29729       0.0886084 
        4.99514        0.296868       0.0879052 
        5.01086        0.297271       0.0872092 
        5.02654        0.296894       0.0865225 
        5.04227        0.296681       0.0858411 
          5.058        0.297132       0.0851668 
        5.07371        0.296863       0.0845011 
        5.08942        0.298446       0.0838424 
        5.10513        0.297692       0.0831906 
        5.12084        0.298403       0.0825455 
        5.13656        0.299295       0.0819074 
        5.15225        0.299177        0.081277 
        5.16796        0.300861       0.0806523 
        5.18369        0.300483       0.0800336 
         5.1994        0.301247       0.0794226 
        5.21509        0.301762       0.0788184 
        5.23079        0.302545       0.0782199 
        5.24649        0.303396        0.077628 
        5.26217        0.303308       0.0770427 
        5.27788          0.3042       0.0764626 
        5.29359        0.305125       0.0758884 
        5.30933        0.306643       0.0753192 
        5.32504        0.306475       0.0747569 
        5.34073        0.307906       0.0742009 
        5.35646        0.308946       0.0736494 
        5.37218        0.309903       0.0731035 
        5.38789        0.311059        0.072564 
        5.40357         0.31291       0.0720305 
        5.41929        0.312161       0.0715012 
        5.43502        0.313512       0.0709772 
         5.4507        0.314997       0.0704597 
        5.46639        0.316502       0.0699473 
        5.48212        0.317974       0.0694388 
        5.49786        0.318588       0.0689348 
        5.51353        0.321597       0.0684382 
        5.52921        0.321422       0.0679461 
        5.54495        0.322756       0.0674574 
        5.56066        0.325333        0.066974 
        5.57637        0.325599       0.0664954 
        5.59207        0.327589       0.0660219 
        5.60778        0.328976       0.0655528 
        5.62346        0.330482        0.065089 
        5.63916        0.331427       0.0646292 
        5.65487        0.333656       0.0641736 
         5.6706        0.334504       0.0637219 
        5.68633         0.33823       0.0632744 
        5.70203        0.338792       0.0628321 
        5.71773         0.34104       0.0623941 
        5.73344        0.341733       0.0619601 
        5.74916        0.343454       0.0615297 
        5.76486        0.345668       0.0611041 
        5.78054          0.3475       0.0606832 
        5.79626        0.347881        0.060265 
          5.812        0.351235       0.0598504 
         5.8277        0.351698       0.0594408 
        5.84339        0.354409       0.0590352 
        5.85911        0.354782       0.0586325 
        5.87484        0.357036       0.0582337 
        5.89053        0.360096       0.0578393 
        5.90623        0.361404       0.0574485 
        5.92195        0.363351       0.0570605 
        5.93767        0.365652       0.0566764 
        5.95336        0.365901       0.0562965 
        5.96905        0.369579       0.0559201 
        5.98476        0.370435       0.0555467 
        6.00048        0.373775       0.0551766 
        6.01617        0.373638       0.0548104 
        6.03185        0.376085       0.0544479 
        6.04756        0.378879       0.0540878 
        6.06331         0.37967       0.0537303 
        6.07903         0.38273       0.0533767 
        6.09473        0.384335       0.0530266 
        6.11044        0.386573       0.0526794 
        6.12616        0.387708       0.0523353 
        6.14186        0.391039       0.0519946 
        6.15755        0.392215        0.051657 
        6.17326         0.39398       0.0513222 
        6.18898        0.397388       0.0509901 
        6.20467        0.399597       0.0506616 
        6.22036        0.398312        0.050336 
         6.2361        0.400643       0.0500124 
         6.2518        0.403134       0.0496922 
        6.26748         0.40471       0.0493755 
        6.28319         0.40769       0.0490606 
        6.29893        0.409286       0.0487483 
        6.31463        0.411924       0.0484392 
        6.33033        0.413174       0.0481329 
        6.34604        0.414535        0.047829 
        6.36177        0.416358       0.0475274 
        6.37747        0.419254        0.047229 
