# k  (h/Mpc)    Pcb(k)  (Mpc/h)^3    Pcb_linear(k) (Mpc/h)^3   ShotnoiseSubtracted = true
      0.0200456         7085.27         7184.37 
      0.0350414         5481.59         5365.24 
      0.0492313         4015.41         4039.21 
      0.0637834         3292.23         3392.41 
      0.0800726         2561.83         2645.72 
       0.096163         2000.61         1946.75 
       0.111083         1674.41         1611.25 
       0.126058         1407.43          1426.5 
       0.142273         1176.66         1171.89 
       0.158546         971.127         936.608 
        0.17375         863.883          818.67 
       0.188953         789.051         738.852 
       0.204907         661.728           635.5 
       0.220756          592.34         540.734 
        0.23588         531.268         483.998 
         0.2514         477.882         440.501 
       0.267535         454.539         390.709 
       0.283568         396.628         344.743 
       0.299022         376.386         312.746 
       0.314451         370.473          287.12 
       0.330372         320.213         260.458 
       0.346141          296.66         235.939 
       0.361624         281.195         216.574 
       0.377134         259.002         200.237 
       0.392932         252.489         184.407 
       0.408854         238.305         169.615 
       0.424564         228.376         157.088 
       0.440253         206.549         146.172 
       0.455999         195.193         136.018 
       0.471626         190.895           126.7 
        0.48727         183.655         118.355 
       0.502856         167.889         110.915 
       0.518488         166.064         104.045 
       0.534347         155.351         97.5976 
       0.550082         151.782          91.767 
       0.565732         148.902         86.4817 
       0.581496         137.744         81.5721 
       0.597222         134.648          77.032 
       0.612804          130.49         72.8761 
       0.628434         126.694         69.0318 
       0.644267         120.422         65.4237 
       0.660051         116.646         62.0824 
       0.675724             115         58.9945 
       0.691403          112.21         56.1153 
       0.707174         108.442          53.413 
       0.722871         106.345         50.9003 
        0.73838         103.603         48.5769 
       0.754018         97.4963         46.3817 
       0.769845         96.9217         44.2989 
        0.78569         94.0908         42.3427 
       0.801365         91.3664         40.5246 
       0.817031         88.3618         38.8153 
       0.832809         86.8392         37.1943 
       0.848511            84.8         35.6737 
       0.864097         83.3545         34.2492 
       0.879701         81.7896         32.9016 
       0.895507         78.7401         31.6111 
       0.911279         77.7245         30.3929 
        0.92691         75.3479         29.2494 
       0.942635          73.875         28.1587 
       0.958396         73.5496         27.1218 
       0.974128         71.7931         26.1392 
       0.989692          70.138         25.2153 
        1.00528         68.8246          24.335 
        1.02113         67.3512         23.4832 
        1.03692         67.0513         22.6755 
        1.05264         65.7064         21.9098 
        1.06832         63.8159         21.1809 
        1.08405         62.9773         20.4833 
        1.09979         62.5715          19.817 
        1.11537         60.8627         19.1871 
        1.13105         59.5219         18.5809 
        1.14679         58.8543         17.9988 
        1.16256         57.9154         17.4406 
        1.17828         57.2553          16.908 
        1.19395         55.7894         16.3996 
         1.2097          55.862         15.9097 
        1.22537         54.5543         15.4422 
          1.241         53.8468         14.9951 
        1.25666         52.5952         14.5646 
        1.27241         52.4484         14.1491 
        1.28819         51.3488         13.7491 
        1.30392         50.7309         13.3659 
        1.31957         50.3258         12.9991 
        1.33529         49.4442         12.6447 
        1.35108         48.5611         12.3023 
        1.36674         48.0273          11.975 
         1.3824         47.2728           11.66 
        1.39811         46.5062         11.3553 
        1.41389         45.8893         11.0604 
        1.42964         45.5269         10.7766 
        1.44531         44.5685         10.5041 
        1.46101         44.3476         10.2405 
        1.47667         43.7313          9.9868 
        1.49229         43.0829          9.7424 
        1.50793         42.6162         9.50594 
        1.52367         42.0047         9.27584 
        1.53953         41.6857         9.05185 
        1.55526         41.0781         8.83708 
        1.57092         40.5682         8.63019 
        1.58662         39.9912         8.42947 
        1.60235         39.5248         8.23477 
        1.61809         39.0346         8.04614 
        1.63369          38.584         7.86513 
        1.64941         38.1156         7.68841 
        1.66519           37.51         7.51651 
        1.68085         37.0841         7.35111 
        1.69652         36.6394         7.19065 
        1.71228         36.4251          7.0341 
        1.72806         35.8093          6.8821 
        1.74368         35.3934         6.73613 
        1.75933         35.1186         6.59413 
        1.77505         34.8854         6.45556 
        1.79081         34.3815         6.32075 
         1.8065         33.8146         6.19038 
        1.82218         33.4201         6.06382 
        1.83797         33.2189         5.93994 
        1.85367         32.7086         5.82021 
        1.86928         32.7429         5.70452 
        1.88497         31.9994         5.59135 
        1.90073         31.7795         5.48085 
        1.91647         31.5502         5.37344 
        1.93218         31.4551         5.26915 
        1.94787         31.0073         5.16779 
        1.96363         30.4805          5.0687 
        1.97935          30.203         4.97242 
        1.99499         30.0067         4.87919 
        2.01064         29.5586         4.78823 
         2.0264          29.256         4.69903 
        2.04216         29.1211         4.61214 
        2.05781         28.7875         4.52801 
        2.07353          28.479         4.44569 
        2.08928         28.1028         4.36523 
        2.10499          27.911         4.28699 
        2.12065         27.5844         4.21091 
        2.13633         27.3616         4.13662 
        2.15211         26.9077         4.06364 
        2.16785         26.7971         3.99263 
        2.18349         26.4895         3.92377 
        2.19916         26.2244          3.8564 
        2.21489         25.9497         3.79038 
        2.23063         25.8424         3.72588 
         2.2463         25.5056         3.66316 
        2.26194         25.2573         3.60206 
        2.27765         24.9436         3.54203 
        2.29341         24.7129         3.48322 
        2.30914         24.4686         3.42588 
        2.32486          24.279         3.36986 
        2.34061         24.0856           3.315 
        2.35635         23.7196         3.26141 
        2.37203          23.595          3.2092 
        2.38768         23.4132         3.15824 
        2.40339         23.2565         3.10821 
        2.41914         22.9463         3.05915 
        2.43483         22.8185         3.01132 
         2.4505         22.4327          2.9646 
        2.46622         22.2865         2.91871 
        2.48195         22.0685         2.87379 
        2.49759         21.7489         2.83006 
        2.51328         21.6807         2.78713 
        2.52906         21.5253         2.74482 
        2.54479         21.2703         2.70354 
        2.56049         21.1631          2.6632 
        2.57618         21.0203         2.62372 
        2.59189         20.6262         2.58498 
        2.60758         20.5025         2.54709 
        2.62325         20.3094            2.51 
        2.63898         20.1497         2.47353 
        2.65468         19.9802         2.43785 
        2.67044         19.7168         2.40273 
        2.68618         19.5962         2.36839 
        2.70184         19.3835         2.33485 
        2.71755          19.208         2.30188 
        2.73329         19.0409          2.2695 
        2.74897         18.8983         2.23785 
        2.76462         18.7473         2.20687 
        2.78034         18.4839         2.17636 
        2.79607         18.3734         2.14639 
        2.81179         18.2074         2.11702 
        2.82749         18.0257         2.08823 
        2.84321         17.9317         2.05995 
        2.85893          17.655          2.0322 
        2.87462         17.5884         2.00501 
        2.89033          17.423         1.97829 
        2.90605         17.2448         1.95204 
        2.92176         17.0597         1.92628 
        2.93747         16.9253           1.901 
        2.95318         16.8153         1.87617 
        2.96891         16.6315         1.85177 
        2.98456         16.5461         1.82791 
        3.00023         16.3355         1.80444 
        3.01596         16.2289         1.78131 
        3.03164         16.0562         1.75865 
        3.04738         15.9287         1.73632 
         3.0631         15.8221         1.71439 
        3.07883         15.7002         1.69283 
        3.09456         15.5557         1.67165 
        3.11026         15.4449         1.65087 
        3.12596         15.2786         1.63044 
        3.14163         15.1254         1.61041 
        3.15734         14.9928         1.59066 
        3.17308         14.9203          1.5712 
        3.18879          14.709         1.55212 
        3.20447         14.6608         1.53339 
         3.2202         14.4983          1.5149 
         3.2359         14.3898         1.49676 
        3.25157         14.3119         1.47895 
        3.26729         14.1239         1.46138 
        3.28304         14.0296         1.44407 
        3.29877         13.9685         1.42705 
        3.31446         13.8039         1.41035 
        3.33014         13.7132         1.39393 
        3.34585         13.5345         1.37775 
        3.36158         13.4455          1.3618 
        3.37727         13.3673         1.34615 
        3.39294         13.2578         1.33077 
        3.40867         13.0933         1.31557 
        3.42439         13.0019         1.30061 
        3.44008         12.9385         1.28592 
        3.45578         12.7558         1.27144 
        3.47153          12.682         1.25716 
        3.48724         12.6252         1.24312 
        3.50292         12.5102         1.22933 
        3.51859         12.3982         1.21575 
        3.53431          12.239         1.20234 
        3.55007         12.2002          1.1891 
        3.56577         12.0718          1.1761 
        3.58146         11.9454         1.16331 
        3.59719         11.8618         1.15068 
        3.61292         11.7913         1.13825 
        3.62859         11.6801         1.12604 
        3.64429         11.5991         1.11399 
        3.66003         11.4869         1.10208 
        3.67578         11.3942         1.09034 
        3.69146         11.3292         1.07883 
        3.70712         11.2021          1.0675 
        3.72284         11.1374         1.05629 
        3.73853         11.0445         1.04526 
        3.75422         10.9431         1.03438 
        3.76993         10.8396         1.02366 
        3.78564          10.779         1.01308 
        3.80137         10.6844         1.00264 
        3.81707         10.6046        0.992373 
        3.83279         10.5096        0.982238 
        3.84853         10.4436        0.972228 
        3.86424         10.3406        0.962378 
        3.87992         10.2922        0.952678 
        3.89561         10.1937        0.943113 
        3.91134         10.1087        0.933659 
        3.92704         10.0243        0.924346 
        3.94273         9.93898        0.915169 
        3.95845         9.86418          0.9061 
        3.97418         9.78559        0.897153 
        3.98988          9.7465        0.888338 
        4.00554         9.65037        0.879667 
        4.02125         9.58219        0.871086 
        4.03698         9.50525        0.862606 
        4.05268         9.42706        0.854259 
        4.06839         9.32541        0.846016 
         4.0841         9.24668        0.837885 
        4.09983         9.20057        0.829849 
        4.11555         9.08664        0.821923 
        4.13124         9.04151        0.814121 
        4.14693         8.95445        0.806414 
        4.16266         8.90832         0.79879 
        4.17839         8.81412        0.791268 
        4.19408         8.78259        0.783861 
        4.20977          8.6602        0.776545 
        4.22551         8.62303        0.769306 
        4.24123         8.58495        0.762166 
        4.25691         8.50971        0.755136 
        4.27259         8.41709        0.748193 
        4.28831         8.35433        0.741323 
        4.30404         8.32619        0.734534 
        4.31974         8.23593        0.727844 
        4.33543         8.19062        0.721241 
        4.35116         8.08257        0.714705 
        4.36688         8.04583        0.708252 
        4.38255         8.00007        0.701903 
        4.39825         7.90639        0.695618 
        4.41398         7.86919        0.689397 
         4.4297         7.80645         0.68326 
        4.44541         7.75462        0.677198 
        4.46111          7.6956        0.671214 
        4.47683         7.64052        0.665299 
        4.49251         7.57755        0.659467 
        4.50819         7.51614        0.653706 
         4.5239         7.44991        0.648007 
        4.53962         7.39796        0.642368 
        4.55535         7.34687        0.636793 
        4.57106         7.30263        0.631293 
        4.58678         7.24536        0.625857 
         4.6025         7.18556        0.620483 
        4.61821         7.14071        0.615174 
        4.63391         7.08285        0.609933 
         4.6496         7.03238        0.604756 
        4.66532         6.98579        0.599631 
        4.68103         6.92259        0.594568 
        4.69673         6.86916        0.589568 
        4.71241         6.82432         0.58463 
        4.72811         6.78681        0.579741 
        4.74384         6.74915        0.574902 
        4.75955         6.68839        0.570126 
        4.77525         6.63882        0.565406 
        4.79096         6.59784        0.560734 
        4.80669         6.52472        0.556113 
         4.8224         6.48996        0.551549 
        4.83809         6.43507        0.547042 
        4.85379         6.39188        0.542582 
         4.8695         6.35615        0.538168 
        4.88521         6.30768        0.533805 
        4.90093         6.26111         0.52949 
        4.91663         6.20814        0.525226 
        4.93234         6.17319        0.521005 
        4.94807         6.11795        0.516828 
        4.96377         6.08284        0.512704 
        4.97943         6.02714        0.508634 
        4.99514         5.99631        0.504598 
        5.01086         5.96465        0.500603 
        5.02654         5.91582        0.496661 
        5.04227         5.87355         0.49275 
          5.058         5.82155        0.488879 
        5.07371         5.78267        0.485057 
        5.08942         5.73816        0.481276 
        5.10513         5.71175        0.477535 
        5.12084         5.67212        0.473832 
        5.13656         5.61173        0.470169 
        5.15225         5.58519         0.46655 
        5.16796         5.54759        0.462965 
        5.18369         5.50371        0.459413 
         5.1994         5.46531        0.455905 
        5.21509         5.43475        0.452438 
        5.23079         5.40103        0.449002 
        5.24649           5.359        0.445604 
        5.26217          5.3307        0.442244 
        5.27788         5.28689        0.438914 
        5.29359         5.24625        0.435618 
        5.30933         5.22254        0.432351 
        5.32504         5.17737        0.429123 
        5.34073         5.15055        0.425932 
        5.35646         5.11036        0.422766 
        5.37218         5.06433        0.419632 
        5.38789         5.03917        0.416535 
        5.40357          4.9991        0.413473 
        5.41929         4.96886        0.410435 
        5.43502         4.92884        0.407427 
         5.4507         4.91256        0.404456 
        5.46639         4.87112        0.401515 
        5.48212         4.83975        0.398596 
        5.49786         4.81104        0.395703 
        5.51353         4.78008        0.392853 
        5.52921         4.75145        0.390028 
        5.54495         4.70954        0.387222 
        5.56066         4.67145        0.384447 
        5.57637         4.64447          0.3817 
        5.59207         4.62563        0.378982 
        5.60778         4.58661         0.37629 
        5.62346          4.5568        0.373627 
        5.63916         4.51633        0.370988 
        5.65487         4.49876        0.368373 
         5.6706         4.47384         0.36578 
        5.68633         4.44588        0.363211 
        5.70203         4.40791        0.360672 
        5.71773         4.38503        0.358158 
        5.73344         4.34728        0.355666 
        5.74916          4.3362        0.353196 
        5.76486         4.29066        0.350753 
        5.78054         4.28497        0.348336 
        5.79626         4.24499        0.345936 
          5.812         4.21831        0.343556 
         5.8277         4.19255        0.341205 
        5.84339         4.16446        0.338877 
        5.85911         4.13439        0.336565 
        5.87484         4.11439        0.334276 
        5.89053         4.08566        0.332012 
        5.90623         4.06715        0.329769 
        5.92195         4.03562        0.327542 
        5.93767         4.00759        0.325337 
        5.95336         3.98822        0.323156 
        5.96905         3.95715        0.320996 
        5.98476         3.94242        0.318852 
        6.00048         3.91287        0.316728 
        6.01617         3.88856        0.314625 
        6.03185         3.86162        0.312545 
        6.04756         3.83371        0.310478 
        6.06331         3.81488        0.308425 
        6.07903          3.7899        0.306395 
        6.09473         3.77025        0.304386 
        6.11044         3.74753        0.302393 
        6.12616         3.72229        0.300418 
        6.14186         3.69999        0.298462 
        6.15755         3.67543        0.296524 
        6.17326          3.6549        0.294602 
        6.18898         3.62811        0.292696 
        6.20467          3.6074         0.29081 
        6.22036         3.58494        0.288941 
         6.2361         3.56692        0.287084 
         6.2518         3.55241        0.285246 
        6.26748         3.52523        0.283428 
        6.28319         3.49955         0.28162 
        6.29893         3.48082        0.279827 
        6.31463          3.4532        0.278053 
        6.33033         3.44644        0.276295 
        6.34604         3.42542         0.27455 
        6.36177         3.40471        0.272819 
        6.37747         3.38032        0.271106 
