# k  (h/Mpc)    Pcb(k)  (Mpc/h)^3    Pcb_linear(k) (Mpc/h)^3   ShotnoiseSubtracted = true
      0.0200456         18878.4         19202.1 
      0.0350414         14749.9           14340 
      0.0492313         10560.2         10795.8 
      0.0637834         8595.14         9067.08 
      0.0800726         6662.09         7071.37 
       0.096163         5373.78         5203.19 
       0.111083         4504.53         4306.47 
       0.126058          3726.6          3812.7 
       0.142273         3200.24         3132.17 
       0.158546         2648.66         2503.33 
        0.17375         2396.29         2188.11 
       0.188953          2258.8         1974.77 
       0.204907         1930.92         1698.54 
       0.220756          1745.2         1445.25 
        0.23588         1569.77         1293.61 
         0.2514         1420.66         1177.35 
       0.267535         1371.87         1044.27 
       0.283568         1219.31         921.415 
       0.299022         1168.07         835.895 
       0.314451         1212.38         767.402 
       0.330372         1065.25          696.14 
       0.346141          981.29         630.608 
       0.361624         943.322          578.85 
       0.377134         902.019         535.186 
       0.392932         866.147         492.876 
       0.408854          828.01         453.341 
       0.424564          810.31         419.859 
       0.440253         749.479         390.684 
       0.455999          717.93         363.542 
       0.471626         731.576         338.639 
        0.48727         691.591         316.335 
       0.502856         657.009          296.45 
       0.518488         644.859         278.088 
       0.534347          613.49         260.855 
       0.550082         587.512         245.271 
       0.565732         581.374         231.145 
       0.581496         569.496         218.022 
       0.597222         555.581         205.888 
       0.612804         544.243          194.78 
       0.628434         522.059         184.505 
       0.644267         506.447         174.862 
       0.660051         500.409         165.931 
       0.675724         491.409         157.678 
       0.691403         479.521         149.982 
       0.707174         463.341          142.76 
       0.722871         456.168         136.044 
        0.73838         450.273         129.834 
       0.754018         436.854         123.967 
       0.769845         432.861           118.4 
        0.78569         424.402         113.172 
       0.801365         410.569         108.313 
       0.817031          407.24         103.744 
       0.832809         401.795         99.4113 
       0.848511         393.462         95.3473 
       0.864097         384.825         91.5399 
       0.879701         382.077          87.938 
       0.895507         368.918         84.4887 
       0.911279         363.293         81.2328 
        0.92691         359.963         78.1764 
       0.942635         357.446         75.2615 
       0.958396         345.156         72.4899 
       0.974128         342.046         69.8638 
       0.989692         330.027         67.3945 
        1.00528         329.548         65.0416 
        1.02113         324.044         62.7649 
        1.03692         318.474         60.6062 
        1.05264         313.385         58.5596 
        1.06832         310.153         56.6113 
        1.08405         305.456          54.747 
        1.09979         301.037          52.966 
        1.11537         293.328         51.2824 
        1.13105         290.125         49.6623 
        1.14679         286.483         48.1064 
        1.16256         284.098         46.6145 
        1.17828         279.783         45.1911 
        1.19395         272.742         43.8323 
         1.2097         272.629         42.5227 
        1.22537         268.183         41.2733 
          1.241         262.535         40.0781 
        1.25666          260.13         38.9276 
        1.27241         255.927          37.817 
        1.28819         251.742         36.7481 
        1.30392         250.096         35.7239 
        1.31957          243.56         34.7434 
        1.33529         240.757         33.7964 
        1.35108         239.516          32.881 
        1.36674         233.659         32.0063 
         1.3824         232.305         31.1644 
        1.39811         229.905         30.3501 
        1.41389         223.601         29.5619 
        1.42964         221.815         28.8032 
        1.44531          219.39         28.0749 
        1.46101         216.049         27.3704 
        1.47667         213.335         26.6923 
        1.49229          210.59         26.0391 
        1.50793         207.557         25.4071 
        1.52367         205.332         24.7921 
        1.53953         200.675         24.1934 
        1.55526         200.226         23.6194 
        1.57092         198.312         23.0664 
        1.58662         193.505         22.5299 
        1.60235         191.866         22.0095 
        1.61809         189.027         21.5054 
        1.63369         185.958         21.0216 
        1.64941         184.241         20.5493 
        1.66519         181.821         20.0898 
        1.68085         178.923         19.6477 
        1.69652         176.833         19.2189 
        1.71228          174.43         18.8004 
        1.72806         172.498         18.3942 
        1.74368         170.764         18.0041 
        1.75933         169.226         17.6245 
        1.77505         166.612         17.2542 
        1.79081         163.186         16.8938 
         1.8065         161.582         16.5454 
        1.82218         159.027         16.2071 
        1.83797         158.261          15.876 
        1.85367         156.066          15.556 
        1.86928         153.835         15.2468 
        1.88497         152.479         14.9443 
        1.90073         150.814          14.649 
        1.91647         148.071         14.3619 
        1.93218         146.735         14.0832 
        1.94787         144.514         13.8122 
        1.96363         143.839         13.5474 
        1.97935         141.831         13.2901 
        1.99499         140.387         13.0409 
        2.01064         137.532         12.7978 
         2.0264         136.379         12.5594 
        2.04216         134.529         12.3271 
        2.05781         132.904         12.1023 
        2.07353         131.133         11.8822 
        2.08928         129.646         11.6672 
        2.10499          128.37         11.4581 
        2.12065         127.228         11.2547 
        2.13633         126.015         11.0562 
        2.15211         123.852         10.8611 
        2.16785           122.2         10.6713 
        2.18349         120.696         10.4873 
        2.19916         119.715         10.3072 
        2.21489         118.564         10.1308 
        2.23063         116.361         9.95836 
         2.2463         115.519         9.79075 
        2.26194         114.232         9.62742 
        2.27765         112.746           9.467 
        2.29341          111.74         9.30982 
        2.30914          110.54         9.15654 
        2.32486         108.431         9.00681 
        2.34061         107.933         8.86018 
        2.35635         106.545         8.71696 
        2.37203         104.906         8.57742 
        2.38768         104.058         8.44122 
        2.40339         103.178         8.30749 
        2.41914         101.312         8.17636 
        2.43483         100.601         8.04853 
         2.4505         99.5745         7.92365 
        2.46622         98.3107           7.801 
        2.48195         97.3692         7.68095 
        2.49759         96.0472         7.56407 
        2.51328         95.4066         7.44932 
        2.52906          93.531         7.33623 
        2.54479         92.7381         7.22592 
        2.56049         91.5955          7.1181 
        2.57618         90.3643         7.01257 
        2.59189         90.2077         6.90903 
        2.60758         88.2803         6.80775 
        2.62325          88.141         6.70862 
        2.63898         86.9636         6.61113 
        2.65468         85.9349         6.51579 
        2.67044         84.7304         6.42192 
        2.68618         84.1939         6.33012 
        2.70184         82.8536         6.24049 
        2.71755          82.127         6.15237 
        2.73329         80.9255         6.06583 
        2.74897         80.6114         5.98123 
        2.76462         79.5003         5.89844 
        2.78034         78.3652         5.81687 
        2.79607         77.7479         5.73677 
        2.81179         77.0792         5.65827 
        2.82749         76.4098         5.58133 
        2.84321          75.535         5.50574 
        2.85893         74.6833         5.43157 
        2.87462         73.8494          5.3589 
        2.89033         73.1815         5.28749 
        2.90605         72.6861         5.21733 
        2.92176         71.5439         5.14848 
        2.93747         70.9629         5.08091 
        2.95318         70.0706         5.01454 
        2.96891         69.4168         4.94932 
        2.98456         68.7177         4.88556 
        3.00023         67.9105         4.82283 
        3.01596         67.5163         4.76101 
        3.03164         66.6607         4.70045 
        3.04738          66.122         4.64077 
         3.0631         65.1585         4.58215 
        3.07883         64.5743         4.52454 
        3.09456         63.8998         4.46793 
        3.11026         63.2275         4.41237 
        3.12596         62.7107         4.35778 
        3.14163         61.9872         4.30423 
        3.15734         61.3399         4.25146 
        3.17308         60.7757         4.19944 
        3.18879         59.9819         4.14845 
        3.20447         59.6956         4.09837 
         3.2202         58.8771         4.04897 
         3.2359         58.2456         4.00047 
        3.25157         57.8619         3.95288 
        3.26729         57.0918         3.90592 
        3.28304         56.6579         3.85964 
        3.29877         56.0312         3.81417 
        3.31446         55.5873         3.76953 
        3.33014         55.0517         3.72564 
        3.34585         54.3467         3.68239 
        3.36158         53.9085         3.63976 
        3.37727         53.4578         3.59794 
        3.39294         53.0473         3.55682 
        3.40867         52.5209         3.51619 
        3.42439         51.9169         3.47622 
        3.44008         51.3807         3.43695 
        3.45578         50.9533         3.39826 
        3.47153         50.4335         3.36008 
        3.48724         49.8705         3.32256 
        3.50292         49.3542          3.2857 
        3.51859         49.0273         3.24941 
        3.53431         48.2915         3.21356 
        3.55007         48.0253         3.17817 
        3.56577         47.6274         3.14344 
        3.58146         47.0011         3.10926 
        3.59719         46.5827          3.0755 
        3.61292         46.1485         3.04225 
        3.62859         45.8597         3.00963 
        3.64429         45.4671         2.97742 
        3.66003         45.0005         2.94558 
        3.67578         44.6509         2.91422 
        3.69146         44.2466         2.88344 
        3.70712         43.8106         2.85316 
        3.72284          43.362          2.8232 
        3.73853         43.0279         2.79372 
        3.75422         42.6265         2.76466 
        3.76993         42.3066         2.73598 
        3.78564         41.9611         2.70773 
        3.80137         41.4859         2.67982 
        3.81707         41.0388         2.65237 
        3.83279         40.6988         2.62528 
        3.84853         40.3409         2.59853 
        3.86424         40.0529          2.5722 
        3.87992         39.7396         2.54628 
        3.89561         39.4205         2.52071 
        3.91134          39.112         2.49544 
        3.92704         38.6101         2.47055 
        3.94273         38.3562         2.44603 
        3.95845         38.0017         2.42179 
        3.97418         37.6335         2.39787 
        3.98988         37.2192         2.37431 
        4.00554         36.9534         2.35114 
        4.02125         36.6831          2.3282 
        4.03698         36.3391         2.30554 
        4.05268         36.0664         2.28323 
        4.06839         35.6071          2.2612 
         4.0841         35.4811         2.23946 
        4.09983          35.078         2.21799 
        4.11555         34.7747          2.1968 
        4.13124         34.5295         2.17595 
        4.14693         34.2526         2.15535 
        4.16266         33.8307         2.13497 
        4.17839         33.6416         2.11487 
        4.19408         33.3542         2.09507 
        4.20977         33.0647         2.07552 
        4.22551         32.8555         2.05617 
        4.24123         32.5087         2.03708 
        4.25691         32.2652          2.0183 
        4.27259         31.9873         1.99974 
        4.28831         31.6945         1.98138 
        4.30404         31.3891         1.96323 
        4.31974         31.1545         1.94535 
        4.33543         30.9362          1.9277 
        4.35116         30.6664         1.91023 
        4.36688         30.4218         1.89298 
        4.38255         30.2389         1.87602 
        4.39825         29.8722         1.85922 
        4.41398         29.6912         1.84259 
         4.4297         29.3844         1.82619 
        4.44541         29.2517         1.80999 
        4.46111         29.0057         1.79399 
        4.47683         28.6722         1.77818 
        4.49251         28.5078          1.7626 
        4.50819         28.2671          1.7472 
         4.5239          27.971         1.73196 
        4.53962         27.8206         1.71689 
        4.55535         27.5572         1.70199 
        4.57106         27.3395         1.68729 
        4.58678         27.1273         1.67276 
         4.6025         26.8629          1.6584 
        4.61821         26.6813         1.64421 
        4.63391         26.4248          1.6302 
         4.6496         26.2228         1.61637 
        4.66532         26.0156         1.60267 
        4.68103         25.7634         1.58914 
        4.69673         25.6117         1.57577 
        4.71241         25.4138         1.56258 
        4.72811         25.2146         1.54951 
        4.74384          25.036         1.53657 
        4.75955         24.8266         1.52381 
        4.77525         24.6652         1.51119 
        4.79096         24.4224         1.49871 
        4.80669         24.2857         1.48636 
         4.8224         24.0982         1.47416 
        4.83809         23.8625         1.46211 
        4.85379         23.6558         1.45019 
         4.8695         23.4951         1.43839 
        4.88521         23.2975         1.42673 
        4.90093          23.178          1.4152 
        4.91663         22.9337          1.4038 
        4.93234         22.7434         1.39252 
        4.94807          22.643         1.38136 
        4.96377         22.4118         1.37033 
        4.97943         22.2246         1.35946 
        4.99514         22.0594         1.34867 
        5.01086         21.8947         1.33799 
        5.02654         21.7753         1.32745 
        5.04227         21.5775           1.317 
          5.058         21.4131         1.30665 
        5.07371         21.2929         1.29644 
        5.08942          21.092         1.28633 
        5.10513         20.9287         1.27634 
        5.12084          20.775         1.26644 
        5.13656         20.6141         1.25665 
        5.15225         20.4293         1.24698 
        5.16796         20.3132         1.23739 
        5.18369         20.1786          1.2279 
         5.1994         20.0318         1.21852 
        5.21509         19.8798         1.20926 
        5.23079          19.761         1.20007 
        5.24649         19.6321         1.19099 
        5.26217         19.4062         1.18201 
        5.27788         19.2604         1.17311 
        5.29359         19.1703          1.1643 
        5.30933         18.9837         1.15557 
        5.32504         18.8014         1.14694 
        5.34073         18.7155         1.13841 
        5.35646          18.565         1.12995 
        5.37218         18.4141         1.12158 
        5.38789          18.328          1.1133 
        5.40357         18.1719         1.10511 
        5.41929         18.0496         1.09699 
        5.43502         17.8853         1.08895 
         5.4507         17.7843         1.08101 
        5.46639         17.6673         1.07315 
        5.48212         17.5206         1.06535 
        5.49786         17.3796         1.05762 
        5.51353         17.2702            1.05 
        5.52921         17.1191         1.04245 
        5.54495         17.0031         1.03495 
        5.56066         16.9157         1.02753 
        5.57637         16.7648         1.02019 
        5.59207         16.6351         1.01293 
        5.60778         16.5285         1.00573 
        5.62346         16.4397        0.998615 
        5.63916         16.2835        0.991561 
        5.65487         16.2002        0.984571 
         5.6706         16.0683        0.977641 
        5.68633         15.9616        0.970775 
        5.70203         15.8322        0.963989 
        5.71773         15.7273        0.957269 
        5.73344          15.624         0.95061 
        5.74916         15.5042        0.944008 
        5.76486         15.4138        0.937477 
        5.78054         15.2862        0.931019 
        5.79626         15.1923        0.924603 
          5.812         15.0736        0.918242 
         5.8277         14.9934        0.911959 
        5.84339         14.8508        0.905735 
        5.85911         14.7857        0.899557 
        5.87484         14.6724        0.893438 
        5.89053          14.576        0.887388 
        5.90623         14.4418        0.881391 
        5.92195         14.3473         0.87544 
        5.93767         14.2768        0.869546 
        5.95336           14.21        0.863717 
        5.96905         14.0709        0.857943 
        5.98476         14.0154        0.852214 
        6.00048         13.8918        0.846536 
        6.01617         13.7882        0.840917 
        6.03185         13.7065        0.835356 
        6.04756         13.6172        0.829832 
        6.06331         13.4877        0.824346 
        6.07903         13.4006        0.818921 
        6.09473          13.333         0.81355 
        6.11044         13.2257        0.808223 
        6.12616         13.1301        0.802944 
        6.14186         13.0552        0.797717 
        6.15755         12.9815        0.792538 
        6.17326         12.8773          0.7874 
        6.18898         12.7906        0.782306 
        6.20467         12.7118        0.777266 
        6.22036         12.6351         0.77227 
         6.2361         12.5348        0.767305 
         6.2518         12.5011        0.762392 
        6.26748         12.3815        0.757533 
        6.28319         12.3163        0.752703 
        6.29893         12.2121        0.747911 
        6.31463          12.146        0.743168 
        6.33033          12.044        0.738469 
        6.34604         11.9795        0.733806 
        6.36177         11.8964         0.72918 
        6.37747         11.8237        0.724602 
