# k  (h/Mpc)    Pcb(k)  (Mpc/h)^3    Pcb_linear(k) (Mpc/h)^3   ShotnoiseSubtracted = true
      0.0200456         7058.27         7184.37 
      0.0350414         5242.92         5365.24 
      0.0492313         4014.98         4039.21 
      0.0637834          3443.3         3392.41 
      0.0800726         2688.77         2645.72 
       0.096163         1914.13         1946.75 
       0.111083         1566.39         1611.25 
       0.126058         1437.87          1426.5 
       0.142273         1210.18         1171.89 
       0.158546         1001.61         936.608 
        0.17375         831.004          818.67 
       0.188953          790.71         738.852 
       0.204907         728.773           635.5 
       0.220756         615.661         540.734 
        0.23588         546.822         483.998 
         0.2514         482.642         440.501 
       0.267535         457.506         390.709 
       0.283568         414.781         344.743 
       0.299022         385.407         312.746 
       0.314451         356.303          287.12 
       0.330372         329.223         260.458 
       0.346141         297.044         235.939 
       0.361624          283.89         216.574 
       0.377134         266.673         200.237 
       0.392932         246.399         184.407 
       0.408854         236.524         169.615 
       0.424564         226.855         157.088 
       0.440253         214.638         146.172 
       0.455999         202.335         136.018 
       0.471626         186.987           126.7 
        0.48727         182.211         118.355 
       0.502856         174.876         110.915 
       0.518488         170.857         104.045 
       0.534347         162.594         97.5976 
       0.550082         151.215          91.767 
       0.565732          146.64         86.4817 
       0.581496         140.344         81.5721 
       0.597222          136.05          77.032 
       0.612804          129.91         72.8761 
       0.628434         127.042         69.0318 
       0.644267         122.774         65.4237 
       0.660051         120.212         62.0824 
       0.675724         116.593         58.9945 
       0.691403         113.035         56.1153 
       0.707174         108.695          53.413 
       0.722871         106.927         50.9003 
        0.73838         104.808         48.5769 
       0.754018         99.9759         46.3817 
       0.769845         98.1256         44.2989 
        0.78569         95.7368         42.3427 
       0.801365         92.8945         40.5246 
       0.817031         89.7692         38.8153 
       0.832809         88.7509         37.1943 
       0.848511         85.5242         35.6737 
       0.864097         83.2248         34.2492 
       0.879701         82.3262         32.9016 
       0.895507         80.6142         31.6111 
       0.911279         79.3217         30.3929 
        0.92691          77.231         29.2494 
       0.942635         74.9986         28.1587 
       0.958396         74.7238         27.1218 
       0.974128         72.8162         26.1392 
       0.989692         71.1409         25.2153 
        1.00528         69.8351          24.335 
        1.02113           68.33         23.4832 
        1.03692         66.5922         22.6755 
        1.05264         66.1696         21.9098 
        1.06832         64.5848         21.1809 
        1.08405         63.7845         20.4833 
        1.09979         63.0191          19.817 
        1.11537          60.682         19.1871 
        1.13105         61.1007         18.5809 
        1.14679         59.8464         17.9988 
        1.16256         58.7794         17.4406 
        1.17828         57.2998          16.908 
        1.19395         56.8563         16.3996 
         1.2097         55.6362         15.9097 
        1.22537         55.4927         15.4422 
          1.241         54.0819         14.9951 
        1.25666         53.0428         14.5646 
        1.27241         52.6743         14.1491 
        1.28819         51.4277         13.7491 
        1.30392         50.6519         13.3659 
        1.31957         50.3301         12.9991 
        1.33529         49.6738         12.6447 
        1.35108         49.1545         12.3023 
        1.36674         48.3299          11.975 
         1.3824         47.2085           11.66 
        1.39811         47.0502         11.3553 
        1.41389         46.2538         11.0604 
        1.42964         45.5386         10.7766 
        1.44531         45.0599         10.5041 
        1.46101         44.0445         10.2405 
        1.47667         44.0207          9.9868 
        1.49229         43.5576          9.7424 
        1.50793         42.6972         9.50594 
        1.52367         42.2268         9.27584 
        1.53953         41.9127         9.05185 
        1.55526         41.1695         8.83708 
        1.57092          40.797         8.63019 
        1.58662         40.2567         8.42947 
        1.60235         39.8517         8.23477 
        1.61809         39.1897         8.04614 
        1.63369         38.6713         7.86513 
        1.64941          38.105         7.68841 
        1.66519         37.7443         7.51651 
        1.68085         37.4142         7.35111 
        1.69652         36.9363         7.19065 
        1.71228         36.6893          7.0341 
        1.72806          36.099          6.8821 
        1.74368          35.644         6.73613 
        1.75933         35.2421         6.59413 
        1.77505         35.0172         6.45556 
        1.79081          34.436         6.32075 
         1.8065         34.0784         6.19038 
        1.82218         33.8098         6.06382 
        1.83797         33.3336         5.93994 
        1.85367         32.8971         5.82021 
        1.86928         32.6592         5.70452 
        1.88497         32.1613         5.59135 
        1.90073         32.0642         5.48085 
        1.91647         31.5976         5.37344 
        1.93218            31.3         5.26915 
        1.94787         30.9579         5.16779 
        1.96363         30.7273          5.0687 
        1.97935         30.3591         4.97242 
        1.99499         29.9711         4.87919 
        2.01064         29.7586         4.78823 
         2.0264         29.2645         4.69903 
        2.04216         28.9392         4.61214 
        2.05781         28.7231         4.52801 
        2.07353         28.4316         4.44569 
        2.08928         28.3796         4.36523 
        2.10499         28.0405         4.28699 
        2.12065         27.5567         4.21091 
        2.13633         27.4271         4.13662 
        2.15211         26.8904         4.06364 
        2.16785         26.7427         3.99263 
        2.18349         26.5821         3.92377 
        2.19916         26.3068          3.8564 
        2.21489         25.9291         3.79038 
        2.23063         25.7765         3.72588 
         2.2463         25.6018         3.66316 
        2.26194         25.3458         3.60206 
        2.27765         25.0179         3.54203 
        2.29341         24.7223         3.48322 
        2.30914          24.637         3.42588 
        2.32486         24.3352         3.36986 
        2.34061         24.1042           3.315 
        2.35635         23.7899         3.26141 
        2.37203         23.6331          3.2092 
        2.38768          23.404         3.15824 
        2.40339         23.2702         3.10821 
        2.41914         22.9911         3.05915 
        2.43483         22.7011         3.01132 
         2.4505         22.5028          2.9646 
        2.46622         22.2763         2.91871 
        2.48195          22.081         2.87379 
        2.49759         21.8336         2.83006 
        2.51328         21.6416         2.78713 
        2.52906          21.506         2.74482 
        2.54479         21.2203         2.70354 
        2.56049         20.9896          2.6632 
        2.57618         20.8319         2.62372 
        2.59189         20.7031         2.58498 
        2.60758         20.5063         2.54709 
        2.62325         20.3072            2.51 
        2.63898         20.1835         2.47353 
        2.65468         19.9663         2.43785 
        2.67044         19.7498         2.40273 
        2.68618         19.5953         2.36839 
        2.70184         19.4448         2.33485 
        2.71755         19.2244         2.30188 
        2.73329         19.0625          2.2695 
        2.74897         18.8113         2.23785 
        2.76462         18.8815         2.20687 
        2.78034         18.5816         2.17636 
        2.79607         18.4021         2.14639 
        2.81179         18.2903         2.11702 
        2.82749         18.1182         2.08823 
        2.84321         17.9703         2.05995 
        2.85893         17.7835          2.0322 
        2.87462         17.5999         2.00501 
        2.89033         17.4552         1.97829 
        2.90605         17.3635         1.95204 
        2.92176         17.1056         1.92628 
        2.93747         17.0401           1.901 
        2.95318          16.843         1.87617 
        2.96891         16.6923         1.85177 
        2.98456         16.5665         1.82791 
        3.00023         16.4326         1.80444 
        3.01596         16.3011         1.78131 
        3.03164         16.1634         1.75865 
        3.04738         15.9648         1.73632 
         3.0631         15.8435         1.71439 
        3.07883         15.7085         1.69283 
        3.09456         15.5918         1.67165 
        3.11026         15.4497         1.65087 
        3.12596         15.2831         1.63044 
        3.14163         15.2313         1.61041 
        3.15734         15.0291         1.59066 
        3.17308         14.9073          1.5712 
        3.18879         14.7959         1.55212 
        3.20447          14.652         1.53339 
         3.2202         14.5273          1.5149 
         3.2359          14.437         1.49676 
        3.25157         14.3384         1.47895 
        3.26729         14.1614         1.46138 
        3.28304         14.0632         1.44407 
        3.29877         13.9225         1.42705 
        3.31446         13.7941         1.41035 
        3.33014         13.6699         1.39393 
        3.34585          13.567         1.37775 
        3.36158         13.4884          1.3618 
        3.37727         13.3341         1.34615 
        3.39294         13.2452         1.33077 
        3.40867         13.1157         1.31557 
        3.42439          13.015         1.30061 
        3.44008         12.9469         1.28592 
        3.45578         12.8317         1.27144 
        3.47153         12.7236         1.25716 
        3.48724         12.6222         1.24312 
        3.50292         12.4608         1.22933 
        3.51859         12.4041         1.21575 
        3.53431         12.3133         1.20234 
        3.55007         12.2239          1.1891 
        3.56577         12.1117          1.1761 
        3.58146         12.0377         1.16331 
        3.59719         11.8806         1.15068 
        3.61292         11.8113         1.13825 
        3.62859         11.6819         1.12604 
        3.64429         11.6107         1.11399 
        3.66003         11.4984         1.10208 
        3.67578         11.4329         1.09034 
        3.69146         11.3385         1.07883 
        3.70712         11.2251          1.0675 
        3.72284         11.1448         1.05629 
        3.73853         11.0507         1.04526 
        3.75422         10.9966         1.03438 
        3.76993         10.8901         1.02366 
        3.78564         10.7743         1.01308 
        3.80137         10.7156         1.00264 
        3.81707         10.6005        0.992373 
        3.83279         10.5376        0.982238 
        3.84853         10.4376        0.972228 
        3.86424         10.3518        0.962378 
        3.87992         10.2672        0.952678 
        3.89561         10.2055        0.943113 
        3.91134         10.1477        0.933659 
        3.92704         10.0272        0.924346 
        3.94273         9.96769        0.915169 
        3.95845          9.8956          0.9061 
        3.97418         9.79494        0.897153 
        3.98988         9.71831        0.888338 
        4.00554         9.64976        0.879667 
        4.02125         9.57956        0.871086 
        4.03698         9.49817        0.862606 
        4.05268         9.43981        0.854259 
        4.06839         9.32419        0.846016 
         4.0841         9.30031        0.837885 
        4.09983         9.20807        0.829849 
        4.11555          9.1285        0.821923 
        4.13124         9.06578        0.814121 
        4.14693         8.97829        0.806414 
        4.16266         8.92093         0.79879 
        4.17839         8.84897        0.791268 
        4.19408         8.79716        0.783861 
        4.20977         8.71861        0.776545 
        4.22551         8.65126        0.769306 
        4.24123         8.59382        0.762166 
        4.25691         8.49772        0.755136 
        4.27259         8.45061        0.748193 
        4.28831          8.3781        0.741323 
        4.30404         8.32718        0.734534 
        4.31974         8.25353        0.727844 
        4.33543         8.17684        0.721241 
        4.35116         8.12175        0.714705 
        4.36688         8.06869        0.708252 
        4.38255         7.99677        0.701903 
        4.39825          7.9153        0.695618 
        4.41398         7.89578        0.689397 
         4.4297         7.82339         0.68326 
        4.44541         7.75944        0.677198 
        4.46111         7.70038        0.671214 
        4.47683         7.63682        0.665299 
        4.49251         7.59543        0.659467 
        4.50819         7.53659        0.653706 
         4.5239         7.48037        0.648007 
        4.53962         7.41894        0.642368 
        4.55535         7.35974        0.636793 
        4.57106         7.30613        0.631293 
        4.58678         7.25134        0.625857 
         4.6025         7.19874        0.620483 
        4.61821         7.13523        0.615174 
        4.63391         7.09721        0.609933 
         4.6496         7.03337        0.604756 
        4.66532         7.00698        0.599631 
        4.68103         6.91231        0.594568 
        4.69673         6.87356        0.589568 
        4.71241          6.8419         0.58463 
        4.72811         6.76206        0.579741 
        4.74384         6.72092        0.574902 
        4.75955          6.6647        0.570126 
        4.77525         6.64375        0.565406 
        4.79096         6.57156        0.560734 
        4.80669         6.54425        0.556113 
         4.8224         6.49355        0.551549 
        4.83809          6.4323        0.547042 
        4.85379         6.37374        0.542582 
         4.8695         6.33798        0.538168 
        4.88521         6.29947        0.533805 
        4.90093         6.23951         0.52949 
        4.91663         6.21149        0.525226 
        4.93234         6.16024        0.521005 
        4.94807         6.12317        0.516828 
        4.96377         6.08033        0.512704 
        4.97943         6.02599        0.508634 
        4.99514         5.98548        0.504598 
        5.01086         5.94807        0.500603 
        5.02654         5.90241        0.496661 
        5.04227         5.85621         0.49275 
          5.058         5.82706        0.488879 
        5.07371         5.78049        0.485057 
        5.08942          5.7372        0.481276 
        5.10513         5.69643        0.477535 
        5.12084         5.67237        0.473832 
        5.13656         5.63165        0.470169 
        5.15225         5.59387         0.46655 
        5.16796         5.54533        0.462965 
        5.18369          5.5039        0.459413 
         5.1994         5.46958        0.455905 
        5.21509         5.43825        0.452438 
        5.23079         5.39829        0.449002 
        5.24649         5.35521        0.445604 
        5.26217         5.32745        0.442244 
        5.27788         5.27285        0.438914 
        5.29359         5.25351        0.435618 
        5.30933           5.224        0.432351 
        5.32504         5.17757        0.429123 
        5.34073         5.14751        0.425932 
        5.35646         5.09938        0.422766 
        5.37218         5.07762        0.419632 
        5.38789         5.04348        0.416535 
        5.40357         4.99599        0.413473 
        5.41929         4.97125        0.410435 
        5.43502         4.94583        0.407427 
         5.4507          4.9049        0.404456 
        5.46639         4.86484        0.401515 
        5.48212         4.83116        0.398596 
        5.49786         4.80575        0.395703 
        5.51353         4.77356        0.392853 
        5.52921         4.74511        0.390028 
        5.54495         4.70954        0.387222 
        5.56066         4.68266        0.384447 
        5.57637         4.64955          0.3817 
        5.59207         4.62088        0.378982 
        5.60778         4.59203         0.37629 
        5.62346         4.56083        0.373627 
        5.63916         4.53323        0.370988 
        5.65487         4.49124        0.368373 
         5.6706         4.46446         0.36578 
        5.68633         4.44117        0.363211 
        5.70203         4.41051        0.360672 
        5.71773          4.3906        0.358158 
        5.73344         4.36058        0.355666 
        5.74916         4.32857        0.353196 
        5.76486         4.30109        0.350753 
        5.78054         4.27123        0.348336 
        5.79626          4.2429        0.345936 
          5.812         4.22042        0.343556 
         5.8277         4.19462        0.341205 
        5.84339          4.1654        0.338877 
        5.85911         4.14111        0.336565 
        5.87484         4.11662        0.334276 
        5.89053         4.09694        0.332012 
        5.90623         4.05989        0.329769 
        5.92195         4.03514        0.327542 
        5.93767         4.02015        0.325337 
        5.95336         3.99228        0.323156 
        5.96905         3.95334        0.320996 
        5.98476         3.93674        0.318852 
        6.00048          3.9099        0.316728 
        6.01617         3.89228        0.314625 
        6.03185          3.8637        0.312545 
        6.04756         3.85251        0.310478 
        6.06331         3.81341        0.308425 
        6.07903         3.78947        0.306395 
        6.09473         3.77431        0.304386 
        6.11044         3.74385        0.302393 
        6.12616         3.73471        0.300418 
        6.14186          3.7042        0.298462 
        6.15755         3.68556        0.296524 
        6.17326         3.66381        0.294602 
        6.18898          3.6357        0.292696 
        6.20467         3.61117         0.29081 
        6.22036         3.60111        0.288941 
         6.2361         3.56803        0.287084 
         6.2518         3.55717        0.285246 
        6.26748         3.52883        0.283428 
        6.28319         3.51009         0.28162 
        6.29893         3.48553        0.279827 
        6.31463         3.46245        0.278053 
        6.33033         3.44833        0.276295 
        6.34604         3.41822         0.27455 
        6.36177         3.40331        0.272819 
        6.37747         3.38345        0.271106 
