# k  (h/Mpc)    Pcb(k)  (Mpc/h)^3    Pcb_linear(k) (Mpc/h)^3   ShotnoiseSubtracted = true
      0.0200456         14203.8           14508 
      0.0350414         10441.6         10834.5 
      0.0492313         8027.23         8156.71 
      0.0637834         6956.35         6850.56 
      0.0800726          5423.6         5342.72 
       0.096163         3820.88         3931.23 
       0.111083         3134.44         3253.72 
       0.126058         2894.12         2880.66 
       0.142273         2452.38         2366.49 
       0.158546          2104.1         1891.37 
        0.17375         1718.35         1653.21 
       0.188953         1666.97         1492.02 
       0.204907         1552.63         1283.32 
       0.220756         1335.71         1091.95 
        0.23588         1190.54         977.377 
         0.2514         1039.91          889.54 
       0.267535          1023.3         788.991 
       0.283568         929.374         696.168 
       0.299022         874.095         631.554 
       0.314451         830.606         579.805 
       0.330372         765.367         525.963 
       0.346141         708.439         476.451 
       0.361624         681.166         437.346 
       0.377134          633.37         404.356 
       0.392932         609.294         372.388 
       0.408854          588.53         342.518 
       0.424564         554.299         317.221 
       0.440253         542.418         295.178 
       0.455999         513.092         274.671 
       0.471626          485.07         255.856 
        0.48727         470.215         239.004 
       0.502856         456.635          223.98 
       0.518488         452.001         210.107 
       0.534347         422.612         197.087 
       0.550082         403.982         185.313 
       0.565732         403.371         174.639 
       0.581496         380.028         164.725 
       0.597222         374.355         155.557 
       0.612804         363.095         147.165 
       0.628434         349.777         139.402 
       0.644267         340.183         132.115 
       0.660051         332.421         125.368 
       0.675724         328.389         119.132 
       0.691403         318.457         113.318 
       0.707174         306.973         107.861 
       0.722871         303.696         102.787 
        0.73838          298.99         98.0953 
       0.754018         290.654         93.6623 
       0.769845         281.166         89.4563 
        0.78569          281.05          85.506 
       0.801365         271.682         81.8347 
       0.817031         263.745         78.3828 
       0.832809         261.043         75.1094 
       0.848511         254.292         72.0389 
       0.864097         250.822         69.1622 
       0.879701         246.697         66.4409 
       0.895507         240.942         63.8348 
       0.911279         233.556         61.3748 
        0.92691         233.525         59.0656 
       0.942635         227.918         56.8632 
       0.958396         225.773         54.7692 
       0.974128         220.965          52.785 
       0.989692         215.935         50.9194 
        1.00528         213.451         49.1417 
        1.02113         211.872         47.4215 
        1.03692         206.165         45.7905 
        1.05264         202.262         44.2442 
        1.06832         198.902         42.7722 
        1.08405         195.507         41.3636 
        1.09979         194.148          40.018 
        1.11537           189.1          38.746 
        1.13105         186.305          37.522 
        1.14679         186.378         36.3464 
        1.16256         182.845         35.2192 
        1.17828         179.027         34.1438 
        1.19395         176.716         33.1171 
         1.2097          175.68         32.1277 
        1.22537         171.794         31.1837 
          1.241         170.153         30.2807 
        1.25666         166.902         29.4114 
        1.27241          164.36         28.5723 
        1.28819         162.518         27.7647 
        1.30392         160.159         26.9909 
        1.31957         159.072         26.2501 
        1.33529         154.861         25.5346 
        1.35108         153.887          24.843 
        1.36674         152.657         24.1821 
         1.3824         149.489          23.546 
        1.39811         149.444         22.9308 
        1.41389         146.198         22.3353 
        1.42964         143.287          21.762 
        1.44531         141.189         21.2118 
        1.46101         139.801         20.6795 
        1.47667         137.552         20.1672 
        1.49229         136.142         19.6736 
        1.50793         135.083         19.1961 
        1.52367         133.455         18.7315 
        1.53953         130.739         18.2791 
        1.55526         129.351         17.8454 
        1.57092         127.773         17.4276 
        1.58662         125.766         17.0223 
        1.60235         125.005         16.6291 
        1.61809         122.781         16.2482 
        1.63369         121.545         15.8827 
        1.64941         120.291         15.5258 
        1.66519         118.231         15.1787 
        1.68085         117.483         14.8447 
        1.69652           114.4         14.5207 
        1.71228         114.759         14.2045 
        1.72806          113.03         13.8976 
        1.74368         111.808         13.6028 
        1.75933         110.197         13.3161 
        1.77505         108.779         13.0362 
        1.79081         107.553          12.764 
         1.8065         106.199         12.5007 
        1.82218         104.293         12.2452 
        1.83797          103.06          11.995 
        1.85367         102.014         11.7532 
        1.86928         101.229         11.5196 
        1.88497         99.0819         11.2911 
        1.90073         98.8085         11.0679 
        1.91647         97.1714          10.851 
        1.93218         96.2146         10.6404 
        1.94787         95.2261         10.4357 
        1.96363         93.8159         10.2356 
        1.97935         92.5648         10.0412 
        1.99499         91.7538         9.85295 
        2.01064         90.7633         9.66927 
         2.0264         89.1728         9.48912 
        2.04216         88.3676         9.31367 
        2.05781         87.3093         9.14378 
        2.07353         85.8187         8.97753 
        2.08928         84.8918         8.81507 
        2.10499         83.8784         8.65707 
        2.12065         83.5117         8.50344 
        2.13633         82.3622          8.3534 
        2.15211         81.2975         8.20604 
        2.16785         80.1838         8.06265 
        2.18349         79.2399         7.92359 
        2.19916         78.5155         7.78753 
        2.21489         77.5261         7.65423 
        2.23063         76.6228         7.52396 
         2.2463         75.8565         7.39732 
        2.26194         75.4087         7.27392 
        2.27765         74.2023         7.15271 
        2.29341         73.2729         7.03396 
        2.30914         72.2051         6.91815 
        2.32486         71.4572         6.80502 
        2.34061         70.7001         6.69424 
        2.35635         70.0729         6.58603 
        2.37203         68.8535          6.4806 
        2.38768         68.3463          6.3777 
        2.40339         67.4639         6.27666 
        2.41914         66.8169         6.17758 
        2.43483         66.5326           6.081 
         2.4505         65.4556         5.98665 
        2.46622         64.7619         5.89399 
        2.48195         63.9213         5.80328 
        2.49759         63.0355         5.71497 
        2.51328         62.5556         5.62827 
        2.52906         62.0051         5.54283 
        2.54479         61.2281         5.45949 
        2.56049         60.3588         5.37802 
        2.57618          59.863         5.29829 
        2.59189         59.1534         5.22006 
        2.60758         58.6866         5.14354 
        2.62325         58.0147         5.06865 
        2.63898         57.4086         4.99499 
        2.65468         56.8955         4.92295 
        2.67044         56.0709         4.85203 
        2.68618         55.7779         4.78268 
        2.70184         54.9159         4.71495 
        2.71755         54.7395         4.64838 
        2.73329         53.6722         4.58299 
        2.74897         53.1953         4.51907 
        2.76462         52.7704         4.45652 
        2.78034         52.2682         4.39489 
        2.79607         51.4507         4.33437 
        2.81179          51.007         4.27506 
        2.82749         50.3228         4.21693 
        2.84321         49.9674         4.15982 
        2.85893         49.3535         4.10378 
        2.87462         48.7252         4.04887 
        2.89033         48.3348         3.99492 
        2.90605         47.7478         3.94191 
        2.92176         47.3385         3.88989 
        2.93747         46.8352         3.83884 
        2.95318         46.2645         3.78869 
        2.96891         45.5805         3.73942 
        2.98456         45.5262         3.69125 
        3.00023         44.8872         3.64385 
        3.01596         44.5595         3.59714 
        3.03164         43.8702         3.55139 
        3.04738         43.6772          3.5063 
         3.0631         43.1047           3.462 
        3.07883         42.7348         3.41848 
        3.09456         42.2857         3.37571 
        3.11026         41.7033         3.33373 
        3.12596           41.47         3.29248 
        3.14163         40.9451         3.25203 
        3.15734         40.2928         3.21215 
        3.17308          40.265         3.17286 
        3.18879         39.9195         3.13433 
        3.20447         39.3109         3.09649 
         3.2202         38.8642         3.05917 
         3.2359         38.5418         3.02252 
        3.25157         38.0917         2.98657 
        3.26729         37.8269         2.95109 
        3.28304         37.3402         2.91612 
        3.29877         37.0785         2.88176 
        3.31446         36.7586         2.84804 
        3.33014         36.3584         2.81488 
        3.34585         36.0137          2.7822 
        3.36158         35.6944         2.74999 
        3.37727         35.2938          2.7184 
        3.39294         34.9707         2.68733 
        3.40867         34.6113         2.65663 
        3.42439         34.2832         2.62643 
        3.44008         34.1885         2.59676 
        3.45578         33.5519         2.56753 
        3.47153         33.3195         2.53869 
        3.48724         33.0236         2.51033 
        3.50292         32.7048         2.48248 
        3.51859         32.3864         2.45507 
        3.53431         32.1287         2.42798 
        3.55007         31.8423         2.40124 
        3.56577         31.5337           2.375 
        3.58146         31.2471         2.34917 
        3.59719         30.9048         2.32367 
        3.61292         30.6683         2.29855 
        3.62859         30.3134          2.2739 
        3.64429         29.9644         2.24956 
        3.66003         29.7506         2.22551 
        3.67578         29.4888         2.20182 
        3.69146         29.2791         2.17856 
        3.70712         28.9542         2.15568 
        3.72284         28.7764         2.13305 
        3.73853         28.4672         2.11078 
        3.75422         28.2095         2.08882 
        3.76993         28.0416         2.06715 
        3.78564         27.7421          2.0458 
        3.80137         27.5051         2.02472 
        3.81707         27.2291         2.00398 
        3.83279         27.0143         1.98351 
        3.84853         26.6698          1.9633 
        3.86424         26.4218         1.94341 
        3.87992         26.1972         1.92382 
        3.89561         25.9592          1.9045 
        3.91134         25.7853         1.88541 
        3.92704         25.5638         1.86661 
        3.94273         25.2818         1.84808 
        3.95845         25.0363         1.82976 
        3.97418         24.8941         1.81169 
        3.98988         24.5664         1.79389 
        4.00554         24.3962         1.77638 
        4.02125         24.2703         1.75905 
        4.03698         23.9338         1.74193 
        4.05268         23.7965         1.72507 
        4.06839         23.5361         1.70843 
         4.0841         23.3889         1.69201 
        4.09983         23.2067         1.67578 
        4.11555         22.9799         1.65977 
        4.13124          22.709         1.64402 
        4.14693          22.514         1.62846 
        4.16266         22.3205         1.61306 
        4.17839         22.1309         1.59787 
        4.19408         21.9195         1.58291 
        4.20977         21.7834         1.56814 
        4.22551         21.5571         1.55352 
        4.24123         21.3915          1.5391 
        4.25691         21.2185         1.52491 
        4.27259         21.0482         1.51089 
        4.28831         20.8673         1.49701 
        4.30404         20.6414          1.4833 
        4.31974         20.5153         1.46979 
        4.33543         20.3565         1.45646 
        4.35116         20.2334         1.44326 
        4.36688         20.0044         1.43023 
        4.38255          19.874         1.41741 
        4.39825         19.7135         1.40472 
        4.41398         19.4994         1.39216 
         4.4297         19.3455         1.37976 
        4.44541         19.2228         1.36752 
        4.46111         19.0269         1.35544 
        4.47683          18.887         1.34349 
        4.49251         18.7331         1.33171 
        4.50819         18.5531         1.32008 
         4.5239         18.4509         1.30857 
        4.53962         18.2566         1.29718 
        4.55535         18.1288         1.28593 
        4.57106         17.9449         1.27482 
        4.58678         17.8517         1.26384 
         4.6025         17.6897         1.25299 
        4.61821         17.5591         1.24227 
        4.63391         17.4128         1.23169 
         4.6496          17.261         1.22123 
        4.66532         17.1026         1.21088 
        4.68103         16.9551         1.20066 
        4.69673         16.8896         1.19056 
        4.71241         16.7385         1.18059 
        4.72811         16.5562         1.17072 
        4.74384         16.4664         1.16095 
        4.75955          16.323          1.1513 
        4.77525         16.2138         1.14177 
        4.79096         16.0568         1.13234 
        4.80669         15.9705           1.123 
         4.8224         15.7953         1.11379 
        4.83809         15.6728         1.10469 
        4.85379         15.5507         1.09568 
         4.8695         15.4935         1.08677 
        4.88521         15.3208         1.07796 
        4.90093         15.2411         1.06924 
        4.91663         15.1224         1.06063 
        4.93234         14.9597         1.05211 
        4.94807         14.8711         1.04367 
        4.96377         14.7243         1.03535 
        4.97943         14.6485         1.02713 
        4.99514         14.5044         1.01898 
        5.01086         14.4148         1.01091 
        5.02654         14.2859         1.00295 
        5.04227         14.1669        0.995049 
          5.058         14.0885        0.987233 
        5.07371         13.9651        0.979516 
        5.08942         13.8581         0.97188 
        5.10513         13.7641        0.964325 
        5.12084          13.654        0.956847 
        5.13656         13.5473         0.94945 
        5.15225         13.4297        0.942143 
        5.16796         13.3561        0.934902 
        5.18369         13.2252         0.92773 
         5.1994         13.1715        0.920647 
        5.21509         13.0392        0.913644 
        5.23079         12.9507        0.906706 
        5.24649          12.855        0.899845 
        5.26217         12.7596         0.89306 
        5.27788         12.6524        0.886336 
        5.29359         12.5865        0.879679 
        5.30933          12.462        0.873082 
        5.32504         12.3965        0.866563 
        5.34073         12.3084        0.860118 
        5.35646         12.2253        0.853726 
        5.37218         12.1094        0.847397 
        5.38789         12.0345        0.841143 
        5.40357         11.9533         0.83496 
        5.41929          11.864        0.828825 
        5.43502         11.7921         0.82275 
         5.4507         11.6865        0.816752 
        5.46639         11.5994        0.810812 
        5.48212           11.54        0.804918 
        5.49786         11.4497        0.799075 
        5.51353         11.3604        0.793319 
        5.52921         11.2726        0.787614 
        5.54495         11.1952        0.781949 
        5.56066         11.1007        0.776345 
        5.57637         11.0242        0.770798 
        5.59207         10.9631        0.765309 
        5.60778         10.8856        0.759872 
        5.62346         10.8238        0.754495 
        5.63916         10.7172        0.749166 
        5.65487         10.6455        0.743885 
         5.6706         10.5868        0.738649 
        5.68633          10.502        0.733461 
        5.70203         10.4223        0.728334 
        5.71773         10.3667        0.723257 
        5.73344         10.2804        0.718226 
        5.74916         10.1975        0.713238 
        5.76486         10.1317        0.708304 
        5.78054         10.0705        0.703424 
        5.79626         9.99942        0.698577 
          5.812         9.92957        0.693771 
         5.8277         9.84508        0.689024 
        5.84339         9.79955        0.684321 
        5.85911          9.7281        0.679653 
        5.87484         9.65006         0.67503 
        5.89053         9.58493        0.670459 
        5.90623         9.51746        0.665928 
        5.92195          9.4667        0.661432 
        5.93767         9.39044        0.656979 
        5.95336         9.34816        0.652575 
        5.96905         9.28025        0.648212 
        5.98476         9.22058        0.643884 
        6.00048         9.13559        0.639594 
        6.01617         9.09719        0.635348 
        6.03185         9.03204        0.631146 
        6.04756         8.96339        0.626973 
        6.06331         8.91773        0.622828 
        6.07903         8.84327        0.618729 
        6.09473         8.79375        0.614671 
        6.11044          8.7236        0.610646 
        6.12616         8.66476        0.606658 
        6.14186         8.60145        0.602709 
        6.15755         8.54872        0.598796 
        6.17326         8.51479        0.594914 
        6.18898         8.43506        0.591065 
        6.20467         8.39379        0.587257 
        6.22036          8.3148        0.583483 
         6.2361         8.26892        0.579732 
         6.2518         8.22401        0.576019 
        6.26748         8.16384        0.572348 
        6.28319          8.1192        0.568699 
        6.29893         8.05955        0.565078 
        6.31463         8.00963        0.561495 
        6.33033          7.9592        0.557944 
        6.34604         7.91855        0.554422 
        6.36177         7.84862        0.550926 
        6.37747         7.81268        0.547467 
