# k  (h/Mpc)    Pcb(k)  (Mpc/h)^3    Pcb_linear(k) (Mpc/h)^3   ShotnoiseSubtracted = true
      0.0200456         17035.3         17422.8 
      0.0350414           12480         13011.2 
      0.0492313         9603.09         9795.48 
      0.0637834         8349.23         8226.91 
      0.0800726         6505.82         6416.13 
       0.096163         4571.46         4721.06 
       0.111083         3757.59         3907.43 
       0.126058         3469.63         3459.41 
       0.142273         2945.45         2841.94 
       0.158546         2559.75         2271.37 
        0.17375         2084.84         1985.35 
       0.188953         2030.83         1791.79 
       0.204907         1894.92         1541.15 
       0.220756         1639.34         1311.33 
        0.23588         1465.01         1173.74 
         0.2514         1278.77         1068.26 
       0.267535         1269.63         947.508 
       0.283568         1152.85         836.036 
       0.299022         1088.02          758.44 
       0.314451          1037.8         696.294 
       0.330372         955.444         631.635 
       0.346141         898.677         572.175 
       0.361624         864.049         525.213 
       0.377134         803.676         485.595 
       0.392932         775.482         447.205 
       0.408854         754.114         411.333 
       0.424564         704.867         380.954 
       0.440253         692.642         354.482 
       0.455999         660.381         329.856 
       0.471626         630.843          307.26 
        0.48727         608.692         287.023 
       0.502856         592.469          268.98 
       0.518488         585.872          252.32 
       0.534347         548.126         236.683 
       0.550082         529.625         222.544 
       0.565732         529.948         209.726 
       0.581496         499.091          197.82 
       0.597222         492.095          186.81 
       0.612804          479.73         176.732 
       0.628434         464.154         167.409 
       0.644267          452.46         158.659 
       0.660051         438.593         150.556 
       0.675724         435.367         143.067 
       0.691403         421.509         136.085 
       0.707174         407.447         129.532 
       0.722871         403.471         123.438 
        0.73838         397.471         117.804 
       0.754018         386.188          112.48 
       0.769845         376.572         107.429 
        0.78569         374.093         102.685 
       0.801365         362.941         98.2761 
       0.817031         352.345         94.1307 
       0.832809         350.009         90.1997 
       0.848511         341.079         86.5123 
       0.864097         334.276         83.0576 
       0.879701         329.925         79.7896 
       0.895507          324.57         76.6599 
       0.911279         314.184         73.7056 
        0.92691         312.083         70.9325 
       0.942635         305.278         68.2876 
       0.958396          299.36         65.7729 
       0.974128         294.422         63.3901 
       0.989692         290.001         61.1496 
        1.00528         285.448         59.0148 
        1.02113         283.187          56.949 
        1.03692         276.163         54.9903 
        1.05264         272.664         53.1334 
        1.06832         266.935         51.3656 
        1.08405         262.342          49.674 
        1.09979         258.667         48.0581 
        1.11537         254.057         46.5305 
        1.13105         248.594         45.0605 
        1.14679         247.842         43.6488 
        1.16256         242.786         42.2951 
        1.17828         238.836         41.0036 
        1.19395         235.086         39.7707 
         1.2097         234.371         38.5825 
        1.22537         228.498         37.4489 
          1.241         227.496         36.3644 
        1.25666         222.227         35.3205 
        1.27241         219.622         34.3128 
        1.28819         216.642          33.343 
        1.30392         212.338         32.4136 
        1.31957         212.471          31.524 
        1.33529         207.696         30.6647 
        1.35108         203.655         29.8342 
        1.36674          202.91         29.0406 
         1.3824         199.959         28.2766 
        1.39811         199.004         27.5378 
        1.41389         194.658         26.8227 
        1.42964         191.938         26.1342 
        1.44531         189.382         25.4735 
        1.46101         187.851         24.8342 
        1.47667         183.648         24.2189 
        1.49229         181.811         23.6263 
        1.50793         179.386         23.0528 
        1.52367          177.95         22.4948 
        1.53953         174.591         21.9516 
        1.55526         171.711         21.4308 
        1.57092          170.62          20.929 
        1.58662          167.94         20.4423 
        1.60235         165.823         19.9701 
        1.61809         164.392         19.5127 
        1.63369         161.352         19.0737 
        1.64941         158.655         18.6451 
        1.66519         157.603         18.2283 
        1.68085         156.255         17.8271 
        1.69652         153.164          17.438 
        1.71228         151.233         17.0584 
        1.72806         149.372         16.6898 
        1.74368         148.413         16.3358 
        1.75933         145.985         15.9914 
        1.77505         144.201         15.6554 
        1.79081         143.352         15.3284 
         1.8065         141.284         15.0123 
        1.82218         138.636         14.7053 
        1.83797         137.439         14.4049 
        1.85367         135.836         14.1146 
        1.86928         134.015          13.834 
        1.88497         131.553         13.5596 
        1.90073         130.605         13.2916 
        1.91647         128.896         13.0311 
        1.93218         127.354         12.7782 
        1.94787         125.922         12.5324 
        1.96363         124.209         12.2921 
        1.97935         122.062         12.0586 
        1.99499         120.966         11.8325 
        2.01064         119.645         11.6119 
         2.0264         117.956         11.3956 
        2.04216         117.013         11.1849 
        2.05781         115.704         10.9809 
        2.07353         114.529         10.7812 
        2.08928         112.357         10.5861 
        2.10499         110.683         10.3964 
        2.12065         110.014         10.2119 
        2.13633         109.133         10.0317 
        2.15211         107.289         9.85472 
        2.16785         105.618         9.68252 
        2.18349         104.648         9.51553 
        2.19916         103.741         9.35213 
        2.21489         102.517         9.19205 
        2.23063         100.825         9.03561 
         2.2463         99.8321         8.88353 
        2.26194         99.4096         8.73533 
        2.27765         97.5868         8.58977 
        2.29341         96.7939         8.44715 
        2.30914         95.3938         8.30808 
        2.32486         94.7597         8.17222 
        2.34061         93.4824         8.03919 
        2.35635         91.8874         7.90924 
        2.37203         90.7955         7.78262 
        2.38768         89.9723         7.65904 
        2.40339         89.1784         7.53771 
        2.41914         87.5852         7.41873 
        2.43483         87.0219         7.30274 
         2.4505         85.9983         7.18943 
        2.46622         84.8717         7.07815 
        2.48195         83.9987         6.96922 
        2.49759         83.2126         6.86317 
        2.51328         82.2636         6.75905 
        2.52906         81.1669         6.65645 
        2.54479         80.6064         6.55636 
        2.56049         79.6153         6.45852 
        2.57618         78.8595         6.36277 
        2.59189         77.6868         6.26883 
        2.60758         76.9034         6.17693 
        2.62325         76.1669         6.08699 
        2.63898         75.3066         5.99854 
        2.65468         74.2667         5.91203 
        2.67044         73.4532         5.82686 
        2.68618         72.8739         5.74357 
        2.70184         72.4802         5.66224 
        2.71755         71.6635         5.58229 
        2.73329         70.6061         5.50376 
        2.74897         70.0126           5.427 
        2.76462         69.1119         5.35188 
        2.78034         68.1603         5.27787 
        2.79607         67.3862         5.20519 
        2.81179         66.9299         5.13397 
        2.82749         66.1986         5.06416 
        2.84321          65.462         4.99557 
        2.85893         64.7034         4.92827 
        2.87462         64.0372         4.86234 
        2.89033         63.3561         4.79755 
        2.90605          62.526         4.73389 
        2.92176         62.3424         4.67141 
        2.93747         61.6293          4.6101 
        2.95318         60.8294         4.54988 
        2.96891         60.0791         4.49071 
        2.98456         59.5437         4.43286 
        3.00023         58.7348         4.37594 
        3.01596         58.3438         4.31985 
        3.03164         57.6021          4.2649 
        3.04738         56.9786         4.21075 
         3.0631         56.4854         4.15756 
        3.07883         55.7836         4.10529 
        3.09456         55.5904         4.05392 
        3.11026          54.619         4.00352 
        3.12596         54.1988         3.95398 
        3.14163         53.6197         3.90539 
        3.15734         53.2556         3.85751 
        3.17308         52.6541         3.81032 
        3.18879         52.2423         3.76404 
        3.20447         51.2886         3.71861 
         3.2202         51.2525         3.67378 
         3.2359         50.6312         3.62978 
        3.25157         50.1802          3.5866 
        3.26729         49.7081           3.544 
        3.28304         49.0168           3.502 
        3.29877         48.6304         3.46074 
        3.31446          48.049         3.42024 
        3.33014         47.7746         3.38042 
        3.34585         47.4198         3.34118 
        3.36158         46.8732          3.3025 
        3.37727         46.2925         3.26455 
        3.39294         45.8739         3.22724 
        3.40867         45.3258         3.19038 
        3.42439         44.9844         3.15411 
        3.44008         44.4759         3.11848 
        3.45578         44.0049         3.08338 
        3.47153         43.6393         3.04873 
        3.48724         43.4043         3.01469 
        3.50292         42.9877         2.98124 
        3.51859         42.3503         2.94831 
        3.53431         41.9107         2.91579 
        3.55007          41.601         2.88367 
        3.56577         41.2133         2.85217 
        3.58146          40.741         2.82115 
        3.59719         40.3935         2.79052 
        3.61292         40.1321         2.76035 
        3.62859         39.8394         2.73075 
        3.64429         39.3485         2.70153 
        3.66003         38.9572         2.67264 
        3.67578           38.55         2.64419 
        3.69146         38.2482         2.61626 
        3.70712         37.9381         2.58878 
        3.72284         37.5119          2.5616 
        3.73853         37.2671         2.53485 
        3.75422         36.9448         2.50848 
        3.76993          36.609         2.48246 
        3.78564         36.2533         2.45682 
        3.80137         35.8551         2.43151 
        3.81707         35.4748          2.4066 
        3.83279         35.2726         2.38202 
        3.84853         35.0047         2.35775 
        3.86424         34.5594         2.33386 
        3.87992         34.3371         2.31034 
        3.89561         33.9779         2.28714 
        3.91134         33.7167         2.26421 
        3.92704         33.3998         2.24163 
        3.94273          33.019         2.21937 
        3.95845         32.6915         2.19738 
        3.97418         32.5561         2.17568 
        3.98988         32.1924         2.15431 
        4.00554         31.8863         2.13328 
        4.02125         31.7067         2.11247 
        4.03698         31.2996          2.0919 
        4.05268         31.2163         2.07166 
        4.06839         30.8339         2.05167 
         4.0841         30.5557         2.03195 
        4.09983         30.3185         2.01246 
        4.11555         30.0777         1.99324 
        4.13124         29.7456         1.97432 
        4.14693         29.5466         1.95563 
        4.16266         29.2717         1.93714 
        4.17839         28.9562          1.9189 
        4.19408         28.8143         1.90094 
        4.20977         28.4959          1.8832 
        4.22551         28.3133         1.86564 
        4.24123         28.0591         1.84833 
        4.25691         27.8358         1.83128 
        4.27259         27.5551         1.81444 
        4.28831         27.2915         1.79778 
        4.30404         27.0753         1.78131 
        4.31974         26.9298         1.76509 
        4.33543         26.6323         1.74908 
        4.35116         26.4755         1.73323 
        4.36688         26.1737         1.71758 
        4.38255         26.0156         1.70218 
        4.39825         25.7422         1.68694 
        4.41398           25.52         1.67185 
         4.4297         25.3461         1.65697 
        4.44541         25.1714         1.64227 
        4.46111         24.9284         1.62776 
        4.47683         24.7055         1.61341 
        4.49251         24.4875         1.59927 
        4.50819         24.2675          1.5853 
         4.5239          24.116         1.57148 
        4.53962         23.9399          1.5578 
        4.55535         23.7026         1.54428 
        4.57106         23.5898         1.53095 
        4.58678         23.3836         1.51776 
         4.6025          23.183         1.50473 
        4.61821         22.9852         1.49185 
        4.63391         22.7683         1.47915 
         4.6496         22.6695         1.46659 
        4.66532         22.4264         1.45416 
        4.68103         22.2143         1.44188 
        4.69673         22.0751         1.42976 
        4.71241         21.8551         1.41778 
        4.72811         21.6816         1.40593 
        4.74384         21.5304         1.39419 
        4.75955          21.352         1.38261 
        4.77525         21.1968         1.37116 
        4.79096         21.0386         1.35983 
        4.80669         20.8955         1.34863 
         4.8224          20.649         1.33756 
        4.83809         20.5473         1.32663 
        4.85379         20.3961         1.31581 
         4.8695         20.2153         1.30511 
        4.88521         20.0845         1.29453 
        4.90093         19.9179         1.28406 
        4.91663         19.7643         1.27372 
        4.93234         19.5827         1.26349 
        4.94807         19.4431         1.25336 
        4.96377         19.2935         1.24336 
        4.97943         19.1752         1.23349 
        4.99514         19.0295          1.2237 
        5.01086         18.8647         1.21401 
        5.02654         18.7074         1.20445 
        5.04227         18.5744         1.19497 
          5.058         18.4218         1.18558 
        5.07371         18.3283         1.17631 
        5.08942           18.19         1.16714 
        5.10513         18.0293         1.15807 
        5.12084         17.8778         1.14909 
        5.13656          17.735          1.1402 
        5.15225         17.6189         1.13143 
        5.16796          17.461         1.12273 
        5.18369         17.3729         1.11412 
         5.1994         17.2165         1.10561 
        5.21509         17.0741          1.0972 
        5.23079         16.9822         1.08887 
        5.24649         16.8263         1.08063 
        5.26217         16.7442         1.07249 
        5.27788         16.5911         1.06441 
        5.29359         16.4287         1.05642 
        5.30933          16.346         1.04849 
        5.32504         16.2131         1.04066 
        5.34073         16.1169         1.03292 
        5.35646         16.0033         1.02525 
        5.37218         15.8539         1.01765 
        5.38789          15.733         1.01014 
        5.40357         15.6306         1.00271 
        5.41929         15.5139        0.995344 
        5.43502         15.3944         0.98805 
         5.4507         15.2962        0.980846 
        5.46639         15.1805        0.973713 
        5.48212         15.0741        0.966634 
        5.49786         14.9937        0.959617 
        5.51353         14.8585        0.952705 
        5.52921         14.7488        0.945854 
        5.54495         14.6601        0.939051 
        5.56066         14.5412        0.932321 
        5.57637         14.4303        0.925659 
        5.59207         14.3037        0.919068 
        5.60778         14.2446        0.912538 
        5.62346         14.1311        0.906082 
        5.63916          14.014        0.899681 
        5.65487         13.9259        0.893339 
         5.6706         13.8367        0.887051 
        5.68633         13.7192        0.880821 
        5.70203         13.6512        0.874664 
        5.71773         13.5404        0.868567 
        5.73344         13.4299        0.862525 
        5.74916         13.3345        0.856535 
        5.76486           13.25        0.850609 
        5.78054         13.1561        0.844749 
        5.79626         13.0387        0.838928 
          5.812         12.9712        0.833156 
         5.8277         12.8898        0.827456 
        5.84339         12.7895        0.821808 
        5.85911         12.6928        0.816203 
        5.87484         12.6223        0.810651 
        5.89053         12.5308        0.805161 
        5.90623         12.4288         0.79972 
        5.92195         12.3623         0.79432 
        5.93767         12.2903        0.788973 
        5.95336         12.1978        0.783684 
        5.96905          12.106        0.778445 
        5.98476         12.0394        0.773247 
        6.00048         11.9541        0.768095 
        6.01617         11.8764        0.762996 
        6.03185         11.7617         0.75795 
        6.04756         11.6793        0.752938 
        6.06331         11.6168        0.747961 
        6.07903         11.5516        0.743039 
        6.09473         11.4698        0.738165 
        6.11044         11.4043        0.733331 
        6.12616         11.3079        0.728542 
        6.14186         11.2344          0.7238 
        6.15755         11.1678          0.7191 
        6.17326         11.0958        0.714438 
        6.18898         11.0255        0.709816 
        6.20467         10.9305        0.705243 
        6.22036         10.8692        0.700711 
         6.2361         10.7972        0.696206 
         6.2518         10.7193        0.691748 
        6.26748         10.6552        0.687339 
        6.28319         10.5768        0.682956 
        6.29893         10.5239        0.678608 
        6.31463         10.4395        0.674305 
        6.33033         10.3793        0.670041 
        6.34604         10.3043        0.665811 
        6.36177         10.2511        0.661613 
        6.37747         10.1928        0.657459 
