# k  (h/Mpc)    Pcb(k)  (Mpc/h)^3    Pcb_linear(k) (Mpc/h)^3   ShotnoiseSubtracted = true
      0.0200456         13707.7         13997.9 
      0.0350414         10083.2         10453.6 
      0.0492313         7750.31         7869.96 
      0.0637834          6712.3         6609.73 
      0.0800726         5233.86          5154.9 
       0.096163         3689.14         3793.03 
       0.111083         3025.47         3139.34 
       0.126058         2793.24         2779.39 
       0.142273         2366.07         2283.29 
       0.158546          2025.3         1824.88 
        0.17375         1655.08         1595.09 
       0.188953         1604.21         1439.57 
       0.204907         1493.58          1238.2 
       0.220756         1283.51         1053.56 
        0.23588         1143.58         943.017 
         0.2514         999.177         858.268 
       0.267535         981.414         761.254 
       0.283568         891.376         671.694 
       0.299022         837.767         609.352 
       0.314451         795.308         559.422 
       0.330372         732.928         507.473 
       0.346141         676.682         459.702 
       0.361624         650.614         421.971 
       0.377134         605.034          390.14 
       0.392932         581.393         359.297 
       0.408854         561.032         330.477 
       0.424564         529.183         306.069 
       0.440253         517.208         284.801 
       0.455999           488.8         265.015 
       0.471626         461.163         246.862 
        0.48727         447.428         230.602 
       0.502856         434.263         216.106 
       0.518488         429.927         202.721 
       0.534347          402.13         190.158 
       0.550082         383.637         178.798 
       0.565732         382.621           168.5 
       0.581496         360.752         158.934 
       0.597222         355.099         150.088 
       0.612804         344.185         141.991 
       0.628434         331.428         134.501 
       0.644267         322.171         127.471 
       0.660051         315.373         120.961 
       0.675724         311.227         114.944 
       0.691403         301.914         109.334 
       0.707174         290.828         104.069 
       0.722871         287.797         99.1736 
        0.73838         283.097         94.6467 
       0.754018         275.356         90.3696 
       0.769845         266.179         86.3114 
        0.78569         266.061         82.5001 
       0.801365         257.202         78.9578 
       0.817031         249.689         75.6273 
       0.832809         246.928          72.469 
       0.848511         240.653         69.5064 
       0.864097         237.482         66.7308 
       0.879701         233.297         64.1052 
       0.895507         227.724         61.5907 
       0.911279         220.944         59.2171 
        0.92691         220.961         56.9891 
       0.942635          215.64         54.8642 
       0.958396         213.953         52.8438 
       0.974128         209.153         50.9294 
       0.989692         204.244         49.1293 
        1.00528         201.867         47.4141 
        1.02113         200.521         45.7544 
        1.03692         194.811         44.1808 
        1.05264         191.138         42.6888 
        1.06832          187.98         41.2686 
        1.08405         184.897         39.9095 
        1.09979         183.815         38.6112 
        1.11537         178.653         37.3839 
        1.13105         176.426         36.2029 
        1.14679         176.315         35.0686 
        1.16256         173.056         33.9811 
        1.17828         169.409         32.9435 
        1.19395         167.228         31.9529 
         1.2097         166.011         30.9983 
        1.22537         162.627         30.0875 
          1.241         160.793         29.2162 
        1.25666         157.914         28.3775 
        1.27241         155.469         27.5679 
        1.28819         153.709         26.7887 
        1.30392         151.642          26.042 
        1.31957         150.364         25.3273 
        1.33529         146.454         24.6369 
        1.35108         145.644         23.9696 
        1.36674         144.391          23.332 
         1.3824         141.342         22.7182 
        1.39811          141.17         22.1246 
        1.41389         138.258         21.5501 
        1.42964         135.485          20.997 
        1.44531         133.317         20.4661 
        1.46101         132.065         19.9525 
        1.47667         130.182         19.4582 
        1.49229         128.778          18.982 
        1.50793         127.724         18.5213 
        1.52367         126.163          18.073 
        1.53953         123.665         17.6365 
        1.55526         122.385         17.2181 
        1.57092         120.902          16.815 
        1.58662          118.96         16.4239 
        1.60235         118.368         16.0445 
        1.61809         116.122          15.677 
        1.63369         115.083         15.3243 
        1.64941         114.002           14.98 
        1.66519         111.876         14.6451 
        1.68085          111.21         14.3228 
        1.69652          108.27         14.0102 
        1.71228         108.703         13.7052 
        1.72806         107.004          13.409 
        1.74368         105.779         13.1246 
        1.75933         104.295         12.8479 
        1.77505             103          12.578 
        1.79081         101.713         12.3153 
         1.8065          100.53         12.0613 
        1.82218         98.6332         11.8147 
        1.83797         97.6254         11.5733 
        1.85367          96.565           11.34 
        1.86928         95.9798         11.1146 
        1.88497         93.9456         10.8941 
        1.90073         93.5762         10.6788 
        1.91647         92.1108         10.4696 
        1.93218         91.1136         10.2664 
        1.94787         90.2236         10.0689 
        1.96363         88.7776          9.8758 
        1.97935         87.8393         9.68821 
        1.99499         86.9084         9.50657 
        2.01064         85.9996         9.32934 
         2.0264         84.4238         9.15553 
        2.04216         83.5828         8.98625 
        2.05781         82.6858         8.82233 
        2.07353         81.2289         8.66193 
        2.08928         80.2792         8.50517 
        2.10499         79.5397         8.35273 
        2.12065         79.1025          8.2045 
        2.13633         77.9831         8.05974 
        2.15211         77.0142         7.91755 
        2.16785         76.1056          7.7792 
        2.18349          75.229         7.64504 
        2.19916         74.3851         7.51376 
        2.21489          73.563         7.38514 
        2.23063         72.8062         7.25946 
         2.2463          71.944         7.13727 
        2.26194         71.4174         7.01821 
        2.27765         70.4669         6.90126 
        2.29341         69.5838         6.78668 
        2.30914          68.527         6.67494 
        2.32486         67.7614         6.56579 
        2.34061         67.0521         6.45891 
        2.35635         66.5635          6.3545 
        2.37203         65.3585         6.25277 
        2.38768         64.8977         6.15349 
        2.40339         63.9664           6.056 
        2.41914         63.4959         5.96041 
        2.43483         63.1499         5.86722 
         2.4505         62.2294         5.77619 
        2.46622         61.5581         5.68678 
        2.48195         60.7618         5.59926 
        2.49759         59.8597         5.51406 
        2.51328         59.4281         5.43041 
        2.52906          58.905         5.34797 
        2.54479         58.1835         5.26756 
        2.56049         57.4005         5.18896 
        2.57618         56.9032         5.11203 
        2.59189         56.3219         5.03655 
        2.60758         55.8589         4.96272 
        2.62325         55.1709         4.89046 
        2.63898          54.636         4.81939 
        2.65468          54.093         4.74989 
        2.67044         53.2857         4.68146 
        2.68618         53.0143         4.61454 
        2.70184         52.1582          4.5492 
        2.71755         52.0564         4.48496 
        2.73329         51.0513         4.42187 
        2.74897          50.594          4.3602 
        2.76462         50.1596         4.29985 
        2.78034         49.7162         4.24039 
        2.79607         48.9489           4.182 
        2.81179          48.546         4.12477 
        2.82749         47.8015         4.06868 
        2.84321         47.5379         4.01358 
        2.85893         46.9535         3.95951 
        2.87462         46.3539         3.90654 
        2.89033         45.9909         3.85448 
        2.90605         45.4147         3.80334 
        2.92176         45.0713         3.75314 
        2.93747         44.5817         3.70389 
        2.95318         44.1051          3.6555 
        2.96891         43.4038         3.60796 
        2.98456         43.3213         3.56148 
        3.00023         42.7555         3.51575 
        3.01596         42.3946         3.47069 
        3.03164         41.7874         3.42654 
        3.04738          41.574         3.38303 
         3.0631         41.0178          3.3403 
        3.07883         40.6671          3.2983 
        3.09456         40.2455         3.25703 
        3.11026         39.7158         3.21654 
        3.12596         39.4711         3.17674 
        3.14163         39.0128          3.1377 
        3.15734         38.4349         3.09923 
        3.17308         38.3343         3.06131 
        3.18879         38.0089         3.02414 
        3.20447         37.4362         2.98763 
         3.2202          37.015         2.95162 
         3.2359         36.7136         2.91627 
        3.25157         36.3108         2.88158 
        3.26729         36.0744         2.84734 
        3.28304         35.6403          2.8136 
        3.29877         35.3537         2.78046 
        3.31446         35.0496         2.74791 
        3.33014         34.6793         2.71592 
        3.34585         34.3436         2.68439 
        3.36158         34.0478         2.65332 
        3.37727         33.6693         2.62283 
        3.39294         33.3369         2.59285 
        3.40867         33.0363         2.56324 
        3.42439         32.7146          2.5341 
        3.44008         32.5802         2.50547 
        3.45578         31.9821         2.47727 
        3.47153         31.8073         2.44944 
        3.48724         31.4704         2.42208 
        3.50292         31.1543         2.39521 
        3.51859         30.8762         2.36876 
        3.53431         30.6613         2.34262 
        3.55007         30.3559         2.31682 
        3.56577         30.0513         2.29151 
        3.58146         29.8295         2.26659 
        3.59719         29.4427         2.24198 
        3.61292         29.1949         2.21775 
        3.62859         28.9302         2.19396 
        3.64429         28.5878         2.17048 
        3.66003         28.3797         2.14727 
        3.67578          28.146         2.12441 
        3.69146         27.8939         2.10197 
        3.70712         27.6349          2.0799 
        3.72284         27.4477         2.05806 
        3.73853         27.1642         2.03657 
        3.75422         26.9139         2.01538 
        3.76993         26.7464         1.99448 
        3.78564         26.4251         1.97388 
        3.80137         26.2397         1.95354 
        3.81707         25.9713         1.93353 
        3.83279         25.6806         1.91378 
        3.84853         25.3895         1.89428 
        3.86424         25.1842         1.87509 
        3.87992         24.9676         1.85619 
        3.89561         24.7661         1.83755 
        3.91134         24.5659         1.81913 
        3.92704         24.3644         1.80099 
        3.94273         24.0666         1.78311 
        3.95845         23.8876         1.76544 
        3.97418         23.7155           1.748 
        3.98988         23.4364         1.73083 
        4.00554         23.2684         1.71393 
        4.02125         23.1225         1.69721 
        4.03698         22.8085         1.68069 
        4.05268         22.6562         1.66443 
        4.06839         22.4433         1.64837 
         4.0841         22.3082         1.63253 
        4.09983         22.1454         1.61687 
        4.11555         21.9053         1.60143 
        4.13124         21.6631         1.58622 
        4.14693         21.4545         1.57121 
        4.16266         21.2637         1.55635 
        4.17839         21.0738          1.5417 
        4.19408         20.8906         1.52727 
        4.20977         20.7944         1.51301 
        4.22551         20.5832         1.49891 
        4.24123         20.3936           1.485 
        4.25691          20.242          1.4713 
        4.27259         20.0652         1.45777 
        4.28831         19.8839         1.44439 
        4.30404         19.6831         1.43116 
        4.31974          19.518         1.41812 
        4.33543         19.4103         1.40526 
        4.35116         19.2815         1.39252 
        4.36688         19.0564         1.37995 
        4.38255         18.9206         1.36758 
        4.39825         18.7837         1.35533 
        4.41398         18.5807         1.34321 
         4.4297           18.43         1.33126 
        4.44541         18.3255         1.31945 
        4.46111         18.1363         1.30779 
        4.47683         17.9955         1.29626 
        4.49251          17.864          1.2849 
        4.50819         17.6826         1.27367 
         4.5239         17.5913         1.26257 
        4.53962         17.3988         1.25158 
        4.55535         17.2786         1.24072 
        4.57106         17.0929            1.23 
        4.58678         17.0299         1.21941 
         4.6025         16.8522         1.20894 
        4.61821         16.7176          1.1986 
        4.63391           16.61         1.18839 
         4.6496         16.4332          1.1783 
        4.66532         16.2768         1.16831 
        4.68103         16.1754         1.15845 
        4.69673         16.1033         1.14871 
        4.71241         15.9273         1.13909 
        4.72811         15.7829         1.12956 
        4.74384         15.6852         1.12013 
        4.75955         15.5497         1.11083 
        4.77525         15.4432         1.10163 
        4.79096         15.2936         1.09253 
        4.80669         15.1999         1.08353 
         4.8224         15.0337         1.07463 
        4.83809         14.9322         1.06585 
        4.85379         14.8123         1.05716 
         4.8695         14.7486         1.04856 
        4.88521         14.5857         1.04006 
        4.90093         14.5094         1.03165 
        4.91663         14.4064         1.02335 
        4.93234         14.2239         1.01512 
        4.94807         14.1579         1.00698 
        4.96377         14.0246        0.998948 
        4.97943         13.9437        0.991018 
        4.99514         13.8076        0.983154 
        5.01086         13.7243        0.975369 
        5.02654         13.5955        0.967688 
        5.04227         13.4832        0.960068 
          5.058         13.4265        0.952527 
        5.07371         13.3077        0.945081 
        5.08942         13.2024        0.937714 
        5.10513         13.1025        0.930424 
        5.12084         12.9948        0.923209 
        5.13656         12.9046        0.916072 
        5.15225         12.8007        0.909022 
        5.16796         12.7202        0.902035 
        5.18369         12.5916        0.895116 
         5.1994         12.5425        0.888281 
        5.21509         12.4198        0.881525 
        5.23079         12.3422         0.87483 
        5.24649         12.2512        0.868211 
        5.26217         12.1506        0.861664 
        5.27788         12.0537        0.855176 
        5.29359         11.9934        0.848754 
        5.30933         11.8962        0.842389 
        5.32504         11.8039        0.836099 
        5.34073         11.7285        0.829881 
        5.35646         11.6384        0.823713 
        5.37218         11.5367        0.817607 
        5.38789         11.4718        0.811573 
        5.40357         11.3938        0.805607 
        5.41929         11.3004        0.799687 
        5.43502         11.2491        0.793827 
         5.4507          11.131        0.788039 
        5.46639         11.0593        0.782308 
        5.48212          10.986        0.776621 
        5.49786         10.9115        0.770983 
        5.51353         10.8205         0.76543 
        5.52921         10.7366        0.759926 
        5.54495         10.6663        0.754459 
        5.56066         10.5792        0.749053 
        5.57637         10.5071          0.7437 
        5.59207          10.444        0.738405 
        5.60778         10.3671        0.733159 
        5.62346         10.3172        0.727971 
        5.63916         10.2225        0.722829 
        5.65487         10.1455        0.717733 
         5.6706         10.0853        0.712681 
        5.68633         10.0093        0.707676 
        5.70203         9.94144        0.702729 
        5.71773         9.88033        0.697831 
        5.73344         9.79688        0.692976 
        5.74916         9.71218        0.688164 
        5.76486         9.67103        0.683403 
        5.78054         9.59887        0.678695 
        5.79626         9.52247        0.674018 
          5.812          9.4594        0.669381 
         5.8277         9.38517        0.664801 
        5.84339         9.34343        0.660264 
        5.85911         9.26655         0.65576 
        5.87484         9.20132        0.651299 
        5.89053         9.13857        0.646889 
        5.90623         9.07401        0.642518 
        5.92195          9.0212        0.638179 
        5.93767           8.951        0.633883 
        5.95336         8.91233        0.629633 
        5.96905         8.82863        0.625424 
        5.98476         8.78932        0.621248 
        6.00048         8.71156        0.617109 
        6.01617         8.67747        0.613012 
        6.03185         8.61655        0.608958 
        6.04756         8.53596        0.604931 
        6.06331         8.49332        0.600932 
        6.07903         8.43319        0.596978 
        6.09473         8.36887        0.593062 
        6.11044         8.31613        0.589179 
        6.12616          8.2567        0.585331 
        6.14186         8.19941        0.581521 
        6.15755           8.137        0.577745 
        6.17326           8.098           0.574 
        6.18898         8.05008        0.570286 
        6.20467         7.99741        0.566612 
        6.22036         7.92374         0.56297 
         6.2361         7.88945        0.559351 
         6.2518         7.83974         0.55577 
        6.26748         7.77576        0.552227 
        6.28319         7.72899        0.548706 
        6.29893         7.68332        0.545213 
        6.31463          7.6414        0.541756 
        6.33033         7.59092         0.53833 
        6.34604         7.54062        0.534931 
        6.36177          7.4874        0.531558 
        6.37747         7.43916        0.528221 
