# k  (h/Mpc)    Pcb(k)  (Mpc/h)^3    Pcb_linear(k) (Mpc/h)^3   ShotnoiseSubtracted = true
      0.0200456         793.274          804.58 
      0.0350414         598.205         600.855 
      0.0492313         453.448         452.353 
      0.0637834         382.212         379.917 
      0.0800726         298.569         296.295 
       0.096163         217.679         218.017 
       0.111083         178.886         180.444 
       0.126058         160.033         159.755 
       0.142273         132.586          131.24 
       0.158546         106.339         104.891 
        0.17375         91.3089         91.6832 
       0.188953         83.2881         82.7443 
       0.204907         73.7199         71.1699 
       0.220756          61.925          60.557 
        0.23588         55.2162         54.2032 
         0.2514         49.7832         49.3319 
       0.267535          44.584         43.7557 
       0.283568         39.6116         38.6079 
       0.299022         36.1324         35.0246 
       0.314451         32.5458         32.1547 
       0.330372         29.8937         29.1687 
       0.346141         27.1209         26.4229 
       0.361624         25.0663         24.2542 
       0.377134          23.419         22.4247 
       0.392932         20.8707         20.6518 
       0.408854          19.853         18.9953 
       0.424564         18.3777         17.5924 
       0.440253         17.0332         16.3699 
       0.455999         16.0228         15.2327 
       0.471626         15.0328         14.1892 
        0.48727         14.0303         13.2547 
       0.502856         13.0918         12.4214 
       0.518488         12.4953         11.6521 
       0.534347         11.8833           10.93 
       0.550082         10.8888          10.277 
       0.565732         10.0773         9.68511 
       0.581496          9.8298         9.13528 
       0.597222         9.39144         8.62685 
       0.612804         8.76376         8.16142 
       0.628434         8.43898          7.7309 
       0.644267          8.0307         7.32683 
       0.660051         7.57589         6.95263 
       0.675724         7.20872         6.60682 
       0.691403         6.94775         6.28437 
       0.707174           6.583         5.98174 
       0.722871         6.29383         5.70034 
        0.73838         6.05479         5.44015 
       0.754018         5.84774          5.1943 
       0.769845         5.54102         4.96104 
        0.78569         5.34694         4.74197 
       0.801365         5.10905         4.53837 
       0.817031          4.9355         4.34694 
       0.832809         4.75194          4.1654 
       0.848511         4.49737         3.99512 
       0.864097         4.32613         3.83558 
       0.879701         4.17805         3.68466 
       0.895507         4.01138         3.54013 
       0.911279         3.93669         3.40371 
        0.92691         3.78227         3.27565 
       0.942635         3.62047         3.15351 
       0.958396         3.48731         3.03738 
       0.974128         3.38717         2.92734 
       0.989692         3.31224         2.82387 
        1.00528         3.16571         2.72529 
        1.02113         3.04706         2.62989 
        1.03692         2.99336         2.53944 
        1.05264         2.88171         2.45369 
        1.06832         2.80987         2.37205 
        1.08405         2.67416         2.29393 
        1.09979         2.61798         2.21931 
        1.11537         2.54978         2.14877 
        1.13105         2.48479         2.08088 
        1.14679         2.41646         2.01569 
        1.16256         2.33051         1.95318 
        1.17828         2.27612         1.89354 
        1.19395         2.21309          1.8366 
         1.2097          2.1172         1.78173 
        1.22537         2.07547         1.72938 
          1.241         2.02918          1.6793 
        1.25666         2.00923         1.63109 
        1.27241         1.91477         1.58456 
        1.28819         1.87059         1.53977 
        1.30392         1.83833         1.49685 
        1.31957         1.79201         1.45577 
        1.33529         1.73817         1.41609 
        1.35108         1.69724         1.37774 
        1.36674         1.64225         1.34109 
         1.3824         1.60779         1.30581 
        1.39811         1.56877         1.27169 
        1.41389         1.54031         1.23866 
        1.42964         1.50497         1.20687 
        1.44531         1.46763         1.17636 
        1.46101         1.44052         1.14684 
        1.47667         1.38578         1.11843 
        1.49229          1.3751         1.09105 
        1.50793         1.33777         1.06457 
        1.52367         1.31541          1.0388 
        1.53953         1.27318         1.01372 
        1.55526         1.24872        0.989668 
        1.57092         1.22326        0.966499 
        1.58662         1.20191        0.944019 
        1.60235         1.17363        0.922215 
        1.61809         1.14376        0.901091 
        1.63369         1.13554        0.880819 
        1.64941         1.10184        0.861028 
        1.66519         1.08251        0.841777 
        1.68085         1.05001        0.823253 
        1.69652           1.033        0.805284 
        1.71228         1.01976        0.787751 
        1.72806        0.989687        0.770729 
        1.74368        0.979215        0.754382 
        1.75933        0.954207        0.738479 
        1.77505        0.938814        0.722961 
        1.79081        0.921163        0.707863 
         1.8065        0.897578        0.693263 
        1.82218        0.888203        0.679089 
        1.83797        0.871325        0.665216 
        1.85367        0.862513        0.651808 
        1.86928        0.843842        0.638851 
        1.88497        0.823462        0.626178 
        1.90073         0.80575        0.613802 
        1.91647        0.800219        0.601774 
        1.93218        0.781563        0.590094 
        1.94787        0.766947        0.578742 
        1.96363        0.752819        0.567645 
        1.97935        0.739004        0.556863 
        1.99499        0.726945        0.546423 
        2.01064        0.713936        0.536236 
         2.0264        0.703234        0.526246 
        2.04216        0.692983        0.516515 
        2.05781        0.680201        0.507094 
        2.07353        0.668182        0.497874 
        2.08928        0.653847        0.488864 
        2.10499        0.646804        0.480102 
        2.12065        0.641097        0.471582 
        2.13633        0.627836        0.463261 
        2.15211        0.615594        0.455089 
        2.16785        0.604749        0.447136 
        2.18349        0.596226        0.439425 
        2.19916        0.587768        0.431879 
        2.21489        0.576766        0.424486 
        2.23063        0.568503        0.417262 
         2.2463        0.563258        0.410239 
        2.26194        0.546773        0.403396 
        2.27765        0.541473        0.396674 
        2.29341        0.536147        0.390088 
        2.30914        0.531085        0.383665 
        2.32486        0.519499        0.377391 
        2.34061         0.51132        0.371248 
        2.35635        0.501906        0.365247 
        2.37203        0.496133          0.3594 
        2.38768        0.489543        0.353693 
        2.40339        0.483007         0.34809 
        2.41914        0.476238        0.342595 
        2.43483        0.468399        0.337239 
         2.4505        0.461051        0.332006 
        2.46622        0.455134        0.326867 
        2.48195        0.451283        0.321837 
        2.49759        0.443564        0.316939 
        2.51328        0.435454        0.312132 
        2.52906        0.431372        0.307393 
        2.54479        0.424568        0.302771 
        2.56049        0.417457        0.298253 
        2.57618        0.413319        0.293831 
        2.59189        0.408766        0.289493 
        2.60758        0.403568        0.285249 
        2.62325        0.396811        0.281096 
        2.63898        0.392897        0.277011 
        2.65468        0.386637        0.273016 
        2.67044        0.381205        0.269083 
        2.68618        0.376329        0.265236 
        2.70184        0.372196        0.261481 
        2.71755         0.36644        0.257789 
        2.73329        0.362173        0.254162 
        2.74897        0.358245        0.250618 
        2.76462        0.353612        0.247149 
        2.78034         0.34878        0.243731 
        2.79607          0.3449        0.240375 
        2.81179        0.340356        0.237085 
        2.82749        0.336408        0.233862 
        2.84321        0.333062        0.230694 
        2.85893         0.32849        0.227587 
        2.87462        0.324076        0.224542 
        2.89033        0.319901         0.22155 
        2.90605        0.317259         0.21861 
        2.92176        0.312731        0.215725 
        2.93747        0.308893        0.212893 
        2.95318        0.305808        0.210112 
        2.96891        0.302236         0.20738 
        2.98456        0.298545        0.204708 
        3.00023        0.295917         0.20208 
        3.01596        0.291822         0.19949 
        3.03164        0.288943        0.196952 
        3.04738        0.284129        0.194451 
         3.0631        0.282679        0.191995 
        3.07883         0.27803        0.189581 
        3.09456         0.27531        0.187209 
        3.11026        0.273346        0.184881 
        3.12596        0.269199        0.182594 
        3.14163        0.267171         0.18035 
        3.15734        0.264883        0.178139 
        3.17308        0.261861         0.17596 
        3.18879        0.259494        0.173823 
        3.20447        0.254845        0.171724 
         3.2202        0.253758        0.169655 
         3.2359        0.250736        0.167622 
        3.25157        0.248371        0.165628 
        3.26729        0.245701        0.163661 
        3.28304        0.243804        0.161722 
        3.29877        0.240587        0.159816 
        3.31446        0.238462        0.157946 
        3.33014        0.236414        0.156107 
        3.34585        0.235376        0.154295 
        3.36158        0.232187        0.152509 
        3.37727        0.230278        0.150756 
        3.39294        0.227684        0.149033 
        3.40867        0.225235        0.147331 
        3.42439        0.223864        0.145656 
        3.44008         0.22138        0.144011 
        3.45578        0.220302         0.14239 
        3.47153        0.217748         0.14079 
        3.48724        0.216257        0.139217 
        3.50292        0.214346        0.137673 
        3.51859        0.211585        0.136152 
        3.53431        0.209838         0.13465 
        3.55007        0.208766        0.133167 
        3.56577        0.206124        0.131712 
        3.58146        0.204268         0.13028 
        3.59719        0.202937        0.128865 
        3.61292        0.201789        0.127473 
        3.62859        0.199335        0.126105 
        3.64429        0.197754        0.124756 
        3.66003        0.196321        0.123422 
        3.67578        0.194619        0.122108 
        3.69146        0.192851        0.120818 
        3.70712        0.191817        0.119549 
        3.72284        0.189939        0.118294 
        3.73853        0.189007        0.117059 
        3.75422        0.187396        0.115841 
        3.76993        0.185738         0.11464 
        3.78564        0.183911        0.113456 
        3.80137        0.182576        0.112286 
        3.81707        0.181226        0.111136 
        3.83279        0.179835        0.110001 
        3.84853        0.178172         0.10888 
        3.86424        0.176866        0.107777 
        3.87992         0.17559        0.106691 
        3.89561        0.174001         0.10562 
        3.91134         0.17333        0.104561 
        3.92704        0.171358        0.103518 
        3.94273        0.169581         0.10249 
        3.95845        0.168596        0.101475 
        3.97418         0.16766        0.100472 
        3.98988        0.165472       0.0994854 
        4.00554        0.164687       0.0985142 
        4.02125        0.163058       0.0975532 
        4.03698        0.161145       0.0966036 
        4.05268         0.15996       0.0956688 
        4.06839        0.157505       0.0947457 
         4.0841        0.155732       0.0938351 
        4.09983        0.154063       0.0929351 
        4.11555        0.152286       0.0920474 
        4.13124        0.150092       0.0911737 
        4.14693        0.149247       0.0903106 
        4.16266        0.147398       0.0894567 
        4.17839        0.146116       0.0886144 
        4.19408        0.144682       0.0877849 
        4.20977        0.143505       0.0869656 
        4.22551        0.141935       0.0861548 
        4.24123        0.140774       0.0853552 
        4.25691        0.139327        0.084568 
        4.27259        0.138115       0.0837904 
        4.28831        0.136958       0.0830211 
        4.30404         0.13571       0.0822607 
        4.31974        0.135246       0.0815115 
        4.33543        0.133791       0.0807721 
        4.35116        0.132469         0.08004 
        4.36688        0.131738       0.0793174 
        4.38255        0.130357       0.0786063 
        4.39825        0.130078       0.0779025 
        4.41398        0.129019       0.0772058 
         4.4297        0.128135       0.0765185 
        4.44541        0.127581       0.0758396 
        4.46111        0.126629       0.0751695 
        4.47683        0.126105       0.0745071 
        4.49251          0.1251       0.0738539 
        4.50819        0.124549       0.0732088 
         4.5239        0.123986       0.0725705 
        4.53962        0.123678        0.071939 
        4.55535          0.1228       0.0713147 
        4.57106        0.122455       0.0706987 
        4.58678        0.121768       0.0700899 
         4.6025        0.121614       0.0694881 
        4.61821        0.121179       0.0688935 
        4.63391         0.12087       0.0683066 
         4.6496        0.120517       0.0677268 
        4.66532        0.120463       0.0671529 
        4.68103        0.120085       0.0665859 
        4.69673        0.119468       0.0660259 
        4.71241        0.119591        0.065473 
        4.72811        0.119322       0.0649254 
        4.74384        0.119408       0.0643835 
        4.75955        0.119491       0.0638486 
        4.77525        0.119514         0.06332 
        4.79096        0.118977       0.0627968 
        4.80669          0.1193       0.0622793 
         4.8224        0.119337       0.0617682 
        4.83809        0.119151       0.0612634 
        4.85379        0.119416       0.0607639 
         4.8695        0.119506       0.0602696 
        4.88521        0.119761        0.059781 
        4.90093        0.119961       0.0592978 
        4.91663        0.120233       0.0588203 
        4.93234        0.120317       0.0583476 
        4.94807        0.120834       0.0578797 
        4.96377        0.121353       0.0574179 
        4.97943        0.122031       0.0569621 
        4.99514        0.121895       0.0565101 
        5.01086        0.122977       0.0560627 
        5.02654         0.12294       0.0556212 
        5.04227        0.123589       0.0551832 
          5.058        0.124161       0.0547497 
        5.07371        0.125028       0.0543218 
        5.08942         0.12541       0.0538983 
        5.10513        0.126245       0.0534793 
        5.12084        0.126943       0.0530646 
        5.13656        0.127289       0.0526544 
        5.15225        0.128552       0.0522492 
        5.16796        0.129287       0.0518476 
        5.18369        0.129799       0.0514498 
         5.1994        0.131279        0.051057 
        5.21509        0.131909       0.0506686 
        5.23079        0.133284       0.0502839 
        5.24649        0.134471       0.0499034 
        5.26217         0.13526       0.0495271 
        5.27788        0.136452       0.0491542 
        5.29359        0.137286        0.048785 
        5.30933        0.138731       0.0484192 
        5.32504         0.13976       0.0480576 
        5.34073        0.141031       0.0477002 
        5.35646        0.141655       0.0473457 
        5.37218        0.143592       0.0469948 
        5.38789        0.144535       0.0466479 
        5.40357        0.145884        0.046305 
        5.41929        0.147895       0.0459648 
        5.43502        0.148839       0.0456279 
         5.4507        0.150834       0.0452952 
        5.46639        0.152099       0.0449658 
        5.48212         0.15388       0.0446389 
        5.49786        0.155631       0.0443149 
        5.51353        0.157406       0.0439957 
        5.52921        0.158728       0.0436793 
        5.54495         0.16105       0.0433651 
        5.56066        0.162588       0.0430544 
        5.57637        0.164675       0.0427467 
        5.59207        0.166736       0.0424423 
        5.60778         0.16867       0.0421408 
        5.62346        0.171067       0.0418426 
        5.63916        0.172799       0.0415471 
        5.65487         0.17459       0.0412542 
         5.6706        0.177024       0.0409638 
        5.68633        0.178516       0.0406761 
        5.70203        0.181302       0.0403918 
        5.71773         0.18382       0.0401102 
        5.73344        0.185171       0.0398312 
        5.74916        0.188432       0.0395546 
        5.76486        0.190173       0.0392809 
        5.78054        0.192567       0.0390103 
        5.79626        0.195245       0.0387415 
          5.812        0.197887        0.038475 
         5.8277        0.200611       0.0382117 
        5.84339        0.202982       0.0379509 
        5.85911        0.206084       0.0376921 
        5.87484        0.207862       0.0374357 
        5.89053         0.21183       0.0371822 
        5.90623        0.213654       0.0369309 
        5.92195        0.216417       0.0366815 
        5.93767        0.218943       0.0364346 
        5.95336        0.223086       0.0361903 
        5.96905        0.224753       0.0359484 
        5.98476        0.226786       0.0357084 
        6.00048        0.231609       0.0354704 
        6.01617        0.233895        0.035235 
        6.03185         0.23643        0.035002 
        6.04756        0.240718       0.0347705 
        6.06331        0.242054       0.0345406 
        6.07903        0.245257       0.0343133 
        6.09473        0.248781       0.0340883 
        6.11044        0.252394       0.0338651 
        6.12616        0.254642       0.0336439 
        6.14186        0.259091       0.0334249 
        6.15755        0.261928       0.0332079 
        6.17326        0.265859       0.0329926 
        6.18898        0.267838       0.0327791 
        6.20467        0.272389        0.032568 
        6.22036        0.274633       0.0323586 
         6.2361        0.278108       0.0321506 
         6.2518        0.282371       0.0319448 
        6.26748        0.283577       0.0317412 
        6.28319        0.288077       0.0315388 
        6.29893        0.291571        0.031338 
        6.31463         0.29593       0.0311393 
        6.33033        0.298273       0.0309423 
        6.34604        0.301954        0.030747 
        6.36177        0.305861       0.0305531 
        6.37747        0.309943       0.0303613 
