# k  (h/Mpc)    Pcb(k)  (Mpc/h)^3    Pcb_linear(k) (Mpc/h)^3   ShotnoiseSubtracted = true
      0.0200456         312.108         316.428 
      0.0350414         235.983         236.307 
      0.0492313         178.442         177.903 
      0.0637834         149.933         149.415 
      0.0800726         117.104         116.528 
       0.096163         85.8468         85.7426 
       0.111083         70.6539         70.9658 
       0.126058          62.822         62.8289 
       0.142273         51.9112         51.6146 
       0.158546         41.5894          41.252 
        0.17375         35.9199         36.0575 
       0.188953         32.5559          32.542 
       0.204907         28.5267           27.99 
       0.220756         24.0688         23.8161 
        0.23588         21.4774         21.3172 
         0.2514         19.4252         19.4014 
       0.267535         17.3024         17.2084 
       0.283568         15.3245         15.1839 
       0.299022          13.933         13.7746 
       0.314451         12.6166         12.6459 
       0.330372         11.5356         11.4716 
       0.346141         10.4608         10.3917 
       0.361624         9.63641         9.53879 
       0.377134         8.95539         8.81925 
       0.392932         8.06111         8.12203 
       0.408854         7.58134         7.47054 
       0.424564         6.98226         6.91879 
       0.440253         6.49613         6.43802 
       0.455999         6.08895         5.99076 
       0.471626         5.69627         5.58039 
        0.48727         5.28868         5.21284 
       0.502856         4.93791         4.88515 
       0.518488         4.69601         4.58257 
       0.534347         4.44081         4.29859 
       0.550082         4.09602         4.04179 
       0.565732          3.8046           3.809 
       0.581496         3.66816         3.59276 
       0.597222         3.48151          3.3928 
       0.612804         3.26653         3.20975 
       0.628434         3.13135         3.04044 
       0.644267         2.95403         2.88152 
       0.660051         2.79085         2.73435 
       0.675724         2.66097         2.59835 
       0.691403         2.54885         2.47154 
       0.707174         2.41177         2.35252 
       0.722871         2.29206         2.24185 
        0.73838         2.20623         2.13952 
       0.754018         2.12288         2.04283 
       0.769845         2.01554          1.9511 
        0.78569         1.92972         1.86494 
       0.801365         1.84133         1.78487 
       0.817031         1.77216         1.70958 
       0.832809          1.6975         1.63818 
       0.848511         1.61757         1.57121 
       0.864097         1.54683         1.50847 
       0.879701         1.48755         1.44912 
       0.895507         1.43897         1.39228 
       0.911279         1.39251         1.33862 
        0.92691         1.33567         1.28826 
       0.942635         1.28406         1.24022 
       0.958396         1.23241         1.19455 
       0.974128         1.19024         1.15127 
       0.989692         1.15522         1.11058 
        1.00528         1.11209         1.07181 
        1.02113          1.0645         1.03429 
        1.03692         1.03942        0.998721 
        1.05264         1.00192        0.964995 
        1.06832        0.971906        0.932889 
        1.08405         0.92878        0.902167 
        1.09979        0.901748        0.872819 
        1.11537        0.880428        0.845075 
        1.13105        0.853264        0.818378 
        1.14679        0.830956        0.792738 
        1.16256         0.79555        0.768153 
        1.17828        0.773692        0.744698 
        1.19395        0.748742        0.722306 
         1.2097        0.721279        0.700726 
        1.22537        0.707901        0.680137 
          1.241        0.686761        0.660442 
        1.25666        0.674283        0.641482 
        1.27241        0.646688        0.623181 
        1.28819        0.628078        0.605567 
        1.30392        0.614207        0.588688 
        1.31957        0.597548        0.572532 
        1.33529        0.579554        0.556925 
        1.35108        0.562938        0.541842 
        1.36674        0.543155        0.527427 
         1.3824        0.536338        0.513553 
        1.39811        0.519522        0.500135 
        1.41389        0.507459        0.487146 
        1.42964        0.496096        0.474643 
        1.44531        0.479117        0.462643 
        1.46101        0.470707        0.451033 
        1.47667        0.452806        0.439858 
        1.49229        0.446914        0.429094 
        1.50793        0.433241         0.41868 
        1.52367        0.424838        0.408545 
        1.53953        0.413323         0.39868 
        1.55526        0.404449         0.38922 
        1.57092        0.392591        0.380108 
        1.58662         0.38565        0.371267 
        1.60235        0.377408        0.362692 
        1.61809         0.36485        0.354384 
        1.63369        0.362044        0.346412 
        1.64941        0.351426        0.338628 
        1.66519        0.342671        0.331057 
        1.68085          0.3335        0.323772 
        1.69652        0.326624        0.316705 
        1.71228        0.321275         0.30981 
        1.72806        0.311666        0.303115 
        1.74368        0.308037        0.296686 
        1.75933        0.299918        0.290432 
        1.77505        0.293185        0.284329 
        1.79081         0.28825        0.278391 
         1.8065        0.279243        0.272649 
        1.82218        0.275532        0.267075 
        1.83797        0.269015        0.261618 
        1.85367        0.265177        0.256345 
        1.86928        0.259483         0.25125 
        1.88497        0.254168        0.246266 
        1.90073        0.248229        0.241398 
        1.91647        0.243967        0.236668 
        1.93218        0.238119        0.232074 
        1.94787        0.233709         0.22761 
        1.96363        0.229351        0.223246 
        1.97935        0.223758        0.219005 
        1.99499        0.220437        0.214899 
        2.01064        0.216371        0.210893 
         2.0264        0.210995        0.206964 
        2.04216        0.209065        0.203137 
        2.05781        0.204352        0.199432 
        2.07353        0.199079        0.195806 
        2.08928        0.195633        0.192262 
        2.10499          0.1923        0.188816 
        2.12065        0.189852        0.185465 
        2.13633        0.185574        0.182193 
        2.15211        0.183061        0.178979 
        2.16785        0.179034        0.175851 
        2.18349        0.174716        0.172819 
        2.19916        0.173404        0.169851 
        2.21489         0.16959        0.166944 
        2.23063        0.167195        0.164102 
         2.2463        0.163746         0.16134 
        2.26194        0.160393        0.158649 
        2.27765        0.157781        0.156005 
        2.29341        0.155514        0.153415 
        2.30914         0.15251        0.150889 
        2.32486        0.149775        0.148422 
        2.34061        0.147394        0.146006 
        2.35635        0.144708        0.143646 
        2.37203        0.142354        0.141346 
        2.38768        0.139917        0.139102 
        2.40339        0.137902        0.136898 
        2.41914        0.135942        0.134737 
        2.43483        0.133248        0.132631 
         2.4505        0.130394        0.130573 
        2.46622         0.12857        0.128552 
        2.48195        0.126387        0.126573 
        2.49759        0.125302        0.124647 
        2.51328        0.123141        0.122756 
        2.52906        0.120866        0.120893 
        2.54479        0.118614        0.119075 
        2.56049        0.116662        0.117298 
        2.57618        0.114979        0.115559 
        2.59189        0.113544        0.113853 
        2.60758        0.112221        0.112184 
        2.62325        0.109893         0.11055 
        2.63898        0.108378        0.108944 
        2.65468        0.106208        0.107373 
        2.67044        0.105157        0.105826 
        2.68618        0.103592        0.104313 
        2.70184        0.101689        0.102836 
        2.71755        0.099788        0.101384 
        2.73329       0.0988598       0.0999579 
        2.74897       0.0977074       0.0985638 
        2.76462       0.0957923       0.0971995 
        2.78034       0.0945906       0.0958554 
        2.79607       0.0927859       0.0945354 
        2.81179       0.0920698       0.0932418 
        2.82749       0.0904715       0.0919739 
        2.84321       0.0890699       0.0907283 
        2.85893        0.088095       0.0895061 
        2.87462       0.0870769       0.0883085 
        2.89033        0.085626       0.0871319 
        2.90605       0.0840229       0.0859756 
        2.92176       0.0832385        0.084841 
        2.93747       0.0819296       0.0837275 
        2.95318       0.0806879       0.0826338 
        2.96891        0.079683       0.0815592 
        2.98456       0.0788041       0.0805084 
        3.00023       0.0775471       0.0794747 
        3.01596       0.0765249        0.078456 
        3.03164       0.0758396        0.077458 
        3.04738       0.0744563       0.0764746 
         3.0631       0.0734946       0.0755085 
        3.07883       0.0725372       0.0745592 
        3.09456       0.0716515       0.0736263 
        3.11026       0.0705674       0.0727109 
        3.12596       0.0699359       0.0718111 
        3.14163       0.0688506       0.0709287 
        3.15734       0.0681686       0.0700591 
        3.17308       0.0673361        0.069202 
        3.18879       0.0663409       0.0683616 
        3.20447       0.0655847       0.0675364 
         3.2202       0.0649539       0.0667224 
         3.2359       0.0640558       0.0659231 
        3.25157       0.0631208        0.065139 
        3.26729       0.0623218       0.0643652 
        3.28304       0.0618609       0.0636024 
        3.29877       0.0609876       0.0628531 
        3.31446       0.0602851       0.0621175 
        3.33014       0.0598264       0.0613943 
        3.34585       0.0589335       0.0606816 
        3.36158       0.0582269       0.0599791 
        3.37727       0.0576428         0.05929 
        3.39294       0.0570363       0.0586123 
        3.40867       0.0562667       0.0579428 
        3.42439        0.055705       0.0572842 
        3.44008       0.0549599       0.0566371 
        3.45578        0.054615       0.0559995 
        3.47153       0.0537906       0.0553703 
        3.48724       0.0535193        0.054752 
        3.50292       0.0527123       0.0541445 
        3.51859       0.0520266       0.0535466 
        3.53431       0.0516994       0.0529558 
        3.55007       0.0511187       0.0523725 
        3.56577       0.0506364       0.0518003 
        3.58146        0.050183        0.051237 
        3.59719       0.0497211       0.0506807 
        3.61292       0.0491452       0.0501329 
        3.62859       0.0485689       0.0495952 
        3.64429       0.0481744       0.0490644 
        3.66003       0.0476297       0.0485398 
        3.67578       0.0471776       0.0480231 
        3.69146       0.0467088       0.0475158 
        3.70712       0.0464489       0.0470168 
        3.72284       0.0460623       0.0465231 
        3.73853       0.0454816       0.0460374 
        3.75422       0.0452313       0.0455584 
        3.76993       0.0445712       0.0450859 
        3.78564       0.0443102       0.0446202 
        3.80137       0.0437626       0.0441604 
        3.81707       0.0433876        0.043708 
        3.83279       0.0431411       0.0432617 
        3.84853       0.0427622       0.0428208 
        3.86424       0.0424231       0.0423869 
        3.87992       0.0419535       0.0419598 
        3.89561       0.0416006       0.0415384 
        3.91134       0.0412167       0.0411221 
        3.92704       0.0408754       0.0407119 
        3.94273       0.0404975       0.0403077 
        3.95845        0.040185       0.0399083 
        3.97418       0.0398324       0.0395142 
        3.98988       0.0394209        0.039126 
        4.00554       0.0390477        0.038744 
        4.02125       0.0385308       0.0383661 
        4.03698       0.0379844       0.0379926 
        4.05268        0.037597        0.037625 
        4.06839       0.0370296       0.0372619 
         4.0841       0.0365472       0.0369038 
        4.09983         0.03601       0.0365499 
        4.11555       0.0355625       0.0362007 
        4.13124       0.0351397       0.0358571 
        4.14693       0.0345789       0.0355177 
        4.16266       0.0342449       0.0351819 
        4.17839       0.0338523       0.0348506 
        4.19408       0.0334769       0.0345244 
        4.20977       0.0330212       0.0342021 
        4.22551       0.0325346       0.0338833 
        4.24123       0.0322959       0.0335688 
        4.25691       0.0318952       0.0332592 
        4.27259       0.0315711       0.0329534 
        4.28831       0.0313045       0.0326508 
        4.30404       0.0310266       0.0323518 
        4.31974       0.0307264       0.0320571 
        4.33543       0.0305046       0.0317663 
        4.35116       0.0302382       0.0314784 
        4.36688       0.0300001       0.0311942 
        4.38255       0.0297002       0.0309146 
        4.39825       0.0295401       0.0306378 
        4.41398       0.0294473       0.0303638 
         4.4297       0.0292551       0.0300935 
        4.44541       0.0290285       0.0298265 
        4.46111       0.0288385        0.029563 
        4.47683        0.028794       0.0293024 
        4.49251       0.0285426       0.0290456 
        4.50819       0.0284027       0.0287918 
         4.5239       0.0282796       0.0285408 
        4.53962       0.0282448       0.0282924 
        4.55535       0.0282033       0.0280469 
        4.57106       0.0281656       0.0278047 
        4.58678       0.0279288       0.0275652 
         4.6025       0.0279996       0.0273285 
        4.61821        0.027984       0.0270947 
        4.63391       0.0279832       0.0268639 
         4.6496        0.027891       0.0266359 
        4.66532       0.0279529       0.0264101 
        4.68103       0.0279442       0.0261871 
        4.69673       0.0279471       0.0259669 
        4.71241       0.0280316       0.0257494 
        4.72811       0.0279953       0.0255341 
        4.74384       0.0280718        0.025321 
        4.75955       0.0281642       0.0251106 
        4.77525       0.0282545       0.0249027 
        4.79096       0.0283049        0.024697 
        4.80669        0.028498       0.0244934 
         4.8224        0.028681       0.0242924 
        4.83809       0.0288228       0.0240939 
        4.85379       0.0288907       0.0238975 
         4.8695       0.0290754        0.023703 
        4.88521       0.0291745       0.0235109 
        4.90093       0.0295107       0.0233208 
        4.91663        0.029699       0.0231331 
        4.93234       0.0297532       0.0229471 
        4.94807       0.0299367       0.0227632 
        4.96377       0.0302995       0.0225815 
        4.97943       0.0306075       0.0224023 
        4.99514        0.030775       0.0222245 
        5.01086       0.0311438       0.0220485 
        5.02654       0.0313256       0.0218749 
        5.04227       0.0316761       0.0217027 
          5.058       0.0320094       0.0215322 
        5.07371       0.0321117       0.0213639 
        5.08942       0.0326862       0.0211973 
        5.10513       0.0331638       0.0210325 
        5.12084       0.0333809       0.0208694 
        5.13656       0.0337979       0.0207081 
        5.15225       0.0343208       0.0205487 
        5.16796       0.0346332       0.0203908 
        5.18369       0.0350595       0.0202344 
         5.1994       0.0355993       0.0200799 
        5.21509       0.0360137       0.0199272 
        5.23079       0.0364828       0.0197758 
        5.24649       0.0369937       0.0196262 
        5.26217       0.0375605       0.0194782 
        5.27788       0.0380575       0.0193315 
        5.29359       0.0387681       0.0191864 
        5.30933       0.0392212       0.0190425 
        5.32504       0.0398313       0.0189003 
        5.34073       0.0405448       0.0187597 
        5.35646       0.0411409       0.0186203 
        5.37218       0.0417245       0.0184823 
        5.38789        0.042726       0.0183459 
        5.40357       0.0431983        0.018211 
        5.41929       0.0439904       0.0180772 
        5.43502       0.0445583       0.0179447 
         5.4507       0.0453796       0.0178139 
        5.46639       0.0463164       0.0176843 
        5.48212         0.04712       0.0175558 
        5.49786       0.0479951       0.0174283 
        5.51353       0.0490854       0.0173028 
        5.52921       0.0497662       0.0171784 
        5.54495       0.0507989       0.0170548 
        5.56066       0.0517855       0.0169326 
        5.57637        0.052561       0.0168116 
        5.59207       0.0538184       0.0166919 
        5.60778       0.0548291       0.0165733 
        5.62346       0.0560464        0.016456 
        5.63916       0.0569793       0.0163398 
        5.65487       0.0579474       0.0162246 
         5.6706       0.0589842       0.0161104 
        5.68633        0.060727       0.0159973 
        5.70203        0.061475       0.0158854 
        5.71773       0.0630256       0.0157747 
        5.73344       0.0641055        0.015665 
        5.74916       0.0658772       0.0155562 
        5.76486       0.0671046       0.0154486 
        5.78054       0.0683552       0.0153421 
        5.79626       0.0697991       0.0152364 
          5.812       0.0714849       0.0151316 
         5.8277       0.0727686        0.015028 
        5.84339         0.07428       0.0149255 
        5.85911       0.0760979       0.0148237 
        5.87484       0.0776336       0.0147228 
        5.89053       0.0794331       0.0146231 
        5.90623       0.0815592       0.0145243 
        5.92195       0.0833004       0.0144262 
        5.93767       0.0851264       0.0143291 
        5.95336       0.0867992       0.0142331 
        5.96905       0.0892664       0.0141379 
        5.98476       0.0909543       0.0140435 
        6.00048       0.0924983       0.0139499 
        6.01617       0.0951945       0.0138573 
        6.03185       0.0971775       0.0137657 
        6.04756       0.0997473       0.0136747 
        6.06331        0.101707       0.0135843 
        6.07903        0.103923       0.0134949 
        6.09473        0.106686       0.0134064 
        6.11044        0.109413       0.0133186 
        6.12616        0.111947       0.0132316 
        6.14186        0.114797       0.0131455 
        6.15755        0.117232       0.0130601 
        6.17326        0.120103       0.0129755 
        6.18898        0.123188       0.0128915 
        6.20467        0.126045       0.0128084 
        6.22036        0.128353       0.0127261 
         6.2361         0.13163       0.0126443 
         6.2518        0.134744       0.0125634 
        6.26748        0.137454       0.0124833 
        6.28319        0.141794       0.0124037 
        6.29893         0.14477       0.0123247 
        6.31463        0.148233       0.0122466 
        6.33033        0.151219       0.0121691 
        6.34604        0.156005       0.0120923 
        6.36177        0.158411        0.012016 
        6.37747        0.163569       0.0119406 
