# k  (h/Mpc)    Pcb(k)  (Mpc/h)^3    Pcb_linear(k) (Mpc/h)^3   ShotnoiseSubtracted = true
      0.0200456         2987.74         3026.64 
      0.0350414         2237.62         2200.26 
      0.0492313         1600.43         1598.67 
      0.0637834         1306.67         1328.96 
      0.0800726         1033.42         1054.76 
       0.096163         782.429         765.322 
       0.111083         630.444         610.441 
       0.126058         537.756         540.975 
       0.142273         455.999         458.324 
       0.158546         369.137          361.98 
        0.17375         316.827         304.968 
       0.188953         286.029         276.142 
       0.204907         244.255         244.329 
       0.220756         215.288         206.717 
        0.23588         188.517         179.826 
         0.2514           170.3          163.37 
       0.267535         158.606         147.822 
       0.283568         139.001         130.359 
       0.299022         127.647         116.143 
       0.314451         120.947         106.147 
       0.330372         107.451         97.3779 
       0.346141         98.4616         88.3853 
       0.361624         90.8842         80.3302 
       0.377134         83.0399         73.9164 
       0.392932         80.4671         68.3934 
       0.408854         73.9755         63.0455 
       0.424564         70.5227           58.11 
       0.440253         64.2669         53.8747 
       0.455999         58.9009         50.1919 
       0.471626         55.9727         46.8075 
        0.48727         54.3765         43.6416 
       0.502856         50.5416         40.7975 
       0.518488         47.6603         38.2598 
       0.534347         44.9233         35.9006 
       0.550082          43.226         33.7254 
       0.565732         41.6395         31.7353 
       0.581496         38.9578         29.9126 
       0.597222         37.0078         28.2411 
       0.612804         35.3994          26.704 
       0.628434         34.7167         25.2714 
       0.644267         32.8205         23.9319 
       0.660051          31.256         22.6975 
       0.675724         29.8798         21.5576 
       0.691403         29.3229          20.495 
       0.707174         28.1712          19.498 
       0.722871         27.2206         18.5714 
        0.73838         25.8484         17.7149 
       0.754018         24.5308         16.9059 
       0.769845         23.9942         16.1387 
        0.78569         23.1928         15.4184 
       0.801365         22.3879         14.7492 
       0.817031         21.5495         14.1204 
       0.832809         20.9915         13.5244 
       0.848511         20.3057         12.9657 
       0.864097         19.6766         12.4425 
       0.879701         19.3586         11.9479 
       0.895507         18.6199         11.4744 
       0.911279          17.885         11.0276 
        0.92691         17.5629         10.6085 
       0.942635         17.1468         10.2089 
       0.958396         16.5838         9.82921 
       0.974128          16.164         9.46956 
       0.989692         15.4627         9.13153 
        1.00528         15.3633         8.80958 
        1.02113         14.8526         8.49816 
        1.03692         14.5257         8.20302 
        1.05264         14.2125          7.9233 
        1.06832         13.9157         7.65712 
        1.08405         13.5258         7.40251 
        1.09979         13.2113         7.15937 
        1.11537         12.8674          6.9296 
        1.13105         12.6576         6.70859 
        1.14679         12.3646          6.4964 
        1.16256         12.1087           6.293 
        1.17828         11.8573         6.09902 
        1.19395         11.6552          5.9139 
         1.2097         11.2959         5.73555 
        1.22537         11.1093         5.56544 
          1.241         10.8338         5.40277 
        1.25666         10.7672         5.24621 
        1.27241         10.5418         5.09515 
        1.28819         10.1191          4.9498 
        1.30392         10.1224         4.81057 
        1.31957         9.85437         4.67732 
        1.33529         9.73086         4.54865 
        1.35108         9.53685         4.42433 
        1.36674         9.31186         4.30555 
         1.3824         9.19608         4.19126 
        1.39811         9.03924         4.08075 
        1.41389         8.84716         3.97381 
        1.42964         8.72778          3.8709 
        1.44531         8.57056         3.77214 
        1.46101         8.46945         3.67663 
        1.47667         8.30204         3.58472 
        1.49229         8.09845         3.49621 
        1.50793         8.02237         3.41059 
        1.52367          7.8862         3.32729 
        1.53953          7.7463         3.24623 
        1.55526         7.65564         3.16852 
        1.57092         7.54428         3.09368 
        1.58662         7.41345         3.02109 
        1.60235         7.32901         2.95069 
        1.61809         7.22328          2.8825 
        1.63369         7.07593         2.81708 
        1.64941         6.97515         2.75323 
        1.66519         6.89146         2.69112 
        1.68085         6.77275         2.63139 
        1.69652          6.7168         2.57344 
        1.71228         6.64322         2.51692 
        1.72806         6.50897         2.46206 
        1.74368         6.44836         2.40939 
        1.75933          6.3593         2.35815 
        1.77505         6.23677         2.30817 
        1.79081         6.19309         2.25955 
         1.8065         6.13876         2.21254 
        1.82218         6.04087         2.16691 
        1.83797         5.93293         2.12226 
        1.85367         5.86181         2.07911 
        1.86928         5.81328         2.03743 
        1.88497         5.72348         1.99666 
        1.90073          5.6546         1.95686 
        1.91647         5.55077         1.91819 
        1.93218         5.51431         1.88064 
        1.94787         5.43915         1.84415 
        1.96363         5.38606         1.80849 
        1.97935         5.34627         1.77385 
        1.99499         5.27159         1.74031 
        2.01064         5.20736         1.70759 
         2.0264         5.15377         1.67551 
        2.04216         5.09913         1.64427 
        2.05781         5.03825         1.61402 
        2.07353          4.9871         1.58443 
        2.08928         4.89595         1.55551 
        2.10499         4.85896          1.5274 
        2.12065         4.86362         1.50007 
        2.13633         4.78983         1.47338 
        2.15211         4.71307         1.44717 
        2.16785         4.65433         1.42167 
        2.18349           4.643         1.39694 
        2.19916         4.58151         1.37276 
        2.21489         4.53327         1.34906 
        2.23063         4.48321         1.32591 
         2.2463         4.42856         1.30341 
        2.26194         4.37883         1.28149 
        2.27765         4.32315         1.25996 
        2.29341         4.27705         1.23887 
        2.30914         4.25088          1.2183 
        2.32486         4.21222         1.19821 
        2.34061         4.17553         1.17855 
        2.35635         4.13116         1.15934 
        2.37203         4.10929         1.14063 
        2.38768         4.07598         1.12237 
        2.40339         4.01421         1.10444 
        2.41914         3.98118         1.08686 
        2.43483         3.93577         1.06973 
         2.4505         3.90287           1.053 
        2.46622         3.87026         1.03657 
        2.48195          3.8534         1.02049 
        2.49759         3.79371         1.00483 
        2.51328         3.76941        0.989463 
        2.52906         3.72869        0.974319 
        2.54479         3.70091         0.95955 
        2.56049         3.66695        0.945115 
        2.57618         3.63531         0.93099 
        2.59189         3.63579        0.917133 
        2.60758         3.59003         0.90358 
        2.62325         3.52627        0.890317 
        2.63898         3.51637        0.877274 
        2.65468         3.48048         0.86452 
        2.67044         3.46966        0.851965 
        2.68618         3.44096        0.839688 
        2.70184         3.40933        0.827703 
        2.71755         3.36558        0.815921 
        2.73329         3.34754        0.804351 
        2.74897         3.31704        0.793044 
        2.76462         3.28742        0.781978 
        2.78034         3.27134        0.771078 
        2.79607         3.23876        0.760375 
        2.81179         3.21298        0.749887 
        2.82749         3.17855        0.739609 
        2.84321         3.16506        0.729511 
        2.85893         3.13241        0.719606 
        2.87462         3.11448        0.709901 
        2.89033           3.102        0.700367 
        2.90605         3.07079        0.690999 
        2.92176         3.03573        0.681808 
        2.93747         3.02054        0.672788 
        2.95318         2.99369         0.66393 
        2.96891         2.98098        0.655227 
        2.98456         2.95674        0.646719 
        3.00023         2.94108        0.638349 
        3.01596         2.90727        0.630102 
        3.03164         2.88649        0.622024 
        3.04738         2.87429        0.614063 
         3.0631         2.85263        0.606245 
        3.07883          2.8312        0.598563 
        3.09456         2.80054        0.591015 
        3.11026          2.7879        0.583609 
        3.12596         2.77041         0.57633 
        3.14163         2.75459        0.569193 
        3.15734         2.72826        0.562159 
        3.17308          2.7138        0.555228 
        3.18879          2.6986        0.548432 
        3.20447          2.6726         0.54176 
         3.2202         2.66368        0.535178 
         3.2359         2.64592        0.528718 
        3.25157         2.62273        0.522379 
        3.26729         2.60273        0.516125 
        3.28304         2.58641        0.509962 
        3.29877         2.56369        0.503906 
        3.31446         2.55279        0.497963 
        3.33014         2.53688         0.49212 
        3.34585         2.52167        0.486363 
        3.36158         2.49712        0.480689 
        3.37727          2.4935        0.475123 
        3.39294         2.47148         0.46965 
        3.40867         2.46026        0.464244 
        3.42439         2.43704        0.458926 
        3.44008           2.421        0.453701 
        3.45578         2.40769        0.448554 
        3.47153         2.39668        0.443476 
        3.48724         2.38204        0.438485 
        3.50292         2.36085        0.433582 
        3.51859         2.35078        0.428757 
        3.53431         2.32968         0.42399 
        3.55007         2.32853        0.419284 
        3.56577         2.30498        0.414668 
        3.58146         2.29303        0.410123 
        3.59719         2.28335        0.405636 
        3.61292         2.26547        0.401217 
        3.62859          2.2544        0.396882 
        3.64429         2.23822        0.392601 
        3.66003          2.2251        0.388371 
        3.67578         2.21234        0.384205 
        3.69146         2.19331        0.380115 
        3.70712         2.18322        0.376093 
        3.72284         2.16883        0.372113 
        3.73853         2.15835        0.368199 
        3.75422         2.14453        0.364339 
        3.76993         2.12866        0.360531 
        3.78564         2.11391        0.356779 
        3.80137         2.10199        0.353074 
        3.81707         2.09114        0.349429 
        3.83279         2.08421        0.345833 
        3.84853         2.06682        0.342282 
        3.86424         2.05234        0.338788 
        3.87992          2.0417        0.335348 
        3.89561         2.03102        0.331955 
        3.91134         2.02124        0.328602 
        3.92704         2.00441        0.325299 
        3.94273         1.99499        0.322045 
        3.95845         1.98032         0.31883 
        3.97418         1.97124        0.315657 
        3.98988         1.96276        0.312532 
        4.00554         1.95294        0.309458 
        4.02125          1.9354        0.306417 
        4.03698         1.92935        0.303411 
        4.05268         1.91262        0.300453 
        4.06839          1.9031        0.297532 
         4.0841         1.88865        0.294651 
        4.09983         1.87433        0.291804 
        4.11555         1.86563        0.288995 
        4.13124         1.85413        0.286231 
        4.14693         1.84087        0.283501 
        4.16266         1.83521        0.280801 
        4.17839         1.82201        0.278137 
        4.19408         1.80834        0.275513 
        4.20977         1.79748        0.272923 
        4.22551         1.79302        0.270359 
        4.24123          1.7782        0.267831 
        4.25691         1.76688        0.265342 
        4.27259           1.754        0.262884 
        4.28831         1.75041        0.260452 
        4.30404          1.7366        0.258049 
        4.31974         1.72648        0.255681 
        4.33543         1.71314        0.253344 
        4.35116         1.70896        0.251031 
        4.36688         1.69808        0.248747 
        4.38255         1.69158        0.246501 
        4.39825         1.67885        0.244277 
        4.41398         1.66926        0.242076 
         4.4297         1.66102        0.239905 
        4.44541         1.64636        0.237761 
        4.46111         1.64282        0.235644 
        4.47683         1.63559        0.233552 
        4.49251         1.62215        0.231489 
        4.50819         1.61657        0.229452 
         4.5239         1.60617        0.227437 
        4.53962         1.59785        0.225443 
        4.55535         1.59147        0.223472 
        4.57106         1.58195        0.221527 
        4.58678          1.5739        0.219605 
         4.6025         1.56628        0.217706 
        4.61821         1.56193        0.215829 
        4.63391         1.55275        0.213977 
         4.6496         1.54204        0.212147 
        4.66532          1.5391        0.210336 
        4.68103          1.5257        0.208547 
        4.69673         1.52243         0.20678 
        4.71241         1.51474        0.205035 
        4.72811         1.51084        0.203308 
        4.74384          1.5013        0.201598 
        4.75955         1.49755        0.199911 
        4.77525         1.48655        0.198244 
        4.79096         1.47729        0.196594 
        4.80669         1.47301        0.194961 
         4.8224         1.46886         0.19335 
        4.83809         1.46252        0.191758 
        4.85379         1.45758        0.190183 
         4.8695         1.44401        0.188624 
        4.88521          1.4433        0.187084 
        4.90093         1.43863         0.18556 
        4.91663         1.42966        0.184055 
        4.93234         1.42637        0.182565 
        4.94807         1.41634         0.18109 
        4.96377         1.41107        0.179635 
        4.97943         1.40618        0.178198 
        4.99514         1.40044        0.176774 
        5.01086         1.39288        0.175364 
        5.02654         1.38679        0.173973 
        5.04227         1.38315        0.172593 
          5.058         1.37766        0.171227 
        5.07371         1.37493        0.169879 
        5.08942          1.3684        0.168545 
        5.10513         1.36209        0.167225 
        5.12084         1.35525        0.165918 
        5.13656         1.35151        0.164626 
        5.15225         1.34513         0.16335 
        5.16796         1.33959        0.162085 
        5.18369         1.33699        0.160833 
         5.1994         1.33216        0.159596 
        5.21509         1.32383        0.158373 
        5.23079         1.32095        0.157161 
        5.24649         1.31599        0.155964 
        5.26217         1.31158        0.154779 
        5.27788         1.30376        0.153605 
        5.29359         1.29959        0.152443 
        5.30933         1.29699        0.151291 
        5.32504         1.29032        0.150153 
        5.34073         1.28669        0.149029 
        5.35646         1.28154        0.147913 
        5.37218         1.27755        0.146808 
        5.38789         1.27323        0.145717 
        5.40357         1.26961        0.144638 
        5.41929         1.26816        0.143567 
        5.43502         1.25873        0.142508 
         5.4507         1.25507        0.141461 
        5.46639          1.2533        0.140425 
        5.48212          1.2469        0.139396 
        5.49786         1.24183        0.138377 
        5.51353         1.23984        0.137373 
        5.52921         1.23344        0.136378 
        5.54495         1.23207         0.13539 
        5.56066         1.22807        0.134413 
        5.57637         1.22401        0.133445 
        5.59207         1.21788        0.132488 
        5.60778         1.21662         0.13154 
        5.62346         1.21027        0.130602 
        5.63916         1.20918        0.129673 
        5.65487         1.20245        0.128752 
         5.6706         1.19835        0.127839 
        5.68633         1.19472        0.126935 
        5.70203         1.19348        0.126041 
        5.71773         1.18768        0.125156 
        5.73344          1.1859        0.124279 
        5.74916         1.18164         0.12341 
        5.76486         1.17611         0.12255 
        5.78054         1.17489          0.1217 
        5.79626         1.17107        0.120855 
          5.812         1.16718        0.120017 
         5.8277         1.16229         0.11919 
        5.84339         1.16239        0.118371 
        5.85911         1.15708        0.117558 
        5.87484         1.15215        0.116752 
        5.89053         1.14861        0.115956 
        5.90623         1.14692        0.115167 
        5.92195         1.14455        0.114383 
        5.93767         1.13949        0.113608 
        5.95336         1.13464         0.11284 
        5.96905         1.13103        0.112081 
        5.98476         1.12946        0.111327 
        6.00048          1.1273         0.11058 
        6.01617         1.12086         0.10984 
        6.03185         1.11974        0.109109 
        6.04756         1.11906        0.108382 
        6.06331         1.11331         0.10766 
        6.07903          1.1125        0.106947 
        6.09473         1.10809         0.10624 
        6.11044         1.10493         0.10554 
        6.12616         1.10073        0.104845 
        6.14186         1.09814        0.104158 
        6.15755         1.09575        0.103477 
        6.17326         1.09347        0.102801 
        6.18898         1.09004        0.102131 
        6.20467         1.08486        0.101468 
        6.22036         1.08408        0.100812 
         6.2361         1.08067        0.100159 
         6.2518         1.07986       0.0995128 
        6.26748         1.07506        0.098874 
        6.28319           1.073        0.098239 
        6.29893         1.06825       0.0976091 
        6.31463         1.06729       0.0969857 
        6.33033         1.06224       0.0963679 
        6.34604         1.05999       0.0957551 
        6.36177         1.05853       0.0951471 
        6.37747         1.05588       0.0945454 
