# k  (h/Mpc)    Pcb(k)  (Mpc/h)^3    Pcb_linear(k) (Mpc/h)^3   ShotnoiseSubtracted = true
      0.0200456         21346.5         21850.8 
      0.0350414         15160.8         15884.8 
      0.0492313         11299.8         11541.6 
      0.0637834         9780.86          9594.4 
      0.0800726         7717.45         7614.84 
       0.096163         5349.94         5525.23 
       0.111083         4299.88         4407.06 
       0.126058         3959.59         3905.56 
       0.142273         3428.81         3308.86 
       0.158546         2998.77         2613.31 
        0.17375         2398.82         2201.71 
       0.188953         2345.45          1993.6 
       0.204907         2203.79         1763.93 
       0.220756         1909.59         1492.39 
        0.23588         1706.16         1298.25 
         0.2514         1485.16         1179.45 
       0.267535         1484.72          1067.2 
       0.283568         1345.99         941.125 
       0.299022         1272.98         838.493 
       0.314451         1213.18         766.326 
       0.330372         1113.25         703.018 
       0.346141         1063.63         638.096 
       0.361624         1021.99         579.942 
       0.377134          951.29         533.638 
       0.392932          913.23         493.765 
       0.408854         895.241         455.156 
       0.424564         828.306         419.524 
       0.440253         813.821         388.947 
       0.455999         783.426          362.36 
       0.471626         754.177         337.926 
        0.48727         722.955          315.07 
       0.502856         702.797         294.536 
       0.518488           695.4         276.216 
       0.534347         651.556         259.184 
       0.550082         634.448          243.48 
       0.565732         631.732         229.112 
       0.581496         596.203         215.954 
       0.597222         584.895         203.886 
       0.612804         573.452         192.789 
       0.628434         556.845         182.446 
       0.644267         542.198         172.776 
       0.660051         525.653         163.864 
       0.675724         520.575         155.634 
       0.691403          503.07         147.963 
       0.707174         486.488         140.766 
       0.722871         480.789         134.076 
        0.73838         472.018         127.892 
       0.754018         460.987         122.052 
       0.769845         452.181         116.513 
        0.78569         444.376         111.313 
       0.801365         432.937         106.482 
       0.817031         420.479         101.942 
       0.832809         417.274         97.6395 
       0.848511         407.799         93.6057 
       0.864097         395.959         89.8286 
       0.879701         390.715         86.2573 
       0.895507         387.706          82.839 
       0.911279         375.913         79.6139 
        0.92691          370.88         76.5879 
       0.942635         361.896         73.7033 
       0.958396         353.038         70.9618 
       0.974128         347.561         68.3653 
       0.989692         344.901         65.9249 
        1.00528         335.823         63.6006 
        1.02113         334.067         61.3523 
        1.03692         324.219         59.2215 
        1.05264         322.302         57.2021 
        1.06832          313.43         55.2804 
        1.08405         309.126         53.4423 
        1.09979         303.508         51.6869 
        1.11537         298.176         50.0281 
        1.13105         292.808         48.4325 
        1.14679          286.36         46.9006 
        1.16256         281.131         45.4322 
        1.17828          279.82         44.0318 
        1.19395         272.668         42.6953 
         1.2097         269.727         41.4077 
        1.22537         263.749         40.1796 
          1.241         262.011         39.0052 
        1.25666         256.738         37.8749 
        1.27241         253.188         36.7844 
        1.28819         249.343          35.735 
        1.30392         243.345         34.7298 
        1.31957         243.359         33.7678 
        1.33529         238.109         32.8389 
        1.35108         232.735         31.9413 
        1.36674         230.111         31.0839 
         1.3824         228.707         30.2587 
        1.39811         224.837         29.4609 
        1.41389          221.71         28.6889 
        1.42964         219.251         27.9459 
        1.44531         215.769         27.2329 
        1.46101          212.29         26.5434 
        1.47667         209.276         25.8798 
        1.49229          207.31         25.2408 
        1.50793         202.229         24.6227 
        1.52367         200.878         24.0213 
        1.53953         197.881         23.4361 
        1.55526         193.284         22.8751 
        1.57092         192.215         22.3348 
        1.58662         189.867         21.8107 
        1.60235         186.352         21.3024 
        1.61809         184.878         20.8102 
        1.63369          181.56         20.3378 
        1.64941         177.826         19.8769 
        1.66519         176.972         19.4285 
        1.68085          174.33         18.9972 
        1.69652         171.667         18.5789 
        1.71228         168.155         18.1709 
        1.72806         166.591         17.7748 
        1.74368         164.325         17.3945 
        1.75933         161.389         17.0246 
        1.77505         160.288         16.6638 
        1.79081         158.659         16.3127 
         1.8065         156.014         15.9734 
        1.82218         154.014          15.644 
        1.83797          152.63         15.3216 
        1.85367         150.163         15.0101 
        1.86928         147.573         14.7092 
        1.88497         145.844         14.4149 
        1.90073         144.556         14.1275 
        1.91647         142.682         13.8483 
        1.93218         141.013         13.5772 
        1.94787           138.4         13.3138 
        1.96363         136.422         13.0564 
        1.97935         135.526         12.8063 
        1.99499         133.009         12.5641 
        2.01064         131.764         12.3279 
         2.0264         130.056         12.0963 
        2.04216         128.342         11.8707 
        2.05781         127.159         11.6524 
        2.07353         125.734         11.4387 
        2.08928         123.277           11.23 
        2.10499         122.221          11.027 
        2.12065         120.088         10.8297 
        2.13633         119.388          10.637 
        2.15211         116.879         10.4478 
        2.16785         115.501         10.2637 
        2.18349         114.599         10.0852 
        2.19916         113.173          9.9106 
        2.21489         111.811         9.73954 
        2.23063         109.781         9.57241 
         2.2463         108.774         9.40996 
        2.26194         107.029         9.25168 
        2.27765         106.133         9.09624 
        2.29341          104.88         8.94396 
        2.30914         103.832         8.79549 
        2.32486         102.377         8.65048 
        2.34061         101.182          8.5085 
        2.35635         99.9177         8.36983 
        2.37203         98.6045         8.23474 
        2.38768         97.4593         8.10291 
        2.40339         96.4245         7.97349 
        2.41914         95.1218          7.8466 
        2.43483         94.2145         7.72292 
         2.4505         93.0778         7.60212 
        2.46622         91.9876         7.48348 
        2.48195          90.737         7.36737 
        2.49759          89.419         7.25435 
        2.51328          89.141         7.14341 
        2.52906         87.4914         7.03408 
        2.54479         86.6342         6.92745 
        2.56049         85.6294         6.82324 
        2.57618         84.5949         6.72127 
        2.59189         83.6676         6.62122 
        2.60758         82.8458         6.52338 
        2.62325         81.7522         6.42762 
        2.63898         80.5349         6.33346 
        2.65468         79.7551         6.24138 
        2.67044         78.9848         6.15074 
        2.68618         78.0141         6.06211 
        2.70184          77.614         5.97558 
        2.71755         76.3436         5.89053 
        2.73329         75.6486           5.807 
        2.74897         74.7348         5.72536 
        2.76462          73.682         5.64548 
        2.78034         73.1573         5.56678 
        2.79607         71.7761         5.48951 
        2.81179         71.1254         5.41379 
        2.82749         70.3314         5.33959 
        2.84321         69.8397         5.26669 
        2.85893         69.0285         5.19518 
        2.87462         68.0506         5.12512 
        2.89033         67.2146         5.05628 
        2.90605         66.5927         4.98865 
        2.92176         65.7976          4.9223 
        2.93747         65.3966         4.85718 
        2.95318         64.4323         4.79323 
        2.96891         64.0255          4.7304 
        2.98456         63.3484         4.66897 
        3.00023         62.3691         4.60855 
        3.01596         61.8572         4.54901 
        3.03164         61.0137         4.49069 
        3.04738         60.5613         4.43322 
         3.0631         59.8597         4.37678 
        3.07883         59.2961         4.32131 
        3.09456         58.6427         4.26682 
        3.11026         57.8974         4.21335 
        3.12596         57.2849          4.1608 
        3.14163         56.7952         4.10927 
        3.15734         56.2185          4.0585 
        3.17308         55.4291         4.00846 
        3.18879         55.1614          3.9594 
        3.20447         54.2754         3.91123 
         3.2202         53.9717         3.86371 
         3.2359         53.2474         3.81707 
        3.25157         52.6999         3.77131 
        3.26729         52.2941         3.72616 
        3.28304          51.851         3.68166 
        3.29877         51.2287         3.63794 
        3.31446         50.4296         3.59503 
        3.33014         50.1762         3.55285 
        3.34585         49.6586         3.51129 
        3.36158           49.17         3.47032 
        3.37727         48.7764         3.43014 
        3.39294         48.2818         3.39063 
        3.40867          47.711          3.3516 
        3.42439         47.2388         3.31321 
        3.44008         46.8255         3.27549 
        3.45578         46.2554         3.23833 
        3.47153         45.8604         3.20166 
        3.48724         45.3388         3.16563 
        3.50292         45.0978         3.13024 
        3.51859         44.5392          3.0954 
        3.53431         44.2011         3.06099 
        3.55007          43.593         3.02701 
        3.56577         43.3503         2.99368 
        3.58146         42.7813         2.96087 
        3.59719         42.4826         2.92848 
        3.61292         41.9191         2.89658 
        3.62859         41.6208         2.86528 
        3.64429         41.2397         2.83438 
        3.66003         40.8728         2.80384 
        3.67578         40.3438         2.77376 
        3.69146         40.0589         2.74423 
        3.70712         39.6377         2.71519 
        3.72284         39.1916         2.68647 
        3.73853         38.9069          2.6582 
        3.75422         38.3722         2.63034 
        3.76993         38.1802         2.60284 
        3.78564         37.8011         2.57576 
        3.80137         37.4521         2.54901 
        3.81707          37.127          2.5227 
        3.83279         36.8769         2.49674 
        3.84853         36.4473          2.4711 
        3.86424         36.0867         2.44587 
        3.87992         35.8821         2.42103 
        3.89561         35.4963         2.39654 
        3.91134         35.0542         2.37233 
        3.92704         34.8933         2.34849 
        3.94273         34.4528           2.325 
        3.95845         34.3149         2.30178 
        3.97418         33.9347         2.27888 
        3.98988         33.6587         2.25632 
        4.00554         33.3195         2.23413 
        4.02125         33.0131         2.21217 
        4.03698         32.6978         2.19047 
        4.05268         32.4344         2.16912 
        4.06839          32.096         2.14803 
         4.0841          31.807         2.12723 
        4.09983         31.5566         2.10667 
        4.11555         31.2699          2.0864 
        4.13124         31.0542         2.06644 
        4.14693         30.7018         2.04673 
        4.16266         30.4654         2.02723 
        4.17839         30.1188           2.008 
        4.19408          29.921         1.98906 
        4.20977          29.618         1.97036 
        4.22551         29.3271         1.95185 
        4.24123          29.222          1.9336 
        4.25691         28.9483         1.91563 
        4.27259         28.6594         1.89789 
        4.28831         28.3806         1.88033 
        4.30404         28.2321         1.86298 
        4.31974         27.8736         1.84588 
        4.33543         27.6449         1.82901 
        4.35116          27.511         1.81231 
        4.36688         27.2149         1.79583 
        4.38255         26.9692         1.77961 
        4.39825         26.7148         1.76355 
        4.41398         26.5616         1.74767 
         4.4297         26.2857         1.73199 
        4.44541         26.0477         1.71651 
        4.46111         25.8442         1.70123 
        4.47683         25.6891         1.68612 
        4.49251         25.4007         1.67123 
        4.50819         25.2519         1.65653 
         4.5239         25.0247         1.64198 
        4.53962         24.8094         1.62758 
        4.55535         24.6369         1.61335 
        4.57106         24.3746         1.59931 
        4.58678         24.2021         1.58544 
         4.6025         23.9641         1.57172 
        4.61821         23.8161         1.55817 
        4.63391         23.6145          1.5448 
         4.6496         23.4188         1.53159 
        4.66532         23.2441         1.51852 
        4.68103         23.0303          1.5056 
        4.69673         22.8757         1.49284 
        4.71241         22.7179         1.48025 
        4.72811         22.4775         1.46778 
        4.74384         22.3177         1.45544 
        4.75955         22.1859         1.44325 
        4.77525         21.9366         1.43122 
        4.79096         21.8003          1.4193 
        4.80669         21.6273         1.40752 
         4.8224         21.4744         1.39588 
        4.83809         21.2722         1.38439 
        4.85379         21.0471         1.37302 
         4.8695         20.9545         1.36177 
        4.88521         20.7733         1.35065 
        4.90093         20.5356         1.33965 
        4.91663         20.4096         1.32878 
        4.93234         20.3023         1.31802 
        4.94807         20.0498         1.30738 
        4.96377          19.955         1.29687 
        4.97943           19.84          1.2865 
        4.99514         19.6259         1.27622 
        5.01086         19.5137         1.26604 
        5.02654         19.3089         1.25599 
        5.04227         19.2277         1.24603 
          5.058         19.0176         1.23617 
        5.07371         18.8807         1.22644 
        5.08942          18.709          1.2168 
        5.10513         18.6161         1.20728 
        5.12084         18.4599         1.19785 
        5.13656         18.2577         1.18852 
        5.15225          18.186          1.1793 
        5.16796         18.0686         1.17017 
        5.18369         17.8743         1.16113 
         5.1994         17.8098          1.1522 
        5.21509         17.5767         1.14337 
        5.23079         17.5158         1.13462 
        5.24649         17.3647         1.12598 
        5.26217         17.2588         1.11742 
        5.27788         17.0965         1.10895 
        5.29359          16.967         1.10056 
        5.30933         16.8109         1.09224 
        5.32504         16.7122         1.08403 
        5.34073         16.5808         1.07591 
        5.35646         16.4692         1.06785 
        5.37218          16.337         1.05988 
        5.38789         16.2106           1.052 
        5.40357         16.0822         1.04421 
        5.41929         15.9989         1.03648 
        5.43502         15.8665         1.02883 
         5.4507         15.7623         1.02127 
        5.46639         15.6394         1.01379 
        5.48212         15.5203         1.00637 
        5.49786         15.3793        0.999011 
        5.51353          15.286        0.991762 
        5.52921         15.1948        0.984578 
        5.54495         15.1016        0.977444 
        5.56066         14.9645        0.970389 
        5.57637         14.8639        0.963404 
        5.59207         14.7314        0.956494 
        5.60778         14.6522        0.949649 
        5.62346         14.5655        0.942881 
        5.63916         14.4491        0.936172 
        5.65487          14.322        0.929525 
         5.6706         14.2194        0.922934 
        5.68633         14.1227        0.916405 
        5.70203         14.0362        0.909953 
        5.71773         13.9494        0.903563 
        5.73344         13.8176        0.897232 
        5.74916         13.7497        0.890955 
        5.76486         13.6563        0.884747 
        5.78054         13.5497        0.878608 
        5.79626         13.4573         0.87251 
          5.812         13.3473        0.866463 
         5.8277         13.2537        0.860491 
        5.84339         13.1511        0.854576 
        5.85911         13.0666        0.848705 
        5.87484         12.9595         0.84289 
        5.89053         12.8945        0.837141 
        5.90623         12.8079        0.831442 
        5.92195         12.7088        0.825787 
        5.93767         12.6098        0.820188 
        5.95336         12.5166         0.81465 
        5.96905         12.4595        0.809165 
        5.98476          12.341        0.803722 
        6.00048         12.2786        0.798328 
        6.01617         12.1935        0.792991 
        6.03185         12.1123        0.787709 
        6.04756         12.0257        0.782462 
        6.06331         11.9414        0.777252 
        6.07903         11.8639          0.7721 
        6.09473         11.7639        0.766999 
        6.11044         11.7055         0.76194 
        6.12616         11.6176        0.756928 
        6.14186         11.5487        0.751965 
        6.15755         11.4499        0.747048 
        6.17326         11.3783         0.74217 
        6.18898          11.321        0.737334 
        6.20467          11.253        0.732549 
        6.22036         11.1427        0.727807 
         6.2361         11.0901        0.723094 
         6.2518         11.0263        0.718431 
        6.26748         10.9562        0.713819 
        6.28319         10.8744        0.709235 
        6.29893         10.7892        0.704687 
        6.31463         10.7094        0.700186 
        6.33033         10.6464        0.695727 
        6.34604         10.6079        0.691302 
        6.36177         10.4972        0.686913 
        6.37747         10.4401        0.682569 
