# k  (h/Mpc)    Pcb(k)  (Mpc/h)^3    Pcb_linear(k) (Mpc/h)^3   ShotnoiseSubtracted = true
      0.0200456         20682.4         21165.2 
      0.0350414         14699.2         15386.4 
      0.0492313         10953.7         11179.5 
      0.0637834          9474.7         9293.39 
      0.0800726         7477.18         7375.93 
       0.096163         5185.07         5351.88 
       0.111083         4164.03          4268.8 
       0.126058         3835.55         3783.03 
       0.142273            3321         3205.05 
       0.158546         2897.14         2531.32 
        0.17375         2316.81         2132.64 
       0.188953         2264.21         1931.05 
       0.204907         2127.67         1708.59 
       0.220756         1841.97         1445.57 
        0.23588         1644.05         1257.52 
         0.2514          1430.6         1142.44 
       0.267535         1428.94         1033.72 
       0.283568         1295.34         911.599 
       0.299022         1224.26         812.187 
       0.314451         1166.63         742.284 
       0.330372         1071.04         680.962 
       0.346141         1019.71         618.077 
       0.361624         979.814         561.747 
       0.377134         911.545         516.896 
       0.392932         875.618         478.274 
       0.408854          857.06         440.876 
       0.424564         793.913         406.362 
       0.440253         780.264         376.745 
       0.455999         749.172         350.991 
       0.471626         720.587         327.324 
        0.48727          690.91         305.185 
       0.502856         671.939         285.296 
       0.518488         664.517          267.55 
       0.534347         622.259         251.052 
       0.550082         604.927         235.841 
       0.565732         602.889         221.924 
       0.581496         568.426         209.179 
       0.597222          558.08         197.489 
       0.612804         546.518         186.741 
       0.628434         530.318         176.722 
       0.644267         516.356         167.356 
       0.660051         500.239         158.723 
       0.675724         495.591         150.752 
       0.691403         478.884         143.321 
       0.707174          463.01          136.35 
       0.722871         457.732         129.869 
        0.73838         449.642          123.88 
       0.754018         438.547         118.223 
       0.769845         429.785         112.857 
        0.78569         423.017          107.82 
       0.801365         411.869         103.141 
       0.817031         399.575         98.7438 
       0.832809         396.763         94.5762 
       0.848511         387.502          90.669 
       0.864097         376.785         87.0104 
       0.879701         371.775         83.5512 
       0.895507          368.34         80.2401 
       0.911279         356.868         77.1161 
        0.92691          352.36         74.1851 
       0.942635         343.999          71.391 
       0.958396         335.806         68.7355 
       0.974128          330.44         66.2204 
       0.989692         327.555         63.8566 
        1.00528         319.488         61.6052 
        1.02113         317.609         59.4275 
        1.03692         308.419         57.3636 
        1.05264         306.443         55.4075 
        1.06832         298.227         53.5461 
        1.08405         293.865         51.7656 
        1.09979         288.351         50.0653 
        1.11537          283.61         48.4586 
        1.13105         278.091          46.913 
        1.14679         272.766         45.4292 
        1.16256         267.799         44.0069 
        1.17828         266.021         42.6504 
        1.19395          259.37         41.3558 
         1.2097         257.228         40.1086 
        1.22537         251.342          38.919 
          1.241         249.913         37.7815 
        1.25666         244.569         36.6867 
        1.27241         241.294         35.6303 
        1.28819         237.776         34.6139 
        1.30392          231.96         33.6402 
        1.31957          232.22         32.7084 
        1.33529         227.094         31.8086 
        1.35108          221.85         30.9392 
        1.36674           219.9         30.1087 
         1.3824         218.349         29.3094 
        1.39811         214.859         28.5366 
        1.41389         211.489         27.7888 
        1.42964         209.182         27.0691 
        1.44531         205.942         26.3785 
        1.46101         202.823         25.7106 
        1.47667         199.598         25.0679 
        1.49229         197.852         24.4489 
        1.50793         193.219         23.8502 
        1.52367         191.823         23.2677 
        1.53953         188.989         22.7008 
        1.55526          184.51         22.1574 
        1.57092         183.574          21.634 
        1.58662          181.31         21.1264 
        1.60235          177.93         20.6341 
        1.61809         176.752         20.1573 
        1.63369         173.277         19.6998 
        1.64941         169.698         19.2533 
        1.66519         169.049          18.819 
        1.68085         166.663         18.4012 
        1.69652         164.091         17.9961 
        1.71228         160.873         17.6008 
        1.72806         159.276         17.2171 
        1.74368         157.354         16.8488 
        1.75933         154.452         16.4905 
        1.77505         153.309          16.141 
        1.79081         151.848          15.801 
         1.8065         149.563         15.4722 
        1.82218         147.316         15.1532 
        1.83797         146.165         14.8409 
        1.85367         143.887         14.5392 
        1.86928         141.374         14.2477 
        1.88497         139.649         13.9626 
        1.90073         138.422         13.6843 
        1.91647         136.583         13.4139 
        1.93218         134.973         13.1513 
        1.94787          132.78         12.8961 
        1.96363         130.798         12.6467 
        1.97935         129.634         12.4045 
        1.99499         127.364         12.1699 
        2.01064         126.209         11.9411 
         2.0264          124.44         11.7168 
        2.04216          122.87         11.4983 
        2.05781         121.798         11.2868 
        2.07353         120.502         11.0799 
        2.08928         118.011         10.8777 
        2.10499         116.915         10.6811 
        2.12065         115.016         10.4899 
        2.13633         114.398         10.3033 
        2.15211         111.949           10.12 
        2.16785         110.458          9.9417 
        2.18349         109.658         9.76881 
        2.19916          108.38         9.59967 
        2.21489         106.972         9.43398 
        2.23063         105.144         9.27209 
         2.2463         104.101         9.11473 
        2.26194         102.597         8.96142 
        2.27765          101.67         8.81086 
        2.29341         100.586         8.66336 
        2.30914         99.4008         8.51955 
        2.32486         98.2153         8.37909 
        2.34061         96.9701         8.24156 
        2.35635         95.6769         8.10724 
        2.37203          94.393         7.97639 
        2.38768         93.4006         7.84869 
        2.40339         92.4275         7.72334 
        2.41914         91.1999         7.60043 
        2.43483         90.2939         7.48063 
         2.4505          89.107         7.36361 
        2.46622         87.9812          7.2487 
        2.48195         86.8396         7.13624 
        2.49759         85.6196         7.02676 
        2.51328          85.341         6.91929 
        2.52906          83.698          6.8134 
        2.54479         82.8565         6.71012 
        2.56049         81.9537         6.60917 
        2.57618         81.0181          6.5104 
        2.59189         80.0753         6.41349 
        2.60758         79.3724         6.31872 
        2.62325         78.2441         6.22597 
        2.63898         77.0702         6.13476 
        2.65468         76.3775         6.04557 
        2.67044         75.5379         5.95777 
        2.68618         74.6932         5.87193 
        2.70184         74.2548         5.78811 
        2.71755         73.1332         5.70572 
        2.73329         72.3925         5.62482 
        2.74897         71.4779         5.54574 
        2.76462         70.5697         5.46836 
        2.78034         70.0163         5.39214 
        2.79607         68.7594         5.31729 
        2.81179         68.1709         5.24395 
        2.82749         67.3599         5.17207 
        2.84321         66.8969         5.10146 
        2.85893         66.1157         5.03219 
        2.87462          65.152         4.96433 
        2.89033         64.4385         4.89765 
        2.90605         63.7984         4.83214 
        2.92176         63.1049         4.76787 
        2.93747          62.711         4.70479 
        2.95318         61.8103         4.64285 
        2.96891         61.3961         4.58199 
        2.98456         60.7183         4.52249 
        3.00023         59.7876         4.46396 
        3.01596         59.3392         4.40629 
        3.03164          58.503          4.3498 
        3.04738         58.0963         4.29413 
         3.0631         57.4079         4.23946 
        3.07883         56.8241         4.18574 
        3.09456         56.1924         4.13296 
        3.11026         55.4924         4.08116 
        3.12596         54.9357         4.03027 
        3.14163         54.4185         3.98035 
        3.15734         53.9689         3.93117 
        3.17308         53.1516          3.8827 
        3.18879         52.9079         3.83518 
        3.20447         52.0137         3.78852 
         3.2202         51.7334         3.74249 
         3.2359         51.0775         3.69731 
        3.25157         50.5299         3.65299 
        3.26729         50.1156         3.60925 
        3.28304          49.624         3.56615 
        3.29877         49.1169         3.52381 
        3.31446         48.3889         3.48225 
        3.33014         48.0942         3.44139 
        3.34585         47.7545         3.40113 
        3.36158         47.2038         3.36145 
        3.37727         46.8177         3.32252 
        3.39294         46.3244         3.28425 
        3.40867          45.804         3.24645 
        3.42439         45.2281         3.20926 
        3.44008         44.9206         3.17272 
        3.45578         44.3868         3.13673 
        3.47153         43.9778         3.10122 
        3.48724         43.5317         3.06631 
        3.50292         43.2248         3.03203 
        3.51859         42.7219         2.99829 
        3.53431         42.3542         2.96495 
        3.55007         41.7783         2.93204 
        3.56577         41.5302         2.89976 
        3.58146         41.0278         2.86798 
        3.59719         40.7248          2.8366 
        3.61292         40.1737         2.80571 
        3.62859         39.9247         2.77539 
        3.64429         39.6009         2.74545 
        3.66003         39.1884         2.71587 
        3.67578          38.678         2.68674 
        3.69146         38.3969         2.65814 
        3.70712         38.0565         2.63001 
        3.72284         37.5761         2.60218 
        3.73853         37.3006         2.57481 
        3.75422          36.827         2.54781 
        3.76993         36.6791         2.52118 
        3.78564         36.3278         2.49495 
        3.80137         35.9511         2.46904 
        3.81707         35.6153         2.44355 
        3.83279         35.4455         2.41841 
        3.84853         34.9829         2.39357 
        3.86424         34.6042         2.36914 
        3.87992         34.4388         2.34508 
        3.89561         34.0561         2.32135 
        3.91134         33.6075         2.29791 
        3.92704         33.4899         2.27481 
        3.94273         33.0416         2.25206 
        3.95845         32.8974         2.22957 
        3.97418         32.5421         2.20739 
        3.98988         32.2739         2.18553 
        4.00554         31.9371         2.16404 
        4.02125         31.6014         2.14277 
        4.03698         31.3677         2.12175 
        4.05268         31.1048         2.10106 
        4.06839         30.7806         2.08064 
         4.0841         30.5672         2.06049 
        4.09983         30.2801         2.04058 
        4.11555         29.9985         2.02094 
        4.13124         29.7965         2.00161 
        4.14693         29.4406         1.98252 
        4.16266         29.2138         1.96363 
        4.17839         28.9143           1.945 
        4.19408         28.6928         1.92666 
        4.20977         28.4404         1.90854 
        4.22551         28.1633         1.89062 
        4.24123         28.0495         1.87294 
        4.25691          27.739         1.85553 
        4.27259          27.511         1.83834 
        4.28831         27.2406         1.82134 
        4.30404         27.0645         1.80453 
        4.31974          26.738         1.78797 
        4.33543         26.5293         1.77163 
        4.35116          26.422         1.75545 
        4.36688         26.1097         1.73949 
        4.38255         25.8567         1.72378 
        4.39825         25.6373         1.70823 
        4.41398         25.4401         1.69284 
         4.4297          25.246         1.67765 
        4.44541         24.9803         1.66266 
        4.46111         24.8137         1.64786 
        4.47683         24.6365         1.63323 
        4.49251         24.3692          1.6188 
        4.50819         24.1904         1.60456 
         4.5239         23.9892         1.59046 
        4.53962         23.8002         1.57652 
        4.55535         23.6007         1.56273 
        4.57106         23.3993         1.54914 
        4.58678          23.219          1.5357 
         4.6025         23.0296         1.52241 
        4.61821         22.8727         1.50929 
        4.63391         22.6559         1.49634 
         4.6496         22.4538         1.48354 
        4.66532         22.3044         1.47087 
        4.68103         22.0913         1.45836 
        4.69673         21.9309         1.44601 
        4.71241         21.7859         1.43381 
        4.72811         21.5698         1.42173 
        4.74384          21.418         1.40977 
        4.75955          21.269         1.39797 
        4.77525         21.0455         1.38632 
        4.79096         20.9163         1.37478 
        4.80669         20.7332         1.36336 
         4.8224         20.5781         1.35209 
        4.83809         20.4108         1.34096 
        4.85379         20.1623         1.32994 
         4.8695         20.0952         1.31905 
        4.88521         19.9269         1.30827 
        4.90093         19.7102         1.29762 
        4.91663          19.555         1.28709 
        4.93234         19.4678         1.27667 
        4.94807         19.2544         1.26636 
        4.96377         19.1671         1.25618 
        4.97943         19.0386         1.24614 
        4.99514         18.8436         1.23618 
        5.01086         18.7172         1.22632 
        5.02654          18.533         1.21659 
        5.04227         18.4365         1.20694 
          5.058         18.2427         1.19739 
        5.07371         18.1282         1.18796 
        5.08942         17.9911         1.17863 
        5.10513         17.8625          1.1694 
        5.12084         17.7118         1.16026 
        5.13656         17.5199         1.15123 
        5.15225         17.4707          1.1423 
        5.16796         17.3521         1.13346 
        5.18369         17.1609          1.1247 
         5.1994         17.0991         1.11605 
        5.21509         16.8867          1.1075 
        5.23079         16.7996         1.09903 
        5.24649          16.682         1.09065 
        5.26217         16.5389         1.08237 
        5.27788         16.4044         1.07416 
        5.29359         16.3126         1.06603 
        5.30933         16.1477         1.05798 
        5.32504         16.0462         1.05002 
        5.34073         15.9302         1.04215 
        5.35646         15.8326         1.03435 
        5.37218         15.6847         1.02663 
        5.38789         15.5757           1.019 
        5.40357         15.4578         1.01145 
        5.41929         15.3862         1.00396 
        5.43502         15.2459        0.996552 
         5.4507         15.1464        0.989233 
        5.46639         15.0264        0.981987 
        5.48212         14.8974        0.974796 
        5.49786         14.7711        0.967668 
        5.51353          14.687        0.960647 
        5.52921         14.6043        0.953689 
        5.54495         14.5145        0.946779 
        5.56066          14.394        0.939945 
        5.57637         14.2771        0.933179 
        5.59207         14.1515        0.926486 
        5.60778         14.0946        0.919856 
        5.62346         13.9845        0.913299 
        5.63916         13.8625        0.906801 
        5.65487         13.7689        0.900362 
         5.6706         13.6574        0.893979 
        5.68633         13.5776        0.887655 
        5.70203         13.4827        0.881404 
        5.71773         13.4022        0.875216 
        5.73344         13.3001        0.869083 
        5.74916         13.2041        0.863003 
        5.76486         13.1001         0.85699 
        5.78054         13.0161        0.851043 
        5.79626          12.926        0.845136 
          5.812         12.8147        0.839279 
         5.8277         12.7272        0.833495 
        5.84339         12.6528        0.827765 
        5.85911         12.5597        0.822078 
        5.87484          12.465        0.816445 
        5.89053         12.3771        0.810877 
        5.90623         12.3016        0.805357 
        5.92195         12.2095         0.79988 
        5.93767         12.1195        0.794456 
        5.95336         12.0338        0.789091 
        5.96905         11.9658        0.783778 
        5.98476         11.8763        0.778507 
        6.00048         11.7819        0.773282 
        6.01617          11.717        0.768112 
        6.03185         11.6366        0.762996 
        6.04756         11.5716        0.757913 
        6.06331         11.4736        0.752867 
        6.07903         11.3942        0.747877 
        6.09473         11.3136        0.742936 
        6.11044         11.2457        0.738036 
        6.12616         11.1726        0.733181 
        6.14186         11.1041        0.728374 
        6.15755         11.0192         0.72361 
        6.17326         10.9209        0.718886 
        6.18898         10.8847        0.714201 
        6.20467         10.8003        0.709567 
        6.22036         10.7115        0.704973 
         6.2361         10.6578        0.700408 
         6.2518         10.5987        0.695891 
        6.26748         10.5208        0.691424 
        6.28319          10.439        0.686984 
        6.29893         10.3655        0.682578 
        6.31463         10.2983        0.678219 
        6.33033         10.2217        0.673899 
        6.34604         10.1846        0.669614 
        6.36177         10.0925        0.665362 
        6.37747          10.041        0.661155 
