# k  (h/Mpc)    Pcb(k)  (Mpc/h)^3    Pcb_linear(k) (Mpc/h)^3   ShotnoiseSubtracted = true
      0.0200456         22965.3         23523.4 
      0.0350414         16284.3         17100.7 
      0.0492313         12142.2           12425 
      0.0637834         10527.6         10328.8 
      0.0800726          8303.2         8197.73 
       0.096163         5751.97         5948.17 
       0.111083         4632.35         4744.41 
       0.126058         4262.49         4204.51 
       0.142273         3692.17         3562.15 
       0.158546         3248.38         2813.35 
        0.17375          2601.1         2370.25 
       0.188953         2545.79          2146.2 
       0.204907         2391.47         1898.95 
       0.220756         2076.38         1606.63 
        0.23588         1859.97         1397.63 
         0.2514         1620.92         1269.73 
       0.267535         1623.17         1148.89 
       0.283568         1471.82         1013.17 
       0.299022         1394.31         902.678 
       0.314451         1328.75         824.986 
       0.330372         1217.83         756.832 
       0.346141         1173.21          686.94 
       0.361624         1127.32         624.335 
       0.377134         1050.86         574.487 
       0.392932         1007.13         531.561 
       0.408854         990.506         489.997 
       0.424564          914.19         451.637 
       0.440253         897.452          418.72 
       0.455999         869.521         390.097 
       0.471626         838.086         363.793 
        0.48727         803.421         339.187 
       0.502856         779.772         317.082 
       0.518488         773.158         297.359 
       0.534347         725.318         279.023 
       0.550082         708.944         262.117 
       0.565732         703.976          246.65 
       0.581496         666.237         232.484 
       0.597222         652.341         219.493 
       0.612804         641.467         207.547 
       0.628434         623.599         196.412 
       0.644267         607.295         186.002 
       0.660051         590.412         176.407 
       0.675724         583.868         167.548 
       0.691403         564.768         159.289 
       0.707174         546.353         151.541 
       0.722871          539.16         144.339 
        0.73838         528.891         137.682 
       0.754018         518.215         131.394 
       0.769845         509.085         125.431 
        0.78569         499.355         119.833 
       0.801365         486.673         114.633 
       0.817031         474.276         109.745 
       0.832809         469.859         105.113 
       0.848511         459.608         100.771 
       0.864097         445.336         96.7047 
       0.879701         439.406         92.8601 
       0.895507         437.251         89.1801 
       0.911279         425.005          85.708 
        0.92691         418.923         82.4505 
       0.942635         408.147          79.345 
       0.958396         397.898         76.3937 
       0.974128         392.427         73.5984 
       0.989692         390.064         70.9713 
        1.00528         378.484          68.469 
        1.02113         376.678         66.0487 
        1.03692         365.882         63.7548 
        1.05264         363.237         61.5808 
        1.06832         353.143          59.512 
        1.08405         348.807         57.5331 
        1.09979         343.145         55.6434 
        1.11537         336.517         53.8576 
        1.13105         331.235         52.1399 
        1.14679         322.417         50.4907 
        1.16256          316.26         48.9099 
        1.17828         315.824         47.4023 
        1.19395         307.943         45.9635 
         1.2097         302.627         44.5773 
        1.22537         296.593         43.2552 
          1.241           293.5         41.9909 
        1.25666         288.917         40.7742 
        1.27241         284.419         39.6001 
        1.28819          279.67         38.4704 
        1.30392         273.558         37.3883 
        1.31957         272.429         36.3527 
        1.33529         267.455         35.3526 
        1.35108         261.672         34.3864 
        1.36674         257.368         33.4632 
         1.3824         255.782         32.5749 
        1.39811         251.207          31.716 
        1.41389         248.383         30.8849 
        1.42964         245.378         30.0851 
        1.44531         241.555         29.3175 
        1.46101         237.038         28.5752 
        1.47667         234.297         27.8608 
        1.49229         231.661         27.1729 
        1.50793         225.743         26.5075 
        1.52367         224.573         25.8601 
        1.53953         220.867           25.23 
        1.55526         216.645         24.6261 
        1.57092         214.862         24.0444 
        1.58662         212.352         23.4802 
        1.60235         208.479         22.9331 
        1.61809         206.168         22.4031 
        1.63369         203.416         21.8946 
        1.64941         199.353         21.3984 
        1.66519         197.764         20.9157 
        1.68085         194.924         20.4514 
        1.69652         192.006         20.0011 
        1.71228         187.527         19.5618 
        1.72806         185.807         19.1354 
        1.74368             183          18.726 
        1.75933         180.094         18.3278 
        1.77505         178.882         17.9393 
        1.79081         176.799         17.5614 
         1.8065         173.313         17.1961 
        1.82218         171.627         16.8415 
        1.83797          170.06         16.4944 
        1.85367         167.136         16.1591 
        1.86928         164.303         15.8351 
        1.88497         162.349         15.5183 
        1.90073           160.5          15.209 
        1.91647         159.079         14.9084 
        1.93218           156.8         14.6165 
        1.94787         153.212          14.333 
        1.96363         151.313         14.0558 
        1.97935         150.517         13.7865 
        1.99499         148.019         13.5259 
        2.01064         146.212         13.2716 
         2.0264         144.774         13.0222 
        2.04216         142.702         12.7794 
        2.05781         140.913         12.5443 
        2.07353         139.451         12.3143 
        2.08928         137.004         12.0896 
        2.10499         135.762         11.8711 
        2.12065         133.367         11.6587 
        2.13633         131.967         11.4512 
        2.15211         129.796         11.2475 
        2.16785         128.586         11.0494 
        2.18349         127.368         10.8572 
        2.19916         125.474         10.6692 
        2.21489         124.335         10.4851 
        2.23063         122.053         10.3051 
         2.2463         120.734         10.1303 
        2.26194         118.841         9.95987 
        2.27765         117.798         9.79253 
        2.29341         116.351          9.6286 
        2.30914         115.228         9.46876 
        2.32486         113.375         9.31265 
        2.34061         112.141          9.1598 
        2.35635         110.752         9.01052 
        2.37203         109.595         8.86508 
        2.38768         107.912         8.72316 
        2.40339          106.85         8.58384 
        2.41914         105.362         8.44723 
        2.43483         104.237         8.31409 
         2.4505         103.155         8.18403 
        2.46622         101.962         8.05632 
        2.48195         100.432         7.93132 
        2.49759         99.2209         7.80965 
        2.51328         98.6005         7.69021 
        2.52906         97.1168         7.57252 
        2.54479         96.1359         7.45773 
        2.56049         94.8704         7.34554 
        2.57618         93.9115         7.23576 
        2.59189         92.9263         7.12806 
        2.60758         91.7323         7.02272 
        2.62325         90.4353         6.91964 
        2.63898         89.3587         6.81827 
        2.65468         88.3872         6.71914 
        2.67044         87.7272         6.62156 
        2.68618         86.6264         6.52615 
        2.70184         86.0179           6.433 
        2.71755         84.5052         6.34143 
        2.73329         83.8761         6.25151 
        2.74897         82.9521         6.16362 
        2.76462         81.7762         6.07762 
        2.78034         81.1301         5.99291 
        2.79607         79.7568         5.90972 
        2.81179         79.0317          5.8282 
        2.82749         78.2371         5.74832 
        2.84321         77.4372         5.66984 
        2.85893         76.6223         5.59286 
        2.87462         75.7222         5.51743 
        2.89033         74.7364         5.44333 
        2.90605         73.9368         5.37052 
        2.92176         73.0317         5.29908 
        2.93747         72.5867         5.22898 
        2.95318         71.5009         5.16013 
        2.96891         71.0449          5.0925 
        2.98456         70.2767         5.02637 
        3.00023         69.3963         4.96132 
        3.01596         68.5115         4.89722 
        3.03164         67.8998         4.83444 
        3.04738         67.0151         4.77257 
         3.0631         66.3118          4.7118 
        3.07883         65.9043          4.6521 
        3.09456         65.3035         4.59343 
        3.11026         64.3784         4.53587 
        3.12596         63.6187          4.4793 
        3.14163         63.2182         4.42383 
        3.15734         62.2419         4.36916 
        3.17308         61.6183         4.31529 
        3.18879         61.1607         4.26247 
        3.20447         60.3975         4.21062 
         3.2202         59.9374         4.15947 
         3.2359         59.1304         4.10925 
        3.25157         58.5829         4.05999 
        3.26729         58.1066         4.01138 
        3.28304         57.6515         3.96348 
        3.29877         56.9611         3.91642 
        3.31446         56.0579         3.87022 
        3.33014         55.8521         3.82481 
        3.34585         55.0167         3.78006 
        3.36158         54.6546         3.73596 
        3.37727         54.1836         3.69271 
        3.39294         53.3802         3.65017 
        3.40867         52.9762         3.60815 
        3.42439         52.5341         3.56682 
        3.44008          51.922         3.52622 
        3.45578         51.3564         3.48621 
        3.47153         50.8595         3.44674 
        3.48724         50.4332         3.40795 
        3.50292         50.0655         3.36985 
        3.51859         49.4282         3.33234 
        3.53431         49.1323         3.29529 
        3.55007         48.5314         3.25872 
        3.56577         48.1918         3.22284 
        3.58146          47.633         3.18752 
        3.59719         47.0914         3.15265 
        3.61292         46.6782         3.11831 
        3.62859         46.1972         3.08461 
        3.64429         45.7409         3.05134 
        3.66003         45.4343         3.01846 
        3.67578         44.9145         2.98608 
        3.69146         44.5017          2.9543 
        3.70712          43.984         2.92303 
        3.72284         43.6341         2.89211 
        3.73853         43.2076         2.86168 
        3.75422         42.7183         2.83168 
        3.76993         42.2937         2.80208 
        3.78564         41.9502         2.77292 
        3.80137         41.5663         2.74413 
        3.81707          41.139          2.7158 
        3.83279         40.7592         2.68786 
        3.84853         40.5184         2.66026 
        3.86424         40.0091          2.6331 
        3.87992         39.6836         2.60636 
        3.89561         39.3717         2.57999 
        3.91134         38.9043         2.55393 
        3.92704         38.5412         2.52826 
        3.94273         38.2222         2.50297 
        3.95845         38.0254         2.47798 
        3.97418         37.6325         2.45332 
        3.98988         37.3188         2.42904 
        4.00554         36.9217         2.40514 
        4.02125         36.6763         2.38151 
        4.03698         36.2544         2.35815 
        4.05268         36.0124         2.33516 
        4.06839         35.6517         2.31245 
         4.0841         35.3062         2.29006 
        4.09983         35.0372         2.26793 
        4.11555         34.7341          2.2461 
        4.13124         34.4792         2.22462 
        4.14693         34.1487          2.2034 
        4.16266         33.8563         2.18241 
        4.17839          33.479         2.16171 
        4.19408         33.1969         2.14132 
        4.20977         32.9381         2.12118 
        4.22551         32.6275         2.10126 
        4.24123         32.3902         2.08161 
        4.25691          32.102         2.06227 
        4.27259         31.7911         2.04316 
        4.28831         31.5153         2.02426 
        4.30404         31.2808         2.00558 
        4.31974         30.9959         1.98718 
        4.33543         30.6467         1.96902 
        4.35116         30.5018         1.95104 
        4.36688         30.2105         1.93329 
        4.38255         29.9427         1.91583 
        4.39825         29.7329         1.89855 
        4.41398          29.518         1.88144 
         4.4297         29.1649         1.86457 
        4.44541         28.9902          1.8479 
        4.46111          28.682         1.83145 
        4.47683         28.4636         1.81519 
        4.49251         28.1799         1.79916 
        4.50819         28.0167         1.78333 
         4.5239         27.8113         1.76766 
        4.53962         27.5455         1.75217 
        4.55535         27.3664         1.73685 
        4.57106         27.0807         1.72173 
        4.58678         26.9369          1.7068 
         4.6025         26.5879         1.69203 
        4.61821         26.4626         1.67745 
        4.63391         26.2129         1.66305 
         4.6496          25.982         1.64883 
        4.66532         25.7866         1.63475 
        4.68103         25.5739         1.62085 
        4.69673         25.3657         1.60712 
        4.71241         25.2463         1.59356 
        4.72811         24.9355         1.58013 
        4.74384         24.8234         1.56684 
        4.75955         24.5531         1.55373 
        4.77525         24.3612         1.54077 
        4.79096          24.208         1.52795 
        4.80669         23.9643         1.51526 
         4.8224         23.8147         1.50273 
        4.83809          23.661         1.49036 
        4.85379         23.4229         1.47812 
         4.8695         23.2224         1.46601 
        4.88521         23.0227         1.45404 
        4.90093         22.8239         1.44219 
        4.91663         22.6467          1.4305 
        4.93234          22.484         1.41892 
        4.94807         22.3513         1.40745 
        4.96377         22.1461         1.39614 
        4.97943          21.925         1.38498 
        4.99514         21.8245         1.37391 
        5.01086         21.6588         1.36295 
        5.02654         21.4591         1.35214 
        5.04227         21.3216         1.34141 
          5.058         21.1733         1.33079 
        5.07371         20.9978         1.32032 
        5.08942         20.7658         1.30995 
        5.10513          20.681         1.29969 
        5.12084         20.5303         1.28954 
        5.13656         20.3742         1.27949 
        5.15225         20.1818         1.26958 
        5.16796         20.0353         1.25975 
        5.18369         19.8478         1.25001 
         5.1994         19.7328          1.2404 
        5.21509         19.5816         1.23089 
        5.23079          19.447         1.22148 
        5.24649          19.323         1.21217 
        5.26217         19.1718         1.20296 
        5.27788         19.0382         1.19383 
        5.29359           18.88          1.1848 
        5.30933         18.6642         1.17585 
        5.32504         18.5792         1.16701 
        5.34073         18.4472         1.15827 
        5.35646         18.3036         1.14959 
        5.37218         18.1577         1.14101 
        5.38789         18.0428         1.13253 
        5.40357         17.9108         1.12414 
        5.41929          17.734         1.11582 
        5.43502         17.6666         1.10758 
         5.4507         17.4912         1.09945 
        5.46639           17.37          1.0914 
        5.48212          17.275          1.0834 
        5.49786         17.1049         1.07548 
        5.51353         16.9844         1.06768 
        5.52921         16.8849         1.05994 
        5.54495         16.7565         1.05226 
        5.56066         16.6328         1.04467 
        5.57637         16.4976         1.03715 
        5.59207         16.3752         1.02971 
        5.60778         16.2226         1.02234 
        5.62346         16.1526         1.01506 
        5.63916         16.0554         1.00783 
        5.65487          15.931         1.00068 
         5.6706         15.8184        0.993582 
        5.68633         15.7036        0.986553 
        5.70203         15.5633        0.979607 
        5.71773         15.4947        0.972728 
        5.73344         15.3492        0.965912 
        5.74916         15.2631        0.959155 
        5.76486         15.1704        0.952472 
        5.78054         15.0461        0.945863 
        5.79626         14.9189        0.939298 
          5.812         14.8604        0.932788 
         5.8277         14.7107        0.926359 
        5.84339         14.6167        0.919991 
        5.85911         14.5386         0.91367 
        5.87484         14.4067         0.90741 
        5.89053         14.3065        0.901221 
        5.90623         14.2329        0.895087 
        5.92195         14.1235        0.888999 
        5.93767         14.0115        0.882971 
        5.95336         13.9223        0.877009 
        5.96905         13.8286        0.871104 
        5.98476         13.7371        0.865245 
        6.00048         13.6217        0.859438 
        6.01617         13.5584        0.853692 
        6.03185         13.4362        0.848005 
        6.04756         13.3359        0.842357 
        6.06331         13.2685        0.836748 
        6.07903         13.1743        0.831202 
        6.09473         13.0798        0.825711 
        6.11044         12.9781        0.820265 
        6.12616         12.8957        0.814868 
        6.14186         12.7824        0.809526 
        6.15755         12.7033        0.804232 
        6.17326         12.6429        0.798981 
        6.18898         12.5673        0.793774 
        6.20467          12.475        0.788623 
        6.22036         12.3911        0.783518 
         6.2361         12.2974        0.778445 
         6.2518         12.2133        0.773425 
        6.26748         12.1343         0.76846 
        6.28319         12.0513        0.763524 
        6.29893         11.9634        0.758628 
        6.31463         11.8893        0.753783 
        6.33033         11.8222        0.748982 
        6.34604         11.7468         0.74422 
        6.36177         11.6447        0.739494 
        6.37747         11.5878        0.734818 
