# k  (h/Mpc)    Pcb(k)  (Mpc/h)^3    Pcb_linear(k) (Mpc/h)^3   ShotnoiseSubtracted = true
      0.0200456         22786.5         23193.8 
      0.0350414         17397.2         16861.1 
      0.0492313           11973         12250.9 
      0.0637834         9650.29         10184.1 
      0.0800726         7570.75         8082.86 
       0.096163         6096.81         5864.82 
       0.111083         4965.72         4677.93 
       0.126058         4102.85          4145.6 
       0.142273         3598.58         3512.24 
       0.158546         2952.62         2773.93 
        0.17375          2644.4         2337.03 
       0.188953         2511.64         2116.13 
       0.204907         2161.07         1872.34 
       0.220756          1955.8         1584.12 
        0.23588         1746.23         1378.04 
         0.2514         1583.38         1251.94 
       0.267535         1526.44         1132.79 
       0.283568         1362.55         998.969 
       0.299022         1298.58         890.029 
       0.314451         1353.51         813.427 
       0.330372         1199.97         746.228 
       0.346141         1101.77         677.315 
       0.361624          1057.1         615.587 
       0.377134         1014.77         566.437 
       0.392932         966.274         524.113 
       0.408854         927.399         483.131 
       0.424564         907.798         445.309 
       0.440253         843.131         412.853 
       0.455999         806.096         384.631 
       0.471626         819.655         358.696 
        0.48727         773.854         334.435 
       0.502856         744.666         312.639 
       0.518488         721.081         293.193 
       0.534347         693.728         275.114 
       0.550082          661.49         258.444 
       0.565732         651.434         243.194 
       0.581496         637.599         229.227 
       0.597222         624.796         216.417 
       0.612804          609.46         204.638 
       0.628434         584.332          193.66 
       0.644267         568.418         183.395 
       0.660051         562.226         173.935 
       0.675724         550.742           165.2 
       0.691403          534.12         157.057 
       0.707174         518.441         149.418 
       0.722871         513.307         142.316 
        0.73838         501.435         135.753 
       0.754018         489.492         129.553 
       0.769845         483.242         123.674 
        0.78569         472.817         118.154 
       0.801365         456.972         113.026 
       0.817031         453.089         108.208 
       0.832809         445.914         103.641 
       0.848511         438.547         99.3589 
       0.864097         428.606         95.3497 
       0.879701         427.897         91.5589 
       0.895507         410.967         87.9305 
       0.911279         405.506         84.5071 
        0.92691         400.662         81.2952 
       0.942635          395.78         78.2333 
       0.958396         383.106         75.3233 
       0.974128         377.984         72.5672 
       0.989692         367.256         69.9768 
        1.00528         363.818         67.5096 
        1.02113         357.603         65.1232 
        1.03692         352.152         62.8614 
        1.05264         347.045         60.7179 
        1.06832         339.541         58.6781 
        1.08405         337.921          56.727 
        1.09979         330.558         54.8637 
        1.11537         321.949          53.103 
        1.13105         318.342         51.4093 
        1.14679          312.91         49.7832 
        1.16256         311.151         48.2246 
        1.17828         305.943         46.7381 
        1.19395         298.158         45.3195 
         1.2097         296.439         43.9527 
        1.22537         291.512         42.6491 
          1.241         285.045         41.4025 
        1.25666         282.353         40.2028 
        1.27241         278.523         39.0452 
        1.28819         271.848         37.9314 
        1.30392         271.844         36.8644 
        1.31957         264.075         35.8433 
        1.33529          260.67         34.8573 
        1.35108         259.292         33.9045 
        1.36674         252.238         32.9944 
         1.3824         249.835         32.1185 
        1.39811         246.987         31.2716 
        1.41389          241.02         30.4522 
        1.42964         237.983         29.6635 
        1.44531         235.501         28.9067 
        1.46101         231.253         28.1748 
        1.47667           228.6         27.4705 
        1.49229         225.401         26.7922 
        1.50793         222.073          26.136 
        1.52367         218.566         25.4977 
        1.53953         214.817         24.8765 
        1.55526         212.633          24.281 
        1.57092         210.811         23.7075 
        1.58662         205.988         23.1512 
        1.60235         203.661         22.6117 
        1.61809         201.518         22.0892 
        1.63369         197.653         21.5879 
        1.64941         194.848         21.0985 
        1.66519         192.362         20.6226 
        1.68085         188.957         20.1649 
        1.69652         187.155         19.7208 
        1.71228         184.226         19.2877 
        1.72806         182.174         18.8673 
        1.74368         179.834         18.4636 
        1.75933         178.582          18.071 
        1.77505         175.736          17.688 
        1.79081         172.312         17.3154 
         1.8065         171.234         16.9551 
        1.82218         167.004         16.6055 
        1.83797         165.885         16.2633 
        1.85367         163.404         15.9327 
        1.86928         160.965         15.6133 
        1.88497         159.526         15.3009 
        1.90073         157.895         14.9959 
        1.91647         154.784         14.6995 
        1.93218         152.544         14.4117 
        1.94787         150.653         14.1321 
        1.96363         149.967         13.8588 
        1.97935         148.101         13.5934 
        1.99499         145.678         13.3364 
        2.01064         142.644         13.0856 
         2.0264         142.232         12.8398 
        2.04216          139.73         12.6004 
        2.05781           137.3         12.3686 
        2.07353         136.542         12.1418 
        2.08928         134.745         11.9202 
        2.10499         133.337         11.7048 
        2.12065         131.788         11.4953 
        2.13633          129.79         11.2908 
        2.15211         127.741         11.0899 
        2.16785         126.462         10.8945 
        2.18349         125.085         10.7051 
        2.19916         123.264         10.5197 
        2.21489         121.707         10.3382 
        2.23063         120.158         10.1608 
         2.2463         118.465         9.98832 
        2.26194         117.511         9.82031 
        2.27765          115.58         9.65531 
        2.29341         114.604         9.49368 
        2.30914         113.296         9.33609 
        2.32486         111.368         9.18216 
        2.34061         110.024         9.03145 
        2.35635         109.219         8.88426 
        2.37203         107.328         8.74087 
        2.38768         106.574         8.60094 
        2.40339         104.553         8.46356 
        2.41914         103.619         8.32887 
        2.43483          102.82         8.19759 
         2.4505         101.408         8.06936 
        2.46622         99.8288         7.94344 
        2.48195         99.0049         7.82019 
        2.49759         97.4866         7.70022 
        2.51328         96.5665         7.58246 
        2.52906         95.5824         7.46641 
        2.54479         94.2377         7.35323 
        2.56049         92.9717         7.24262 
        2.57618         92.0469         7.13437 
        2.59189         91.3309         7.02818 
        2.60758         89.7655         6.92432 
        2.62325         89.3083         6.82268 
        2.63898         88.1654         6.72273 
        2.65468         87.2541         6.62499 
        2.67044         86.1911         6.52878 
        2.68618         84.8784         6.43471 
        2.70184         83.9525         6.34286 
        2.71755         83.3859         6.25258 
        2.73329         81.9315         6.16391 
        2.74897         81.1418         6.07726 
        2.76462         80.7736         5.99246 
        2.78034         79.3018         5.90893 
        2.79607         78.3216         5.82691 
        2.81179         77.6834         5.74654 
        2.82749         76.9786         5.66777 
        2.84321         75.7642          5.5904 
        2.85893         74.6683         5.51449 
        2.87462         74.2502         5.44012 
        2.89033         73.3471         5.36706 
        2.90605          72.542         5.29527 
        2.92176         71.9066         5.22483 
        2.93747         71.0798         5.15572 
        2.95318         69.9469         5.08783 
        2.96891         69.5323         5.02114 
        2.98456         68.5175         4.95594 
        3.00023         67.8905          4.8918 
        3.01596         67.3256          4.8286 
        3.03164         66.4756          4.7667 
        3.04738         66.1603          4.7057 
         3.0631          64.984         4.64578 
        3.07883         64.5305         4.58691 
        3.09456         63.6275         4.52907 
        3.11026         63.2141         4.47231 
        3.12596         62.4022         4.41654 
        3.14163         61.7668         4.36184 
        3.15734         60.8968         4.30794 
        3.17308         60.4943         4.25483 
        3.18879         59.9068         4.20275 
        3.20447         59.3897         4.15162 
         3.2202         58.4596         4.10118 
         3.2359         57.8723         4.05168 
        3.25157         57.5719          4.0031 
        3.26729          56.853         3.95518 
        3.28304         56.0451         3.90794 
        3.29877         55.7035         3.86154 
        3.31446         54.9715         3.81599 
        3.33014         54.5557         3.77122 
        3.34585         54.0117          3.7271 
        3.36158         53.6272         3.68362 
        3.37727         53.0192         3.64096 
        3.39294         52.4116         3.59903 
        3.40867         51.9865          3.5576 
        3.42439         51.3924         3.51684 
        3.44008         50.8318         3.47681 
        3.45578          50.351         3.43736 
        3.47153         49.8773         3.39845 
        3.48724         49.4136          3.3602 
        3.50292         48.9182         3.32263 
        3.51859         48.4783         3.28565 
        3.53431         47.8897         3.24912 
        3.55007         47.3789         3.21306 
        3.56577          46.903         3.17768 
        3.58146         46.4212         3.14286 
        3.59719         46.0505         3.10847 
        3.61292         45.4661         3.07461 
        3.62859         45.1649         3.04139 
        3.64429         44.8052         3.00859 
        3.66003         44.4256         2.97617 
        3.67578         43.8809         2.94424 
        3.69146         43.5015          2.9129 
        3.70712         43.1767         2.88208 
        3.72284         42.7147         2.85158 
        3.73853         42.3074         2.82158 
        3.75422         41.8754           2.792 
        3.76993         41.5211         2.76282 
        3.78564         41.1167         2.73407 
        3.80137         40.8247         2.70568 
        3.81707         40.2957         2.67775 
        3.83279         40.0296         2.65019 
        3.84853         39.5914         2.62298 
        3.86424         39.1975          2.5962 
        3.87992         38.8118         2.56984 
        3.89561         38.5523         2.54384 
        3.91134         38.1866         2.51814 
        3.92704         37.8264         2.49284 
        3.94273         37.5027          2.4679 
        3.95845         37.0818         2.44326 
        3.97418         36.8211         2.41895 
        3.98988         36.4661           2.395 
        4.00554         36.0705         2.37144 
        4.02125          35.874         2.34814 
        4.03698         35.4509         2.32511 
        4.05268         35.2519         2.30244 
        4.06839         34.9198         2.28005 
         4.0841         34.6521         2.25797 
        4.09983         34.2394         2.23615 
        4.11555         34.0103         2.21463 
        4.13124         33.5816         2.19345 
        4.14693         33.3553         2.17253 
        4.16266         33.1022         2.15183 
        4.17839          32.748         2.13142 
        4.19408         32.5031         2.11132 
        4.20977          32.248         2.09146 
        4.22551         31.9136         2.07182 
        4.24123         31.6857         2.05244 
        4.25691         31.3806         2.03337 
        4.27259          31.118         2.01454 
        4.28831         30.8635          1.9959 
        4.30404         30.6145         1.97748 
        4.31974         30.3436         1.95934 
        4.33543         30.0819         1.94143 
        4.35116         29.8115          1.9237 
        4.36688         29.5204          1.9062 
        4.38255         29.3557         1.88899 
        4.39825         29.0631         1.87195 
        4.41398         28.8278         1.85508 
         4.4297         28.5573         1.83844 
        4.44541         28.4283         1.82201 
        4.46111         28.0375         1.80579 
        4.47683         27.8998         1.78976 
        4.49251         27.6821         1.77395 
        4.50819         27.4383         1.75834 
         4.5239         27.1333          1.7429 
        4.53962         26.9746         1.72762 
        4.55535         26.7422         1.71251 
        4.57106         26.4688         1.69761 
        4.58678         26.2952         1.68288 
         4.6025         26.1203         1.66833 
        4.61821         25.9205         1.65394 
        4.63391         25.6438         1.63975 
         4.6496         25.4122         1.62573 
        4.66532         25.2467         1.61185 
        4.68103          25.043         1.59814 
        4.69673           24.85          1.5846 
        4.71241         24.6642         1.57123 
        4.72811           24.45         1.55799 
        4.74384         24.2965         1.54489 
        4.75955         24.1172         1.53196 
        4.77525         23.8469         1.51918 
        4.79096         23.6297         1.50654 
        4.80669         23.5071         1.49403 
         4.8224         23.3227         1.48168 
        4.83809         23.0761         1.46948 
        4.85379          22.922         1.45741 
         4.8695         22.7544         1.44547 
        4.88521         22.5295         1.43366 
        4.90093         22.4336         1.42199 
        4.91663         22.2147         1.41045 
        4.93234         21.9935         1.39903 
        4.94807         21.8272         1.38773 
        4.96377         21.6861         1.37658 
        4.97943         21.5285         1.36557 
        4.99514         21.3938         1.35465 
        5.01086         21.1971         1.34385 
        5.02654         21.0203         1.33319 
        5.04227         20.8836         1.32261 
          5.058         20.6771         1.31215 
        5.07371          20.497         1.30182 
        5.08942         20.3197         1.29159 
        5.10513         20.2526         1.28148 
        5.12084         20.0872         1.27147 
        5.13656         19.9176         1.26157 
        5.15225         19.8229         1.25179 
        5.16796         19.6157         1.24209 
        5.18369         19.4556          1.2325 
         5.1994         19.2699         1.22302 
        5.21509         19.1484         1.21365 
        5.23079         19.0168         1.20436 
        5.24649         18.8757         1.19518 
        5.26217         18.7453          1.1861 
        5.27788         18.6156         1.17711 
        5.29359          18.445          1.1682 
        5.30933         18.2913         1.15938 
        5.32504         18.1765         1.15066 
        5.34073          18.012         1.14204 
        5.35646         17.8999         1.13349 
        5.37218         17.7496         1.12502 
        5.38789         17.6318         1.11666 
        5.40357         17.4948         1.10839 
        5.41929         17.3928         1.10019 
        5.43502         17.2459         1.09206 
         5.4507         17.0841         1.08404 
        5.46639         16.9582          1.0761 
        5.48212         16.8488         1.06822 
        5.49786         16.7399         1.06041 
        5.51353         16.6416         1.05272 
        5.52921         16.5036         1.04509 
        5.54495         16.3712         1.03752 
        5.56066         16.2602         1.03003 
        5.57637         16.1339         1.02262 
        5.59207         16.0027         1.01528 
        5.60778         15.9495         1.00802 
        5.62346         15.8005         1.00083 
        5.63916         15.6821        0.993711 
        5.65487         15.5472        0.986656 
         5.6706           15.46         0.97966 
        5.68633         15.3634         0.97273 
        5.70203         15.2351        0.965881 
        5.71773          15.138        0.959099 
        5.73344         15.0378        0.952378 
        5.74916         14.9151        0.945716 
        5.76486         14.8071        0.939126 
        5.78054         14.6888         0.93261 
        5.79626         14.5908        0.926136 
          5.812         14.5198        0.919718 
         5.8277         14.3802        0.913379 
        5.84339         14.2861          0.9071 
        5.85911         14.2114        0.900868 
        5.87484         14.0755        0.894696 
        5.89053         13.9627        0.888593 
        5.90623         13.9036        0.882545 
        5.92195         13.7844        0.876542 
        5.93767          13.709        0.870599 
        5.95336         13.6069         0.86472 
        5.96905         13.5083        0.858898 
        5.98476         13.4317        0.853121 
        6.00048          13.331        0.847395 
        6.01617         13.2667         0.84173 
        6.03185         13.1499        0.836123 
        6.04756         13.0727        0.830554 
        6.06331         12.9813        0.825024 
        6.07903         12.8652        0.819555 
        6.09473         12.7798        0.814141 
        6.11044         12.7024        0.808771 
        6.12616         12.6262        0.803451 
        6.14186         12.5517        0.798183 
        6.15755          12.442        0.792963 
        6.17326         12.3514        0.787786 
        6.18898         12.2666        0.782652 
        6.20467         12.1656        0.777573 
        6.22036          12.093         0.77254 
         6.2361         12.0062        0.767538 
         6.2518         11.9337        0.762588 
        6.26748         11.8796        0.757692 
        6.28319         11.7847        0.752826 
        6.29893         11.7139        0.747999 
        6.31463         11.6372        0.743222 
        6.33033         11.5621        0.738488 
        6.34604         11.4636        0.733792 
        6.36177         11.3906        0.729132 
        6.37747         11.3251        0.724522 
