# k  (h/Mpc)    Pcb(k)  (Mpc/h)^3    Pcb_linear(k) (Mpc/h)^3   ShotnoiseSubtracted = true
      0.0200456         9881.23           10065 
      0.0350414         7115.64         7316.95 
      0.0492313         5278.14         5316.35 
      0.0637834         4503.86         4419.44 
      0.0800726         3565.18          3507.6 
       0.096163         2496.08         2545.07 
       0.111083         1983.98         2030.01 
       0.126058          1825.7            1799 
       0.142273         1575.98         1524.15 
       0.158546         1309.86         1203.76 
        0.17375         1053.16         1014.17 
       0.188953         1012.41         918.305 
       0.204907         949.754         812.513 
       0.220756         804.525         687.435 
        0.23588         706.985         598.009 
         0.2514         618.823         543.285 
       0.267535         599.094          491.58 
       0.283568          542.91         433.507 
       0.299022         504.624         386.233 
       0.314451          471.26          352.99 
       0.330372         435.057         323.829 
       0.346141         393.464         293.924 
       0.361624         377.788         267.137 
       0.377134          352.17         245.808 
       0.392932         331.093         227.441 
       0.408854         317.439         209.657 
       0.424564         302.719         193.244 
       0.440253         290.451         179.159 
       0.455999         273.231         166.913 
       0.471626         253.922         155.658 
        0.48727         246.622         145.129 
       0.502856         237.914         135.671 
       0.518488         234.406         127.232 
       0.534347         221.345         119.387 
       0.550082         207.102         112.153 
       0.565732         202.866         105.535 
       0.581496         192.979         99.4741 
       0.597222         187.796         93.9153 
       0.612804         180.496         88.8039 
       0.628434         175.014         84.0395 
       0.644267         169.132         79.5853 
       0.660051         166.978         75.4801 
       0.675724         162.807         71.6894 
       0.691403         157.961         68.1558 
       0.707174         151.245         64.8405 
       0.722871         149.882         61.7589 
        0.73838         146.612         58.9105 
       0.754018         141.485         56.2203 
       0.769845         137.986         53.6689 
        0.78569         135.421         51.2736 
       0.801365          131.63         49.0484 
       0.817031         127.086         46.9573 
       0.832809         125.335         44.9754 
       0.848511         121.963         43.1173 
       0.864097          119.32         41.3775 
       0.879701         117.153         39.7324 
       0.895507         114.308         38.1579 
       0.911279         112.458         36.6723 
        0.92691         110.685         35.2785 
       0.942635         107.879         33.9497 
       0.958396         107.525         32.6869 
       0.974128         104.519         31.4909 
       0.989692          101.94         30.3668 
        1.00528          99.895         29.2961 
        1.02113         99.0489         28.2605 
        1.03692         95.4035          27.279 
        1.05264         95.2626         26.3488 
        1.06832          92.779         25.4637 
        1.08405         91.5614         24.6169 
        1.09979         91.0311         23.8084 
        1.11537         87.8966         23.0443 
        1.13105         87.9521         22.3093 
        1.14679         86.6337         21.6037 
        1.16256         85.3703         20.9273 
        1.17828         83.0922         20.2822 
        1.19395         82.2885         19.6666 
         1.2097         80.1966         19.0735 
        1.22537         80.4311         18.5078 
          1.241         78.4426         17.9668 
        1.25666         76.8824         17.4462 
        1.27241         76.0098         16.9439 
        1.28819         74.7457         16.4605 
        1.30392         73.8133         15.9975 
        1.31957         72.8505         15.5544 
        1.33529         71.5688         15.1265 
        1.35108         71.1105          14.713 
        1.36674         70.1871         14.3181 
         1.3824          68.802          13.938 
        1.39811         68.1658         13.5705 
        1.41389         67.1138         13.2149 
        1.42964         66.3954         12.8726 
        1.44531         65.0804         12.5442 
        1.46101         64.1698         12.2266 
        1.47667          64.066         11.9209 
        1.49229         62.8947         11.6266 
        1.50793         62.3566         11.3419 
        1.52367         61.2903         11.0649 
        1.53953         60.5719         10.7953 
        1.55526         59.9181         10.5369 
        1.57092          59.658          10.288 
        1.58662         58.5207         10.0466 
        1.60235         58.0037         9.81247 
        1.61809         57.1979         9.58572 
        1.63369          56.253         9.36816 
        1.64941         55.7121         9.15581 
        1.66519         54.7808          8.9493 
        1.68085         54.3634         8.75064 
        1.69652         53.5234         8.55796 
        1.71228         53.1651            8.37 
        1.72806         52.6909         8.18755 
        1.74368          51.894         8.01238 
        1.75933         51.3849         7.84199 
        1.77505         50.8058         7.67577 
        1.79081         50.1966         7.51409 
         1.8065         49.7438         7.35776 
        1.82218         49.0464         7.20603 
        1.83797         48.4444         7.05754 
        1.85367         47.8418         6.91407 
        1.86928         47.3662         6.77545 
        1.88497         46.9798         6.63988 
        1.90073         46.4286         6.50753 
        1.91647         45.9448         6.37891 
        1.93218          45.405         6.25404 
        1.94787           44.98         6.13271 
        1.96363         44.4106         6.01411 
        1.97935         43.9134         5.89891 
        1.99499         43.3911         5.78737 
        2.01064          43.141         5.67857 
         2.0264         42.2782         5.57188 
        2.04216         41.9768         5.46798 
        2.05781         41.4183          5.3674 
        2.07353         41.0299         5.26899 
        2.08928         40.7085         5.17284 
        2.10499         40.2094         5.07935 
        2.12065         39.7634         4.98845 
        2.13633         39.6176          4.8997 
        2.15211         39.0532         4.81253 
        2.16785         38.3354         4.72774 
        2.18349         38.1575         4.64552 
        2.19916         37.8471         4.56509 
        2.21489         37.3223         4.48629 
        2.23063         36.8995         4.40931 
         2.2463         36.4482         4.33448 
        2.26194         36.0635         4.26157 
        2.27765         35.7039         4.18997 
        2.29341         35.3498         4.11983 
        2.30914         34.9962         4.05144 
        2.32486         34.5392         3.98464 
        2.34061         34.2917         3.91924 
        2.35635         33.9788         3.85537 
        2.37203         33.6521         3.79314 
        2.38768         33.2298         3.73242 
        2.40339         33.0734          3.6728 
        2.41914         32.7496         3.61435 
        2.43483         32.1684         3.55738 
         2.4505         31.9659         3.50174 
        2.46622         31.7035         3.44709 
        2.48195         31.4263         3.39361 
        2.49759          31.019         3.34155 
        2.51328         30.6277         3.29044 
        2.52906         30.5075         3.24009 
        2.54479           30.04         3.19097 
        2.56049         29.7785         3.14297 
        2.57618         29.4486           3.096 
        2.59189         29.3057         3.04991 
        2.60758         29.0372         3.00484 
        2.62325         28.5893         2.96074 
        2.63898         28.4686         2.91736 
        2.65468          28.049         2.87495 
        2.67044          27.863          2.8332 
        2.68618         27.5443         2.79237 
        2.70184         27.2463         2.75251 
        2.71755         27.1245         2.71334 
        2.73329         26.7908         2.67486 
        2.74897          26.479         2.63726 
        2.76462         26.2313         2.60046 
        2.78034         26.1159         2.56421 
        2.79607          25.804         2.52862 
        2.81179         25.5718         2.49374 
        2.82749         25.3448         2.45956 
        2.84321         24.9543         2.42598 
        2.85893         24.7508         2.39304 
        2.87462         24.5465         2.36077 
        2.89033         24.3445         2.32906 
        2.90605         24.1572         2.29791 
        2.92176         23.9957         2.26734 
        2.93747         23.7207         2.23735 
        2.95318         23.3727         2.20789 
        2.96891         23.2721         2.17895 
        2.98456         22.9581         2.15065 
        3.00023         22.7671         2.12282 
        3.01596         22.5398         2.09539 
        3.03164         22.3165         2.06853 
        3.04738         22.1718         2.04206 
         3.0631         21.9639         2.01606 
        3.07883         21.7825         1.99051 
        3.09456         21.5151         1.96541 
        3.11026         21.3341         1.94078 
        3.12596         21.1581         1.91658 
        3.14163          21.016         1.89284 
        3.15734         20.8074         1.86945 
        3.17308         20.6325          1.8464 
        3.18879         20.4078          1.8238 
        3.20447         20.2227         1.80162 
         3.2202         20.0521         1.77973 
         3.2359         19.7875         1.75824 
        3.25157         19.7859         1.73716 
        3.26729         19.5732         1.71637 
        3.28304         19.3658         1.69587 
        3.29877         19.0466         1.67573 
        3.31446         18.9942         1.65597 
        3.33014         18.7854         1.63654 
        3.34585         18.5871         1.61739 
        3.36158         18.4759         1.59852 
        3.37727         18.2697         1.58001 
        3.39294          18.097         1.56181 
        3.40867         17.9495         1.54384 
        3.42439         17.8031         1.52615 
        3.44008         17.6167         1.50878 
        3.45578         17.4513         1.49166 
        3.47153         17.3218         1.47477 
        3.48724         17.1402         1.45817 
        3.50292         17.0335         1.44187 
        3.51859         16.8557         1.42582 
        3.53431         16.6991         1.40997 
        3.55007         16.5719         1.39432 
        3.56577         16.4081         1.37897 
        3.58146         16.2908         1.36386 
        3.59719         16.1318         1.34894 
        3.61292         15.9843         1.33424 
        3.62859         15.8486         1.31982 
        3.64429         15.7024         1.30559 
        3.66003         15.5665         1.29152 
        3.67578         15.4471         1.27767 
        3.69146         15.3425         1.26407 
        3.70712         15.1454         1.25069 
        3.72284         15.1091         1.23746 
        3.73853         14.9488         1.22444 
        3.75422         14.7351          1.2116 
        3.76993         14.6554         1.19894 
        3.78564         14.5075         1.18646 
        3.80137         14.3885         1.17414 
        3.81707         14.2822         1.16202 
        3.83279          14.124         1.15006 
        3.84853         14.0306         1.13826 
        3.86424         13.9093         1.12663 
        3.87992         13.7716         1.11519 
        3.89561         13.6669         1.10391 
        3.91134         13.5456         1.09276 
        3.92704         13.4287         1.08178 
        3.94273         13.3249         1.07096 
        3.95845         13.1948         1.06026 
        3.97418         13.1384         1.04971 
        3.98988         12.9908         1.03932 
        4.00554         12.8934          1.0291 
        4.02125         12.7608         1.01899 
        4.03698         12.6902         1.00899 
        4.05268         12.5692        0.999153 
        4.06839         12.4402        0.989439 
         4.0841         12.3409        0.979858 
        4.09983         12.2225        0.970389 
        4.11555           12.14         0.96105 
        4.13124         12.0453        0.951859 
        4.14693         11.9639         0.94278 
        4.16266         11.8453        0.933799 
        4.17839         11.7528         0.92494 
        4.19408          11.656        0.916216 
        4.20977         11.5523        0.907601 
        4.22551         11.4598        0.899075 
        4.24123         11.3754        0.890668 
        4.25691         11.2671        0.882392 
        4.27259         11.1946        0.874218 
        4.28831         11.0829        0.866131 
        4.30404         10.9921        0.858138 
        4.31974         10.9129        0.850264 
        4.33543          10.819        0.842493 
        4.35116         10.7367          0.8348 
        4.36688          10.634        0.827206 
        4.38255         10.5636        0.819735 
        4.39825         10.5101         0.81234 
        4.41398         10.3904        0.805022 
         4.4297         10.3026        0.797801 
        4.44541         10.2028         0.79067 
        4.46111         10.1541        0.783632 
        4.47683         10.0772        0.776674 
        4.49251         10.0042        0.769815 
        4.50819         9.91011         0.76304 
         4.5239         9.83422        0.756338 
        4.53962          9.7909        0.749707 
        4.55535         9.68288        0.743153 
        4.57106         9.60141        0.736686 
        4.58678         9.51422        0.730295 
         4.6025         9.45925        0.723978 
        4.61821         9.36668        0.717737 
        4.63391         9.28251        0.711577 
         4.6496         9.25313        0.705492 
        4.66532         9.15765        0.699469 
        4.68103         9.09182        0.693519 
        4.69673         9.01177        0.687644 
        4.71241         8.94033        0.681842 
        4.72811         8.85818        0.676098 
        4.74384         8.83472        0.670413 
        4.75955         8.75708        0.664801 
        4.77525         8.68286        0.659257 
        4.79096          8.6369         0.65377 
        4.80669         8.55158        0.648342 
         4.8224         8.49533        0.642982 
        4.83809         8.44249        0.637688 
        4.85379         8.35322         0.63245 
         4.8695         8.30451        0.627267 
        4.88521         8.24559        0.622144 
        4.90093         8.16801        0.617078 
        4.91663         8.10894        0.612073 
        4.93234         8.07376        0.607117 
        4.94807         7.97386        0.602214 
        4.96377         7.93485        0.597373 
        4.97943         7.89971        0.592596 
        4.99514         7.83111        0.587859 
        5.01086         7.74791         0.58317 
        5.02654         7.69934        0.578544 
        5.04227           7.668        0.573955 
          5.058          7.5903        0.569413 
        5.07371         7.53831        0.564929 
        5.08942         7.48413        0.560493 
        5.10513         7.42647        0.556104 
        5.12084         7.36861         0.55176 
        5.13656         7.32414        0.547463 
        5.15225         7.25824        0.543219 
        5.16796         7.22086        0.539013 
        5.18369         7.14952        0.534848 
         5.1994         7.07979        0.530734 
        5.21509         7.04921        0.526667 
        5.23079          7.0003        0.522638 
        5.24649         6.94436        0.518655 
        5.26217         6.89844        0.514715 
        5.27788         6.83682        0.510811 
        5.29359         6.81377        0.506947 
        5.30933         6.75718        0.503117 
        5.32504         6.70741        0.499333 
        5.34073           6.662        0.495592 
        5.35646         6.60972        0.491882 
        5.37218         6.58306        0.488209 
        5.38789          6.5213         0.48458 
        5.40357         6.47805        0.480991 
        5.41929         6.42141        0.477431 
        5.43502         6.38426        0.473907 
         5.4507         6.34815        0.470426 
        5.46639         6.29474         0.46698 
        5.48212         6.26125        0.463561 
        5.49786         6.22076        0.460171 
        5.51353         6.15764        0.456832 
        5.52921         6.12903        0.453523 
        5.54495         6.08031        0.450237 
        5.56066         6.04124        0.446987 
        5.57637         5.98295         0.44377 
        5.59207         5.96349        0.440587 
        5.60778         5.91083        0.437434 
        5.62346         5.87106        0.434316 
        5.63916         5.84193        0.431226 
        5.65487         5.80005        0.428164 
         5.6706         5.76228        0.425128 
        5.68633         5.71967        0.422121 
        5.70203         5.68701        0.419149 
        5.71773         5.64652        0.416206 
        5.73344         5.60195        0.413289 
        5.74916         5.56465        0.410398 
        5.76486         5.53792        0.407538 
        5.78054         5.49893         0.40471 
        5.79626         5.46173        0.401901 
          5.812         5.41795        0.399116 
         5.8277         5.38155        0.396365 
        5.84339         5.35773        0.393641 
        5.85911         5.30887        0.390936 
        5.87484          5.2944        0.388258 
        5.89053         5.24608        0.385609 
        5.90623         5.21006        0.382985 
        5.92195         5.17785         0.38038 
        5.93767         5.13314        0.377801 
        5.95336         5.10462        0.375249 
        5.96905         5.09131        0.372723 
        5.98476         5.05515        0.370216 
        6.00048         5.01602        0.367731 
        6.01617         4.98474        0.365273 
        6.03185         4.95379         0.36284 
        6.04756         4.92315        0.360423 
        6.06331         4.88599        0.358023 
        6.07903         4.85531         0.35565 
        6.09473          4.8301          0.3533 
        6.11044         4.79131         0.35097 
        6.12616         4.76273        0.348661 
        6.14186         4.73222        0.346375 
        6.15755         4.70161         0.34411 
        6.17326         4.67711        0.341863 
        6.18898         4.64534        0.339636 
        6.20467         4.61578        0.337432 
        6.22036         4.57973        0.335247 
         6.2361         4.55593        0.333077 
         6.2518         4.52407        0.330929 
        6.26748         4.50072        0.328804 
        6.28319         4.47409        0.326693 
        6.29893         4.44992        0.324598 
        6.31463         4.41918        0.322525 
        6.33033         4.38727         0.32047 
        6.34604         4.36974        0.318432 
        6.36177         4.33485         0.31641 
        6.37747          4.3098         0.31441 
