# k  (h/Mpc)    Pcb(k)  (Mpc/h)^3    Pcb_linear(k) (Mpc/h)^3   ShotnoiseSubtracted = true
      0.0200456         22135.2         22527.1 
      0.0350414         16893.2         16376.4 
      0.0492313         11637.5         11898.8 
      0.0637834         9380.96         9891.37 
      0.0800726         7361.02         7850.53 
       0.096163         5920.02         5696.24 
       0.111083         4821.62         4543.47 
       0.126058         3984.52         4026.44 
       0.142273         3491.99         3411.28 
       0.158546         2865.59          2694.2 
        0.17375         2562.87         2269.86 
       0.188953         2430.95         2055.31 
       0.204907          2091.1         1818.53 
       0.220756         1891.28         1538.58 
        0.23588         1688.38         1338.43 
         0.2514         1529.43         1215.95 
       0.267535         1475.47         1100.23 
       0.283568         1315.26         970.255 
       0.299022         1253.86         864.447 
       0.314451            1306         790.046 
       0.330372         1154.77         724.778 
       0.346141         1060.39         657.847 
       0.361624         1017.48         597.892 
       0.377134          975.82         550.155 
       0.392932          930.24         509.048 
       0.408854         891.966         469.244 
       0.424564         872.781         432.509 
       0.440253          809.32         400.986 
       0.455999           773.8         373.575 
       0.471626         787.391         348.385 
        0.48727         743.074         324.822 
       0.502856          713.05         303.653 
       0.518488         691.956         284.765 
       0.534347         664.269         267.206 
       0.550082          633.38         251.016 
       0.565732         624.339         236.204 
       0.581496         611.072         222.638 
       0.597222         598.025         210.197 
       0.612804         583.632         198.756 
       0.628434         559.424         188.093 
       0.644267         543.801         178.124 
       0.660051         537.741         168.936 
       0.675724         526.559         160.452 
       0.691403         511.508         152.543 
       0.707174         495.808         145.123 
       0.722871         490.276         138.226 
        0.73838         479.675         131.851 
       0.754018         467.459          125.83 
       0.769845         461.881         120.119 
        0.78569         452.036         114.758 
       0.801365         436.582         109.778 
       0.817031         433.144         105.097 
       0.832809         426.325         100.662 
       0.848511         419.056          96.503 
       0.864097         409.146          92.609 
       0.879701         407.991         88.9272 
       0.895507         392.068          85.403 
       0.911279         386.524         82.0781 
        0.92691         382.292         78.9585 
       0.942635         377.827         75.9846 
       0.958396         365.272         73.1582 
       0.974128         360.789         70.4813 
       0.989692         349.927         67.9654 
        1.00528         347.214         65.5692 
        1.02113         341.289         63.2513 
        1.03692         335.894         61.0546 
        1.05264         330.826         58.9727 
        1.06832         324.243         56.9915 
        1.08405         322.084         55.0964 
        1.09979          315.42         53.2867 
        1.11537         307.136         51.5766 
        1.13105         303.636         49.9316 
        1.14679          298.69         48.3523 
        1.16256         296.949         46.8385 
        1.17828         291.889         45.3947 
        1.19395         284.438         44.0168 
         1.2097          283.33         42.6893 
        1.22537         278.361         41.4232 
          1.241         272.039         40.2125 
        1.25666         269.602         39.0473 
        1.27241         265.762         37.9229 
        1.28819         259.736         36.8411 
        1.30392         259.614         35.8048 
        1.31957          251.95          34.813 
        1.33529          248.83         33.8553 
        1.35108         247.496           32.93 
        1.36674         240.639          32.046 
         1.3824         238.776         31.1953 
        1.39811         236.243         30.3728 
        1.41389          230.01         29.5768 
        1.42964         227.302         28.8109 
        1.44531         225.125         28.0758 
        1.46101          221.12         27.3649 
        1.47667         218.453         26.6809 
        1.49229         215.344          26.022 
        1.50793         212.284         25.3848 
        1.52367         208.999         24.7648 
        1.53953         205.139         24.1615 
        1.55526         203.391         23.5831 
        1.57092          201.63         23.0261 
        1.58662          196.93         22.4858 
        1.60235         194.838         21.9618 
        1.61809         192.566         21.4543 
        1.63369          188.87         20.9673 
        1.64941         186.306         20.4921 
        1.66519         183.971         20.0299 
        1.68085         180.755         19.5852 
        1.69652         179.092          19.154 
        1.71228         176.157         18.7333 
        1.72806         174.249          18.325 
        1.74368         171.987         17.9329 
        1.75933         170.805         17.5516 
        1.77505         168.095         17.1795 
        1.79081         164.589         16.8177 
         1.8065         163.423         16.4678 
        1.82218          159.63         16.1282 
        1.83797         158.627         15.7958 
        1.85367          156.23         15.4747 
        1.86928         153.934         15.1645 
        1.88497         152.702          14.861 
        1.90073         151.019         14.5648 
        1.91647         147.961          14.277 
        1.93218         146.002         13.9975 
        1.94787         144.125         13.7259 
        1.96363         143.525         13.4605 
        1.97935         141.673         13.2026 
        1.99499         139.377          12.953 
        2.01064         136.489         12.7095 
         2.0264         135.996         12.4707 
        2.04216         133.769         12.2382 
        2.05781         131.361         12.0131 
        2.07353         130.514         11.7928 
        2.08928         128.797         11.5776 
        2.10499         127.526         11.3683 
        2.12065         126.034         11.1649 
        2.13633         124.168         10.9663 
        2.15211         122.147         10.7712 
        2.16785         120.898         10.5814 
        2.18349         119.508         10.3974 
        2.19916         117.908         10.2174 
        2.21489         116.481          10.041 
        2.23063         114.823          9.8687 
         2.2463         113.284         9.70121 
        2.26194         112.355         9.53804 
        2.27765         110.597         9.37778 
        2.29341         109.585          9.2208 
        2.30914         108.407         9.06773 
        2.32486         106.459         8.91823 
        2.34061         105.342         8.77185 
        2.35635         104.488          8.6289 
        2.37203         102.619         8.48962 
        2.38768          101.93         8.35371 
        2.40339         100.152         8.22029 
        2.41914         99.1589         8.08947 
        2.43483         98.4588         7.96196 
         2.4505         96.9715         7.83742 
        2.46622         95.6128         7.71511 
        2.48195          94.855         7.59541 
        2.49759         93.4038         7.47889 
        2.51328         92.5932         7.36451 
        2.52906         91.4806          7.2518 
        2.54479         90.2185         7.14187 
        2.56049         89.0183         7.03444 
        2.57618         88.1465          6.9293 
        2.59189         87.3763         6.82616 
        2.60758         85.8693         6.72529 
        2.62325         85.5293         6.62657 
        2.63898         84.4117          6.5295 
        2.65468         83.4571         6.43457 
        2.67044         82.2938         6.34112 
        2.68618         81.2122         6.24975 
        2.70184         80.2951         6.16054 
        2.71755         79.7293         6.07285 
        2.73329         78.3682         5.98674 
        2.74897          77.659         5.90257 
        2.76462         77.1658         5.82022 
        2.78034         75.7065         5.73909 
        2.79607         74.8762         5.65942 
        2.81179         74.2964         5.58136 
        2.82749         73.5411         5.50486 
        2.84321          72.462         5.42971 
        2.85893         71.4972         5.35598 
        2.87462         70.9649         5.28375 
        2.89033         70.1619         5.21279 
        2.90605           69.46         5.14306 
        2.92176         68.7407         5.07465 
        2.93747         68.0581         5.00752 
        2.95318         66.9173         4.94159 
        2.96891         66.5247         4.87681 
        2.98456         65.6093         4.81349 
        3.00023         64.9778         4.75119 
        3.01596         64.4917         4.68981 
        3.03164         63.6475         4.62968 
        3.04738         63.3648         4.57044 
         3.0631           62.23         4.51225 
        3.07883         61.7881         4.45507 
        3.09456         60.9575         4.39889 
        3.11026         60.4843         4.34376 
        3.12596         59.7735         4.28959 
        3.14163         59.1024         4.23647 
        3.15734         58.3419         4.18412 
        3.17308         57.9179         4.13253 
        3.18879         57.3638         4.08195 
        3.20447         56.9054         4.03229 
         3.2202         56.0454          3.9833 
         3.2359         55.4302         3.93521 
        3.25157         55.1413         3.88804 
        3.26729         54.4737         3.84149 
        3.28304         53.7257         3.79561 
        3.29877         53.3655         3.75055 
        3.31446         52.7859         3.70631 
        3.33014         52.3028         3.66282 
        3.34585          51.757         3.61997 
        3.36158         51.4141         3.57774 
        3.37727         50.7268         3.53631 
        3.39294          50.246         3.49558 
        3.40867          49.804         3.45534 
        3.42439         49.2132         3.41576 
        3.44008         48.6592         3.37687 
        3.45578          48.275         3.33856 
        3.47153          47.782         3.30076 
        3.48724         47.3132         3.26361 
        3.50292         46.8736         3.22712 
        3.51859         46.4155         3.19121 
        3.53431         45.8527         3.15573 
        3.55007         45.4044          3.1207 
        3.56577         44.9583         3.08635 
        3.58146         44.4706         3.05252 
        3.59719         44.0959         3.01912 
        3.61292         43.5711         2.98624 
        3.62859         43.3092         2.95396 
        3.64429         42.9567         2.92211 
        3.66003         42.5789         2.89062 
        3.67578         42.1054         2.85961 
        3.69146         41.6981         2.82917 
        3.70712         41.3508         2.79924 
        3.72284         40.9619         2.76962 
        3.73853         40.5409         2.74048 
        3.75422         40.1364         2.71175 
        3.76993         39.7944         2.68341 
        3.78564         39.4137         2.65548 
        3.80137         39.1496         2.62791 
        3.81707         38.5978         2.60078 
        3.83279         38.3836         2.57402 
        3.84853         37.9598         2.54759 
        3.86424         37.5358         2.52158 
        3.87992         37.2345         2.49597 
        3.89561          36.961         2.47072 
        3.91134         36.6298         2.44576 
        3.92704          36.282         2.42118 
        3.94273         35.9301         2.39696 
        3.95845         35.5972         2.37303 
        3.97418          35.308         2.34942 
        3.98988         34.9296         2.32616 
        4.00554         34.6425         2.30328 
        4.02125         34.4068         2.28064 
        4.03698         34.0083         2.25827 
        4.05268         33.8335         2.23625 
        4.06839         33.4422         2.21451 
         4.0841         33.2361         2.19307 
        4.09983         32.8547         2.17188 
        4.11555         32.6001         2.15097 
        4.13124         32.2206          2.1304 
        4.14693         31.9688         2.11008 
        4.16266         31.7247         2.08998 
        4.17839         31.4201         2.07015 
        4.19408          31.189         2.05063 
        4.20977         30.9428         2.03135 
        4.22551         30.5905         2.01227 
        4.24123         30.3722         1.99345 
        4.25691         30.0904         1.97493 
        4.27259         29.8702         1.95663 
        4.28831         29.5535         1.93853 
        4.30404         29.3424         1.92064 
        4.31974         29.0733         1.90302 
        4.33543         28.8527         1.88563 
        4.35116         28.5905         1.86841 
        4.36688         28.3008         1.85141 
        4.38255         28.1442         1.83469 
        4.39825         27.8283         1.81814 
        4.41398          27.626         1.80176 
         4.4297         27.3991          1.7856 
        4.44541         27.2615         1.76964 
        4.46111         26.8998         1.75389 
        4.47683         26.7138         1.73831 
        4.49251         26.5231         1.72296 
        4.50819         26.3239          1.7078 
         4.5239         26.0178          1.6928 
        4.53962          25.879         1.67796 
        4.55535         25.6293         1.66329 
        4.57106         25.4099         1.64881 
        4.58678         25.2296         1.63451 
         4.6025          25.018         1.62037 
        4.61821         24.8661          1.6064 
        4.63391         24.5425         1.59262 
         4.6496         24.3762           1.579 
        4.66532         24.2204         1.56552 
        4.68103         23.9913          1.5522 
        4.69673         23.8067         1.53905 
        4.71241         23.6523         1.52607 
        4.72811         23.4329         1.51321 
        4.74384         23.2425         1.50048 
        4.75955         23.0809         1.48793 
        4.77525         22.8703         1.47552 
        4.79096         22.6462         1.46323 
        4.80669         22.5381         1.45109 
         4.8224         22.3225         1.43909 
        4.83809         22.1025         1.42724 
        4.85379         21.9341         1.41552 
         4.8695         21.8029         1.40392 
        4.88521         21.5694         1.39245 
        4.90093         21.4667         1.38111 
        4.91663          21.251         1.36991 
        4.93234         21.0936         1.35882 
        4.94807         20.9273         1.34784 
        4.96377         20.7912         1.33701 
        4.97943         20.6006         1.32632 
        4.99514         20.4675         1.31572 
        5.01086         20.3107         1.30522 
        5.02654         20.1549         1.29487 
        5.04227          20.015          1.2846 
          5.058         19.8134         1.27443 
        5.07371         19.6316          1.2644 
        5.08942         19.4909         1.25447 
        5.10513         19.4046         1.24464 
        5.12084         19.2456         1.23492 
        5.13656         19.0667          1.2253 
        5.15225         18.9636          1.2158 
        5.16796         18.7861         1.20639 
        5.18369         18.6319         1.19707 
         5.1994         18.4897         1.18786 
        5.21509         18.3435         1.17876 
        5.23079         18.2352         1.16974 
        5.24649         18.0846         1.16083 
        5.26217         17.9782         1.15201 
        5.27788         17.8295         1.14327 
        5.29359         17.6778         1.13462 
        5.30933         17.5263         1.12605 
        5.32504         17.4202         1.11758 
        5.34073         17.2792         1.10921 
        5.35646         17.1686         1.10091 
        5.37218          17.004         1.09269 
        5.38789         16.8926         1.08456 
        5.40357         16.7663         1.07653 
        5.41929         16.6646         1.06856 
        5.43502         16.5175         1.06067 
         5.4507         16.3821         1.05288 
        5.46639         16.2573         1.04517 
        5.48212         16.1647         1.03752 
        5.49786         16.0599         1.02993 
        5.51353         15.9721         1.02246 
        5.52921         15.8265         1.01505 
        5.54495         15.7119          1.0077 
        5.56066          15.582         1.00042 
        5.57637         15.4838        0.993224 
        5.59207         15.3593          0.9861 
        5.60778         15.2737        0.979043 
        5.62346         15.1482        0.972065 
        5.63916         15.0487        0.965148 
        5.65487         14.9284        0.958295 
         5.6706          14.813        0.951501 
        5.68633         14.7241         0.94477 
        5.70203         14.6104        0.938118 
        5.71773         14.5108        0.931531 
        5.73344         14.4195        0.925003 
        5.74916         14.3052        0.918532 
        5.76486         14.2122        0.912132 
        5.78054         14.0986        0.905803 
        5.79626         13.9849        0.899516 
          5.812         13.9265        0.893282 
         5.8277         13.7988        0.887125 
        5.84339          13.715        0.881027 
        5.85911         13.6241        0.874974 
        5.87484         13.5066        0.868979 
        5.89053         13.3925        0.863052 
        5.90623         13.3473        0.857177 
        5.92195         13.2226        0.851347 
        5.93767         13.1443        0.845575 
        5.95336          13.054        0.839865 
        5.96905         12.9732         0.83421 
        5.98476         12.8971        0.828599 
        6.00048         12.7911        0.823038 
        6.01617         12.7276        0.817535 
        6.03185         12.6034         0.81209 
        6.04756         12.5209        0.806681 
        6.06331         12.4555        0.801309 
        6.07903         12.3491        0.795998 
        6.09473         12.2608         0.79074 
        6.11044         12.1793        0.785524 
        6.12616         12.0951        0.780356 
        6.14186         12.0269         0.77524 
        6.15755         11.9392         0.77017 
        6.17326         11.8479        0.765142 
        6.18898         11.7665        0.760156 
        6.20467          11.669        0.755223 
        6.22036         11.5924        0.750334 
         6.2361         11.5212        0.745476 
         6.2518         11.4516        0.740668 
        6.26748         11.3822        0.735913 
        6.28319         11.3159        0.731187 
        6.29893         11.2382        0.726498 
        6.31463         11.1595        0.721858 
        6.33033         11.0867        0.717261 
        6.34604          10.988          0.7127 
        6.36177         10.9243        0.708174 
        6.37747         10.8675        0.703696 
