# k  (h/Mpc)    Pcb(k)  (Mpc/h)^3    Pcb_linear(k) (Mpc/h)^3   ShotnoiseSubtracted = true
      0.0200456           23428         23850.4 
      0.0350414         17893.8         17338.5 
      0.0492313           12303         12597.8 
      0.0637834         9915.28         10472.4 
      0.0800726         7777.06         8311.71 
       0.096163         6271.05         6030.87 
       0.111083         5107.68         4810.38 
       0.126058         4219.56         4262.97 
       0.142273         3703.75         3611.68 
       0.158546         3038.48         2852.47 
        0.17375         2725.03          2403.2 
       0.188953         2591.61         2176.04 
       0.204907         2230.38         1925.35 
       0.220756         2019.81         1628.97 
        0.23588         1803.64         1417.06 
         0.2514         1636.99         1287.38 
       0.267535         1577.04         1164.86 
       0.283568          1409.6         1027.25 
       0.299022         1343.04         915.228 
       0.314451         1400.62         836.456 
       0.330372         1245.03         767.355 
       0.346141         1143.11         696.491 
       0.361624         1096.62         633.015 
       0.377134         1053.66         582.474 
       0.392932         1002.17         538.952 
       0.408854         962.804          496.81 
       0.424564         942.742         457.916 
       0.440253         876.997         424.542 
       0.455999         838.447         395.521 
       0.471626         851.792         368.851 
        0.48727         804.627         343.903 
       0.502856         776.324         321.491 
       0.518488         750.257         301.494 
       0.534347         723.222         282.903 
       0.550082         689.762         265.762 
       0.565732         678.629         250.079 
       0.581496         664.148         235.717 
       0.597222         651.678         222.544 
       0.612804         635.345         210.432 
       0.628434         609.355         199.143 
       0.644267         593.097         188.588 
       0.660051         586.751          178.86 
       0.675724         575.086         169.877 
       0.691403         556.761         161.504 
       0.707174         541.175         153.648 
       0.722871         536.482         146.346 
        0.73838         523.251         139.596 
       0.754018         511.649         133.221 
       0.769845         504.702         127.175 
        0.78569         493.665         121.499 
       0.801365         477.545         116.226 
       0.817031         473.151         111.271 
       0.832809         465.534         106.575 
       0.848511         457.988         102.172 
       0.864097         448.128         98.0493 
       0.879701         447.912         94.1512 
       0.895507         430.083           90.42 
       0.911279         424.713         86.8997 
        0.92691         419.161         83.5969 
       0.942635         413.832         80.4482 
       0.958396         401.238         77.4558 
       0.974128         395.444         74.6217 
       0.989692         384.859          71.958 
        1.00528         380.675          69.421 
        1.02113          374.18          66.967 
        1.03692         368.637         64.6412 
        1.05264         363.517          62.437 
        1.06832         355.204         60.3394 
        1.08405         353.935          58.333 
        1.09979         345.896         56.4171 
        1.11537         337.127         54.6064 
        1.13105         333.324         52.8648 
        1.14679         327.451         51.1927 
        1.16256         325.632           49.59 
        1.17828         320.305         48.0613 
        1.19395           312.2         46.6025 
         1.2097          309.77         45.1971 
        1.22537         304.943         43.8566 
          1.241         298.335         42.5747 
        1.25666         295.428         41.3411 
        1.27241         291.635         40.1507 
        1.28819         284.326         39.0053 
        1.30392         284.271         37.9081 
        1.31957         276.558         36.8581 
        1.33529         272.783         35.8441 
        1.35108         271.454         34.8645 
        1.36674          264.19         33.9285 
         1.3824         261.131         33.0279 
        1.39811          257.97          32.157 
        1.41389          252.35         31.3143 
        1.42964         248.956         30.5033 
        1.44531         246.067         29.7251 
        1.46101         241.576         28.9725 
        1.47667          239.03         28.2482 
        1.49229         235.726         27.5507 
        1.50793         232.006          26.876 
        1.52367         228.319         26.2196 
        1.53953          224.74         25.5808 
        1.55526         222.033         24.9685 
        1.57092         220.157         24.3787 
        1.58662         215.222         23.8067 
        1.60235         212.613         23.2519 
        1.61809         210.608         22.7146 
        1.63369         206.574         22.1991 
        1.64941         203.615         21.6959 
        1.66519         200.907         21.2065 
        1.68085         197.321         20.7358 
        1.69652         195.313         20.2792 
        1.71228         192.348         19.8338 
        1.72806         190.176         19.4015 
        1.74368         187.755         18.9864 
        1.75933         186.369         18.5826 
        1.77505         183.406         18.1887 
        1.79081         180.136         17.8056 
         1.8065         179.114         17.4352 
        1.82218         174.491         17.0756 
        1.83797         173.227         16.7238 
        1.85367         170.702         16.3838 
        1.86928         168.073         16.0553 
        1.88497         166.422         15.7341 
        1.90073         164.853         15.4204 
        1.91647         161.762         15.1156 
        1.93218         159.192         14.8198 
        1.94787         157.253         14.5322 
        1.96363         156.438         14.2512 
        1.97935         154.522         13.9782 
        1.99499         152.032         13.7139 
        2.01064         148.909         13.4561 
         2.0264         148.451         13.2033 
        2.04216         145.695         12.9571 
        2.05781         143.372         12.7188 
        2.07353         142.603         12.4856 
        2.08928         140.735         12.2577 
        2.10499         139.069         12.0362 
        2.12065         137.508         11.8208 
        2.13633         135.454         11.6105 
        2.15211           133.4         11.4039 
        2.16785         132.094          11.203 
        2.18349         130.645         11.0082 
        2.19916         128.708         10.8176 
        2.21489         126.994         10.6309 
        2.23063         125.512         10.4484 
         2.2463         123.726         10.2711 
        2.26194         122.735         10.0983 
        2.27765         120.686         9.92868 
        2.29341         119.723         9.76247 
        2.30914         118.253         9.60041 
        2.32486          116.43         9.44213 
        2.34061         114.827         9.28715 
        2.35635         114.026          9.1358 
        2.37203          112.18         8.98834 
        2.38768          111.33         8.84445 
        2.40339           109.2         8.70318 
        2.41914         108.154         8.56468 
        2.43483         107.232         8.42968 
         2.4505         106.025         8.29782 
        2.46622         104.191         8.16833 
        2.48195         103.291          8.0416 
        2.49759         101.665         7.91823 
        2.51328         100.686         7.79713 
        2.52906         99.7565          7.6778 
        2.54479         98.3645         7.56142 
        2.56049         97.0203         7.44767 
        2.57618         96.0051         7.33636 
        2.59189         95.3752         7.22716 
        2.60758         93.7438         7.12036 
        2.62325         93.1189         7.01585 
        2.63898          91.911         6.91307 
        2.65468         91.0494         6.81256 
        2.67044         90.0897         6.71363 
        2.68618         88.6291         6.61689 
        2.70184         87.7114         6.52244 
        2.71755         87.0494          6.4296 
        2.73329          85.556         6.33843 
        2.74897         84.7393         6.24932 
        2.76462         84.4253         6.16212 
        2.78034         82.9901         6.07623 
        2.79607         81.8504         5.99188 
        2.81179         81.1592         5.90924 
        2.82749         80.4972         5.82824 
        2.84321         79.2213         5.74867 
        2.85893         78.0232         5.67062 
        2.87462         77.6395         5.59414 
        2.89033         76.6585         5.51901 
        2.90605         75.7962         5.44519 
        2.92176         75.2301         5.37276 
        2.93747          74.289         5.30168 
        2.95318         73.1547         5.23188 
        2.96891         72.7402          5.1633 
        2.98456         71.6151         5.09625 
        3.00023         70.9871          5.0303 
        3.01596         70.3698         4.96531 
        3.03164         69.4997         4.90165 
        3.04738         69.1363         4.83892 
         3.0631         67.9511         4.77732 
        3.07883         67.4341         4.71678 
        3.09456         66.4917          4.6573 
        3.11026         66.1369         4.59894 
        3.12596         65.2251         4.54158 
        3.14163         64.6156         4.48533 
        3.15734         63.6664         4.42991 
        3.17308         63.2839         4.37529 
        3.18879         62.6137         4.32174 
        3.20447         62.0385         4.26916 
         3.2202         61.0645          4.2173 
         3.2359         60.5134         4.16639 
        3.25157         60.1259         4.11644 
        3.26729         59.3422         4.06716 
        3.28304         58.5894         4.01858 
        3.29877         58.2172         3.97087 
        3.31446         57.3569         3.92403 
        3.33014         56.9543         3.87799 
        3.34585         56.3607         3.83262 
        3.36158         55.9486         3.78791 
        3.37727         55.4158         3.74405 
        3.39294         54.7087         3.70092 
        3.40867          54.288         3.65832 
        3.42439         53.6606         3.61641 
        3.44008         53.1205         3.57524 
        3.45578         52.5711         3.53468 
        3.47153         52.0763         3.49466 
        3.48724         51.6512         3.45533 
        3.50292         51.1337          3.4167 
        3.51859         50.6372         3.37868 
        3.53431         50.0434         3.34111 
        3.55007         49.4641         3.30403 
        3.56577         48.9836         3.26765 
        3.58146         48.5101         3.23184 
        3.59719         48.1507         3.19648 
        3.61292         47.5142         3.16166 
        3.62859         47.1812         3.12749 
        3.64429         46.7678         3.09377 
        3.66003         46.3846         3.06043 
        3.67578         45.7959          3.0276 
        3.69146         45.4418         2.99537 
        3.70712          45.078         2.96367 
        3.72284         44.5948         2.93232 
        3.73853         44.1872         2.90147 
        3.75422         43.7472         2.87105 
        3.76993         43.3784         2.84104 
        3.78564         42.9639         2.81148 
        3.80137         42.6025         2.78228 
        3.81707         42.0937         2.75356 
        3.83279         41.7734         2.72523 
        3.84853         41.3657         2.69724 
        3.86424         40.9629         2.66971 
        3.87992         40.5272          2.6426 
        3.89561         40.2679         2.61586 
        3.91134         39.8482         2.58944 
        3.92704         39.4921         2.56341 
        3.94273         39.1753         2.53777 
        3.95845         38.7054         2.51243 
        3.97418         38.4317         2.48743 
        3.98988         38.0986         2.46281 
        4.00554         37.6306         2.43858 
        4.02125         37.4262         2.41462 
        4.03698         37.0085         2.39093 
        4.05268           36.76         2.36762 
        4.06839         36.4431          2.3446 
         4.0841         36.1367          2.3219 
        4.09983         35.7347         2.29946 
        4.11555         35.5053         2.27733 
        4.13124         35.0236         2.25555 
        4.14693         34.8261         2.23404 
        4.16266         34.5442         2.21276 
        4.17839          34.149         2.19176 
        4.19408         33.8923         2.17109 
        4.20977         33.6135         2.15068 
        4.22551          33.312         2.13048 
        4.24123         33.0537         2.11055 
        4.25691         32.7185         2.09094 
        4.27259         32.4532         2.07157 
        4.28831         32.2348         2.05241 
        4.30404         31.9526         2.03347 
        4.31974         31.6536         2.01481 
        4.33543         31.3449          1.9964 
        4.35116         31.1002         1.97817 
        4.36688         30.7922         1.96017 
        4.38255         30.6261         1.94247 
        4.39825         30.3631         1.92495 
        4.41398         30.0863          1.9076 
         4.4297         29.7873         1.89049 
        4.44541         29.6344          1.8736 
        4.46111          29.238         1.85692 
        4.47683         29.1433         1.84043 
        4.49251         28.8913         1.82418 
        4.50819         28.5912         1.80812 
         4.5239         28.2975         1.79224 
        4.53962         28.1004         1.77653 
        4.55535         27.9034           1.761 
        4.57106          27.571         1.74567 
        4.58678         27.4232         1.73053 
         4.6025         27.2256         1.71556 
        4.61821         26.9777         1.70077 
        4.63391         26.7793         1.68617 
         4.6496         26.4966         1.67175 
        4.66532         26.3136         1.65748 
        4.68103         26.0833         1.64338 
        4.69673         25.9235         1.62946 
        4.71241         25.6874         1.61571 
        4.72811         25.4988          1.6021 
        4.74384         25.3609         1.58863 
        4.75955         25.1633         1.57533 
        4.77525         24.8711          1.5622 
        4.79096         24.6556         1.54919 
        4.80669         24.4829         1.53633 
         4.8224          24.333         1.52363 
        4.83809         24.0671         1.51108 
        4.85379         23.9218         1.49867 
         4.8695         23.7164         1.48639 
        4.88521         23.5199         1.47425 
        4.90093         23.3752         1.46225 
        4.91663         23.1942         1.45039 
        4.93234         22.9468         1.43864 
        4.94807         22.7525         1.42702 
        4.96377         22.6111         1.41555 
        4.97943         22.4777         1.40423 
        4.99514          22.325         1.39301 
        5.01086          22.115          1.3819 
        5.02654         21.9305         1.37094 
        5.04227         21.7531         1.36006 
          5.058         21.5371          1.3493 
        5.07371         21.4129         1.33867 
        5.08942         21.1994         1.32816 
        5.10513         21.1207         1.31776 
        5.12084         20.9357         1.30747 
        5.13656         20.7911         1.29728 
        5.15225         20.6781         1.28723 
        5.16796         20.4749         1.27726 
        5.18369         20.3031         1.26739 
         5.1994         20.1098         1.25764 
        5.21509         19.9972         1.24801 
        5.23079         19.8514         1.23846 
        5.24649         19.7118         1.22902 
        5.26217         19.5372         1.21968 
        5.27788          19.424         1.21043 
        5.29359         19.2418         1.20128 
        5.30933         19.0841          1.1922 
        5.32504         18.9575         1.18323 
        5.34073          18.803         1.17437 
        5.35646         18.6475         1.16558 
        5.37218         18.5461         1.15688 
        5.38789         18.4115         1.14827 
        5.40357         18.2573         1.13977 
        5.41929         18.1473         1.13134 
        5.43502         18.0096         1.12298 
         5.4507         17.8457         1.11474 
        5.46639         17.7199         1.10657 
        5.48212         17.5878         1.09847 
        5.49786         17.4573         1.09043 
        5.51353         17.3451         1.08252 
        5.52921         17.2015         1.07468 
        5.54495         17.0868          1.0669 
        5.56066         16.9577         1.05919 
        5.57637         16.8164         1.05157 
        5.59207         16.6923         1.04403 
        5.60778         16.6572         1.03656 
        5.62346         16.4701         1.02917 
        5.63916         16.3548         1.02185 
        5.65487         16.2063         1.01459 
         5.6706          16.135          1.0074 
        5.68633         16.0284         1.00027 
        5.70203          15.905        0.993227 
        5.71773         15.8002        0.986253 
        5.73344         15.6933        0.979342 
        5.74916         15.5632        0.972491 
        5.76486          15.448        0.965715 
        5.78054         15.3232        0.959014 
        5.79626         15.2638        0.952357 
          5.812         15.1463        0.945757 
         5.8277         14.9947        0.939239 
        5.84339         14.8996        0.932782 
        5.85911         14.8204        0.926374 
        5.87484         14.6891        0.920027 
        5.89053         14.5835        0.913751 
        5.90623         14.4954        0.907532 
        5.92195         14.3712        0.901359 
        5.93767         14.2907        0.895247 
        5.95336         14.1908        0.889202 
        5.96905         14.0881        0.883215 
        5.98476         14.0042        0.877275 
        6.00048         13.8893        0.871387 
        6.01617         13.8281        0.865561 
        6.03185          13.717        0.859796 
        6.04756         13.6317        0.854069 
        6.06331          13.539        0.848382 
        6.07903         13.4001        0.842758 
        6.09473         13.3266        0.837191 
        6.11044         13.2547        0.831669 
        6.12616         13.1768        0.826198 
        6.14186         13.0961        0.820781 
        6.15755         12.9717        0.815414 
        6.17326         12.8859         0.81009 
        6.18898         12.7923        0.804811 
        6.20467         12.6954        0.799588 
        6.22036         12.6242        0.794412 
         6.2361          12.521        0.789268 
         6.2518         12.4468        0.784178 
        6.26748         12.3932        0.779144 
        6.28319         12.2868         0.77414 
        6.29893         12.2169        0.769176 
        6.31463         12.1427        0.764264 
        6.33033         12.0571        0.759396 
        6.34604          11.964        0.754567 
        6.36177         11.8981        0.749775 
        6.37747         11.8205        0.745034 
