# k  (h/Mpc)    Pcb(k)  (Mpc/h)^3    Pcb_linear(k) (Mpc/h)^3   ShotnoiseSubtracted = true
      0.0200456          702.98         712.006 
      0.0350414         523.091         517.604 
      0.0492313         377.461         376.081 
      0.0637834         310.119         312.633 
      0.0800726         245.557         248.129 
       0.096163         182.491         180.039 
       0.111083         146.219         143.604 
       0.126058         126.662         127.262 
       0.142273         107.036         107.819 
       0.158546         85.6652         85.1546 
        0.17375         72.8756         71.7427 
       0.188953         65.4289         64.9614 
       0.204907         56.6325         57.4776 
       0.220756         49.0054         48.6295 
        0.23588         42.6915         42.3034 
         0.2514         38.7438         38.4322 
       0.267535         35.2743         34.7746 
       0.283568         31.0773         30.6665 
       0.299022         27.8761         27.3223 
       0.314451         25.8997         24.9707 
       0.330372         23.4485         22.9078 
       0.346141          21.322         20.7923 
       0.361624          19.374         18.8974 
       0.377134         17.7568         17.3886 
       0.392932         16.9152         16.0893 
       0.408854         15.2864         14.8312 
       0.424564         14.4352         13.6702 
       0.440253         13.2098         12.6738 
       0.455999         12.1322         11.8075 
       0.471626         11.3558         11.0113 
        0.48727         10.8556         10.2665 
       0.502856         10.1674         9.59746 
       0.518488           9.367         9.00048 
       0.534347         8.75362         8.44549 
       0.550082         8.37545         7.93377 
       0.565732         7.98953         7.46562 
       0.581496         7.49191         7.03684 
       0.597222         7.05548         6.64361 
       0.612804         6.64894         6.28203 
       0.628434         6.37539           5.945 
       0.644267         6.05994          5.6299 
       0.660051         5.73964          5.3395 
       0.675724         5.41289         5.07134 
       0.691403          5.1954         4.82137 
       0.707174         4.93953         4.58685 
       0.722871         4.81407         4.36885 
        0.73838         4.48969         4.16736 
       0.754018         4.28856         3.97705 
       0.769845         4.06481         3.79656 
        0.78569         3.95488         3.62712 
       0.801365         3.78164         3.46971 
       0.817031         3.64515         3.32178 
       0.832809         3.45443         3.18158 
       0.848511         3.34661         3.05014 
       0.864097         3.22513         2.92706 
       0.879701         3.12839         2.81069 
       0.895507         2.97787          2.6993 
       0.911279         2.87981         2.59421 
        0.92691         2.79511         2.49561 
       0.942635         2.65754         2.40162 
       0.958396         2.57311         2.31229 
       0.974128         2.49529         2.22768 
       0.989692         2.39206         2.14816 
        1.00528          2.3195         2.07242 
        1.02113         2.25619         1.99916 
        1.03692          2.1936         1.92973 
        1.05264         2.09407         1.86393 
        1.06832         2.03849         1.80131 
        1.08405         1.96544         1.74141 
        1.09979         1.91848         1.68422 
        1.11537         1.85286         1.63016 
        1.13105         1.78294         1.57817 
        1.14679         1.74043         1.52825 
        1.16256         1.68417         1.48041 
        1.17828         1.65297         1.43477 
        1.19395         1.59273         1.39122 
         1.2097         1.54523         1.34927 
        1.22537         1.49312         1.30925 
          1.241         1.46044         1.27098 
        1.25666         1.43247         1.23415 
        1.27241         1.39015         1.19862 
        1.28819         1.33908         1.16442 
        1.30392         1.30696         1.13167 
        1.31957         1.27997         1.10032 
        1.33529         1.23036         1.07005 
        1.35108          1.2056         1.04081 
        1.36674         1.17113         1.01287 
         1.3824         1.15508        0.985979 
        1.39811         1.11948        0.959982 
        1.41389         1.09137        0.934826 
        1.42964         1.06366        0.910615 
        1.44531         1.04147        0.887383 
        1.46101         1.00984        0.864915 
        1.47667        0.992064        0.843293 
        1.49229        0.958143         0.82247 
        1.50793        0.938341        0.802329 
        1.52367        0.914467        0.782734 
        1.53953        0.892605        0.763664 
        1.55526        0.880454        0.745383 
        1.57092         0.86553        0.727777 
        1.58662         0.84942          0.7107 
        1.60235        0.821622        0.694139 
        1.61809        0.804404        0.678098 
        1.63369        0.781089        0.662708 
        1.64941        0.769568        0.647687 
        1.66519        0.756248        0.633078 
        1.68085        0.735178        0.619024 
        1.69652        0.720525        0.605394 
        1.71228        0.703894        0.592098 
        1.72806          0.6907        0.579191 
        1.74368        0.677333        0.566799 
        1.75933        0.665027        0.554746 
        1.77505        0.653465        0.542988 
        1.79081        0.632212         0.53155 
         1.8065         0.62721        0.520492 
        1.82218        0.609677        0.509758 
        1.83797        0.594585        0.499254 
        1.85367        0.588885        0.489104 
        1.86928        0.576513        0.479298 
        1.88497        0.561833        0.469708 
        1.90073        0.556214        0.460346 
        1.91647        0.541728        0.451247 
        1.93218        0.533205        0.442414 
        1.94787        0.523111        0.433831 
        1.96363        0.514459        0.425441 
        1.97935        0.503332        0.417292 
        1.99499        0.495221        0.409402 
        2.01064         0.48651        0.401705 
         2.0264        0.474195        0.394157 
        2.04216        0.467394        0.386808 
        2.05781        0.460509        0.379693 
        2.07353        0.451399        0.372731 
        2.08928        0.444487        0.365929 
        2.10499        0.435437        0.359315 
        2.12065        0.428198        0.352885 
        2.13633        0.421624        0.346607 
        2.15211        0.412524        0.340441 
        2.16785        0.407279        0.334443 
        2.18349        0.400628        0.328626 
        2.19916        0.393227        0.322936 
        2.21489        0.385659        0.317363 
        2.23063        0.378963        0.311917 
         2.2463        0.373828        0.306623 
        2.26194        0.368601        0.301466 
        2.27765        0.361488        0.296401 
        2.29341        0.355868        0.291439 
        2.30914        0.348343        0.286601 
        2.32486        0.343622        0.281876 
        2.34061         0.33715        0.277249 
        2.35635         0.33264        0.272731 
        2.37203        0.329614        0.268329 
        2.38768         0.32325        0.264033 
        2.40339        0.317978        0.259816 
        2.41914        0.313647        0.255681 
        2.43483        0.308035        0.251651 
         2.4505        0.303532        0.247715 
        2.46622        0.299248        0.243849 
        2.48195        0.293364        0.240066 
        2.49759        0.292323        0.236383 
        2.51328        0.285131        0.232768 
        2.52906        0.280645        0.229205 
        2.54479        0.276922        0.225731 
        2.56049        0.272161        0.222335 
        2.57618        0.269926        0.219012 
        2.59189        0.264325        0.215752 
        2.60758        0.262364        0.212564 
        2.62325        0.258176        0.209444 
        2.63898        0.255341        0.206376 
        2.65468         0.24937        0.203375 
        2.67044        0.246804        0.200422 
        2.68618         0.24347        0.197534 
        2.70184        0.240023        0.194714 
        2.71755        0.235968        0.191943 
        2.73329        0.234833        0.189221 
        2.74897        0.229486        0.186561 
        2.76462        0.227495        0.183958 
        2.78034        0.223655        0.181393 
        2.79607        0.221621        0.178876 
        2.81179        0.216807        0.176408 
        2.82749        0.215306         0.17399 
        2.84321        0.212593        0.171615 
        2.85893        0.209287        0.169285 
        2.87462        0.206206        0.167002 
        2.89033        0.203821        0.164759 
        2.90605        0.201438        0.162555 
        2.92176        0.199821        0.160393 
        2.93747        0.196082        0.158271 
        2.95318        0.193916        0.156187 
        2.96891        0.191685         0.15414 
        2.98456        0.189835        0.152138 
        3.00023        0.186783        0.150169 
        3.01596        0.184352        0.148229 
        3.03164         0.18198        0.146329 
        3.04738        0.180397        0.144456 
         3.0631        0.178212        0.142617 
        3.07883        0.175872         0.14081 
        3.09456        0.173818        0.139034 
        3.11026        0.171191        0.137292 
        3.12596        0.168906         0.13558 
        3.14163        0.167584        0.133901 
        3.15734         0.16591        0.132246 
        3.17308        0.163715        0.130615 
        3.18879        0.161726        0.129017 
        3.20447        0.159536        0.127447 
         3.2202        0.158451        0.125899 
         3.2359        0.156168        0.124379 
        3.25157        0.154022        0.122888 
        3.26729        0.152969        0.121417 
        3.28304        0.151322        0.119967 
        3.29877         0.14919        0.118542 
        3.31446        0.148224        0.117144 
        3.33014        0.146405         0.11577 
        3.34585        0.144178        0.114415 
        3.36158        0.142974         0.11308 
        3.37727        0.141958        0.111771 
        3.39294        0.140433        0.110484 
        3.40867        0.138478        0.109212 
        3.42439        0.137493        0.107961 
        3.44008        0.136216        0.106732 
        3.45578        0.134553        0.105521 
        3.47153        0.133511        0.104326 
        3.48724        0.132119        0.103152 
        3.50292        0.131128        0.101999 
        3.51859        0.129499        0.100863 
        3.53431        0.128062       0.0997421 
        3.55007        0.127021        0.098635 
        3.56577        0.126244       0.0975491 
        3.58146        0.124688         0.09648 
        3.59719         0.12345       0.0954244 
        3.61292        0.122429        0.094385 
        3.62859        0.121486        0.093365 
        3.64429        0.119778       0.0923581 
        3.66003        0.119307        0.091363 
        3.67578        0.118005       0.0903828 
        3.69146        0.117008       0.0894208 
        3.70712        0.115952       0.0884745 
        3.72284         0.11526       0.0875384 
        3.73853        0.114281       0.0866174 
        3.75422        0.112978       0.0857094 
        3.76993        0.112051       0.0848136 
        3.78564        0.111229       0.0839309 
        3.80137        0.110605       0.0830594 
        3.81707        0.108952       0.0822021 
        3.83279         0.10835       0.0813561 
        3.84853        0.107441       0.0805207 
        3.86424        0.106484       0.0796987 
        3.87992        0.105613       0.0788893 
        3.89561        0.104822       0.0780912 
        3.91134        0.103813       0.0773024 
        3.92704         0.10288       0.0765255 
        3.94273        0.102009         0.07576 
        3.95845        0.100897       0.0750035 
        3.97418        0.100331       0.0742573 
        3.98988       0.0988669       0.0735222 
        4.00554       0.0983621        0.072799 
        4.02125        0.097216       0.0720835 
        4.03698       0.0957604       0.0713765 
        4.05268       0.0950718       0.0706806 
        4.06839       0.0936118       0.0699934 
         4.0841       0.0923916       0.0693156 
        4.09983       0.0913379       0.0686458 
        4.11555       0.0900708       0.0679851 
        4.13124        0.089013       0.0673349 
        4.14693       0.0879457       0.0666927 
        4.16266       0.0868273       0.0660574 
        4.17839       0.0858656       0.0654307 
        4.19408       0.0847125       0.0648135 
        4.20977       0.0839412       0.0642041 
        4.22551       0.0831386        0.063601 
        4.24123       0.0820522       0.0630063 
        4.25691       0.0812914       0.0624208 
        4.27259       0.0804804       0.0618426 
        4.28831       0.0800031       0.0612705 
        4.30404       0.0786669       0.0607051 
        4.31974       0.0782164       0.0601481 
        4.33543       0.0775113       0.0595983 
        4.35116       0.0770063       0.0590541 
        4.36688       0.0761885        0.058517 
        4.38255       0.0756387       0.0579885 
        4.39825       0.0752323       0.0574653 
        4.41398        0.074525       0.0569476 
         4.4297       0.0741307       0.0564368 
        4.44541       0.0735545       0.0559324 
        4.46111       0.0730063       0.0554345 
        4.47683       0.0725488       0.0549423 
        4.49251       0.0722008       0.0544571 
        4.50819       0.0719911       0.0539778 
         4.5239       0.0714383       0.0535037 
        4.53962       0.0710883       0.0530346 
        4.55535       0.0710157        0.052571 
        4.57106       0.0705862       0.0521135 
        4.58678       0.0704067       0.0516614 
         4.6025       0.0702041       0.0512145 
        4.61821       0.0700787        0.050773 
        4.63391       0.0698738       0.0503373 
         4.6496       0.0696983       0.0499068 
        4.66532       0.0696119       0.0494808 
        4.68103       0.0695682       0.0490599 
        4.69673       0.0694149       0.0486442 
        4.71241       0.0697193       0.0482338 
        4.72811       0.0694342       0.0478275 
        4.74384        0.069263       0.0474253 
        4.75955       0.0693584       0.0470284 
        4.77525        0.069586       0.0466362 
        4.79096        0.069622        0.046248 
        4.80669       0.0694379        0.045864 
         4.8224       0.0698381       0.0454848 
        4.83809       0.0699211       0.0451103 
        4.85379       0.0700757       0.0447398 
         4.8695       0.0703475       0.0443732 
        4.88521        0.070561       0.0440108 
        4.90093       0.0710494       0.0436524 
        4.91663       0.0711564       0.0432983 
        4.93234       0.0713418       0.0429478 
        4.94807       0.0717059       0.0426009 
        4.96377       0.0721177       0.0422585 
        4.97943       0.0728464       0.0419205 
        4.99514       0.0729814       0.0415854 
        5.01086       0.0732031       0.0412537 
        5.02654       0.0740524       0.0409265 
        5.04227       0.0744536       0.0406018 
          5.058       0.0747707       0.0402805 
        5.07371       0.0754259       0.0399634 
        5.08942       0.0762718       0.0396495 
        5.10513       0.0768865       0.0393391 
        5.12084       0.0774271       0.0390317 
        5.13656       0.0779846       0.0387278 
        5.15225       0.0789412       0.0384275 
        5.16796       0.0796647         0.03813 
        5.18369       0.0803251       0.0378354 
         5.1994       0.0810871       0.0375444 
        5.21509       0.0820426       0.0372567 
        5.23079       0.0827911       0.0369717 
        5.24649        0.083769       0.0366899 
        5.26217       0.0847411       0.0364112 
        5.27788        0.085737        0.036135 
        5.29359       0.0867429       0.0358617 
        5.30933       0.0876974       0.0355908 
        5.32504       0.0888521       0.0353231 
        5.34073        0.089613       0.0350584 
        5.35646       0.0910641        0.034796 
        5.37218       0.0922573       0.0345362 
        5.38789       0.0934975       0.0342794 
        5.40357       0.0944093       0.0340256 
        5.41929       0.0956794       0.0337737 
        5.43502       0.0974538       0.0335244 
         5.4507       0.0988446       0.0332782 
        5.46639       0.0999886       0.0330344 
        5.48212        0.101319       0.0327925 
        5.49786         0.10308       0.0325527 
        5.51353        0.105256       0.0323165 
        5.52921        0.105751       0.0320824 
        5.54495        0.108307         0.03185 
        5.56066        0.109637       0.0316201 
        5.57637        0.111225       0.0313925 
        5.59207        0.112422       0.0311673 
        5.60778        0.114682       0.0309443 
        5.62346        0.116277       0.0307237 
        5.63916        0.118242       0.0305051 
        5.65487        0.120698       0.0302885 
         5.6706        0.121815       0.0300738 
        5.68633        0.124437        0.029861 
        5.70203        0.126506       0.0296508 
        5.71773        0.128734       0.0294426 
        5.73344        0.131169       0.0292363 
        5.74916        0.133605       0.0290317 
        5.76486        0.135572       0.0288295 
        5.78054        0.137515       0.0286294 
        5.79626        0.140517       0.0284307 
          5.812        0.142323       0.0282337 
         5.8277        0.144841       0.0280391 
        5.84339        0.147597       0.0278463 
        5.85911        0.149766        0.027655 
        5.87484        0.152464       0.0274655 
        5.89053        0.154696       0.0272782 
        5.90623        0.159195       0.0270925 
        5.92195        0.160612       0.0269082 
        5.93767        0.163504       0.0267258 
        5.95336        0.166613       0.0265453 
        5.96905        0.169872       0.0263666 
        5.98476        0.171896       0.0261893 
        6.00048        0.175678       0.0260135 
        6.01617         0.17854       0.0258396 
        6.03185         0.18158       0.0256675 
        6.04756        0.184358       0.0254965 
        6.06331        0.188961       0.0253267 
        6.07903         0.19236       0.0251588 
        6.09473         0.19438       0.0249926 
        6.11044        0.200023       0.0248278 
        6.12616        0.200541       0.0246645 
        6.14186        0.205111       0.0245028 
        6.15755        0.209194       0.0243425 
        6.17326        0.213214       0.0241836 
        6.18898        0.215941        0.024026 
        6.20467        0.219615       0.0238701 
        6.22036        0.222856       0.0237156 
         6.2361         0.22519        0.023562 
         6.2518        0.230468         0.02341 
        6.26748        0.235144       0.0232598 
        6.28319        0.239656       0.0231104 
        6.29893        0.243766       0.0229622 
        6.31463        0.247486       0.0228155 
        6.33033        0.250124       0.0226702 
        6.34604         0.25552       0.0225261 
        6.36177        0.259081        0.022383 
        6.37747        0.263076       0.0222415 
