# k  (h/Mpc)    Pcb(k)  (Mpc/h)^3    Pcb_linear(k) (Mpc/h)^3   ShotnoiseSubtracted = true
      0.0200456         6728.66         6843.88 
      0.0350414         4869.61         4975.27 
      0.0492313         3603.06         3614.94 
      0.0637834         3057.75         3005.06 
      0.0800726         2422.47         2385.04 
       0.096163         1705.25         1730.56 
       0.111083         1353.19         1380.34 
       0.126058         1240.04         1223.26 
       0.142273         1067.94         1036.37 
       0.158546         873.232         818.515 
        0.17375          706.61         689.598 
       0.188953         671.846         624.416 
       0.204907         627.896         552.481 
       0.220756         527.518         467.432 
        0.23588         461.745         406.625 
         0.2514          406.89         369.415 
       0.267535         387.194         334.257 
       0.283568         350.246          294.77 
       0.299022         322.846         262.625 
       0.314451         296.452         240.021 
       0.330372         274.653         220.192 
       0.346141          247.28         199.858 
       0.361624         235.373         181.644 
       0.377134         220.811         167.141 
       0.392932         202.636         154.652 
       0.408854         194.367         142.559 
       0.424564         186.233         131.399 
       0.440253         175.392         121.822 
       0.455999          165.06         113.495 
       0.471626         152.601         105.842 
        0.48727         148.155          98.683 
       0.502856         141.819         92.2518 
       0.518488          137.99         86.5136 
       0.534347         131.702          81.179 
       0.550082         121.956         76.2603 
       0.565732         117.538         71.7603 
       0.581496         112.808         67.6389 
       0.597222         109.187         63.8591 
       0.612804         103.938         60.3835 
       0.628434         101.652          57.144 
       0.644267         98.2047         54.1153 
       0.660051         95.7697         51.3238 
       0.675724         92.4086         48.7463 
       0.691403         89.6195         46.3436 
       0.707174         86.3687         44.0893 
       0.722871         84.5675         41.9939 
        0.73838         82.7608         40.0571 
       0.754018         78.7347         38.2279 
       0.769845         77.2072          36.493 
        0.78569          75.268         34.8643 
       0.801365         72.8136         33.3512 
       0.817031         70.5472         31.9293 
       0.832809         69.7204         30.5817 
       0.848511          66.732         29.3183 
       0.864097         65.1115         28.1352 
       0.879701         64.2506         27.0167 
       0.895507         63.1184          25.946 
       0.911279         61.7943         24.9359 
        0.92691         60.2015         23.9881 
       0.942635         58.2392         23.0846 
       0.958396         58.0139         22.2259 
       0.974128         56.4887         21.4127 
       0.989692         55.3684         20.6484 
        1.00528         54.2475         19.9204 
        1.02113          52.873         19.2162 
        1.03692         51.6496         18.5488 
        1.05264         51.2677         17.9163 
        1.06832         49.9155         17.3144 
        1.08405         49.3158         16.7387 
        1.09979          48.619         16.1889 
        1.11537         46.8048         15.6693 
        1.13105         47.1269         15.1696 
        1.14679         46.1589         14.6897 
        1.16256          45.213         14.2298 
        1.17828         44.1607         13.7912 
        1.19395         43.6456         13.3726 
         1.2097         42.9656         12.9693 
        1.22537         42.6701         12.5847 
          1.241         41.5769         12.2168 
        1.25666         40.7091         11.8628 
        1.27241         40.4229         11.5212 
        1.28819         39.3486         11.1926 
        1.30392          38.872         10.8777 
        1.31957         38.6196         10.5764 
        1.33529         38.1933         10.2855 
        1.35108         37.6106         10.0044 
        1.36674         36.9363         9.73578 
         1.3824         36.0824         9.47734 
        1.39811         36.0038         9.22745 
        1.41389         35.4458         8.98564 
        1.42964         34.8224         8.75294 
        1.44531         34.5123         8.52963 
        1.46101         33.6977         8.31365 
        1.47667         33.5991         8.10582 
        1.49229         33.2726         7.90567 
        1.50793         32.6773         7.71207 
        1.52367         32.3573         7.52373 
        1.53953          32.103         7.34042 
        1.55526         31.4485          7.1647 
        1.57092         31.1218         6.99548 
        1.58662         30.7149         6.83132 
        1.60235         30.4099         6.67214 
        1.61809         29.9693         6.51795 
        1.63369          29.619         6.37002 
        1.64941         29.1354         6.22563 
        1.66519         28.9378         6.08521 
        1.68085         28.5818         5.95013 
        1.69652         28.2598         5.81911 
        1.71228         28.0373         5.69131 
        1.72806         27.5692         5.56725 
        1.74368         27.2108         5.44814 
        1.75933         26.9209         5.33228 
        1.77505         26.7869         5.21926 
        1.79081         26.3344         5.10932 
         1.8065         26.1204         5.00302 
        1.82218         25.8671         4.89985 
        1.83797         25.4935         4.79888 
        1.85367         25.2003         4.70132 
        1.86928         24.9705         4.60707 
        1.88497         24.5756         4.51489 
        1.90073         24.5975         4.42489 
        1.91647          24.164         4.33743 
        1.93218         23.9734         4.25253 
        1.94787         23.7502         4.17003 
        1.96363         23.5691         4.08939 
        1.97935         23.2942         4.01105 
        1.99499         23.0137         3.93521 
        2.01064         22.8609         3.86123 
         2.0264         22.4496         3.78868 
        2.04216         22.2795         3.71804 
        2.05781         22.0578         3.64965 
        2.07353         21.8519         3.58273 
        2.08928         21.7883         3.51735 
        2.10499         21.4939         3.45378 
        2.12065         21.1312         3.39197 
        2.13633         21.0886         3.33162 
        2.15211         20.6961         3.27236 
        2.16785         20.6293          3.2147 
        2.18349         20.4335         3.15879 
        2.19916          20.227          3.1041 
        2.21489         20.0027         3.05052 
        2.23063         19.8495         2.99818 
         2.2463         19.6801         2.94729 
        2.26194         19.5533         2.89772 
        2.27765         19.2525         2.84903 
        2.29341         19.0285         2.80134 
        2.30914         18.9409         2.75484 
        2.32486         18.7975         2.70942 
        2.34061         18.5899         2.66495 
        2.35635         18.3243         2.62152 
        2.37203         18.2355          2.5792 
        2.38768         18.0841         2.53791 
        2.40339          17.884         2.49738 
        2.41914         17.7164         2.45764 
        2.43483         17.5556          2.4189 
         2.4505         17.3586         2.38106 
        2.46622         17.2219          2.3439 
        2.48195         17.0468         2.30754 
        2.49759         16.8967         2.27214 
        2.51328         16.7502         2.23739 
        2.52906         16.6433         2.20315 
        2.54479         16.4706         2.16975 
        2.56049         16.3283         2.13711 
        2.57618         16.2129         2.10517 
        2.59189          16.066         2.07383 
        2.60758         15.9283         2.04319 
        2.62325         15.8074          2.0132 
        2.63898         15.6373          1.9837 
        2.65468         15.5448         1.95486 
        2.67044         15.3562         1.92648 
        2.68618         15.2593         1.89872 
        2.70184         15.1215         1.87161 
        2.71755         14.9481         1.84497 
        2.73329          14.853         1.81881 
        2.74897         14.6872         1.79324 
        2.76462         14.7003         1.76822 
        2.78034          14.461         1.74357 
        2.79607          14.329         1.71937 
        2.81179         14.2171         1.69566 
        2.82749         14.1118         1.67241 
        2.84321         13.9622         1.64958 
        2.85893         13.8685         1.62718 
        2.87462         13.7517         1.60524 
        2.89033         13.5815         1.58368 
        2.90605         13.5153          1.5625 
        2.92176         13.3887         1.54171 
        2.93747         13.3071         1.52132 
        2.95318         13.1464         1.50129 
        2.96891         13.0297         1.48161 
        2.98456         12.9606         1.46237 
        3.00023         12.8587         1.44344 
        3.01596         12.7469          1.4248 
        3.03164         12.6436         1.40653 
        3.04738         12.5083         1.38853 
         3.0631         12.4278         1.37085 
        3.07883         12.2858         1.35348 
        3.09456         12.2258         1.33641 
        3.11026          12.061         1.31966 
        3.12596         12.0306         1.30321 
        3.14163         11.9212         1.28707 
        3.15734         11.8038         1.27116 
        3.17308         11.7199         1.25549 
        3.18879         11.6719         1.24012 
        3.20447         11.5198         1.22504 
         3.2202         11.4282         1.21015 
         3.2359         11.3885         1.19554 
        3.25157         11.2836         1.18121 
        3.26729         11.1589         1.16707 
        3.28304         11.0693         1.15313 
        3.29877         10.9694         1.13944 
        3.31446         10.9108           1.126 
        3.33014         10.8015         1.11279 
        3.34585         10.7582         1.09977 
        3.36158         10.6818         1.08694 
        3.37727          10.564         1.07435 
        3.39294         10.4844         1.06198 
        3.40867         10.3669         1.04976 
        3.42439         10.3039         1.03773 
        3.44008         10.2349         1.02592 
        3.45578         10.1554         1.01428 
        3.47153         10.1094         1.00279 
        3.48724          10.018        0.991508 
        3.50292         9.91457        0.980422 
        3.51859         9.86956        0.969511 
        3.53431         9.77468        0.958732 
        3.55007         9.70448        0.948091 
        3.56577         9.64031        0.937653 
        3.58146         9.56843        0.927376 
        3.59719         9.47269         0.91723 
        3.61292         9.39958        0.907239 
        3.62859         9.31192        0.897434 
        3.64429          9.2777        0.887756 
        3.66003         9.17446        0.878191 
        3.67578          9.0867         0.86877 
        3.69146         9.05698        0.859522 
        3.70712           8.988        0.850427 
        3.72284         8.91301        0.841428 
        3.73853         8.83858        0.832576 
        3.75422         8.78796        0.823848 
        3.76993         8.70954        0.815237 
        3.78564         8.62979        0.806753 
        3.80137         8.58516        0.798376 
        3.81707         8.49429        0.790135 
        3.83279         8.46338        0.782004 
        3.84853           8.382        0.773974 
        3.86424         8.30373        0.766072 
        3.87992         8.22997        0.758293 
        3.89561         8.20142        0.750621 
        3.91134         8.13574        0.743039 
        3.92704          8.0707        0.735571 
        3.94273         8.01222        0.728213 
        3.95845         7.96448        0.720942 
        3.97418         7.86911        0.713769 
        3.98988         7.83082        0.706703 
        4.00554         7.76359        0.699752 
        4.02125         7.71342        0.692874 
        4.03698         7.66342        0.686079 
        4.05268         7.60822        0.679389 
        4.06839          7.5308        0.672784 
         4.0841         7.48538        0.666269 
        4.09983         7.45208        0.659831 
        4.11555         7.39223         0.65348 
        4.13124         7.33489        0.647231 
        4.14693         7.26274        0.641058 
        4.16266         7.21274        0.634951 
        4.17839          7.1647        0.628927 
        4.19408         7.09952        0.622995 
        4.20977         7.04961        0.617137 
        4.22551         6.99279         0.61134 
        4.24123         6.94065        0.605623 
        4.25691         6.88456        0.599996 
        4.27259          6.8464        0.594438 
        4.28831         6.79149        0.588939 
        4.30404         6.73902        0.583504 
        4.31974         6.68834         0.57815 
        4.33543         6.64158        0.572866 
        4.35116         6.59307        0.567635 
        4.36688         6.53786        0.562471 
        4.38255         6.48867        0.557391 
        4.39825         6.43244        0.552363 
        4.41398         6.40444        0.547387 
         4.4297         6.37151        0.542477 
        4.44541          6.3008        0.537628 
        4.46111         6.29044        0.532842 
        4.47683         6.20784        0.528111 
        4.49251         6.19746        0.523447 
        4.50819         6.13004        0.518841 
         4.5239         6.08159        0.514283 
        4.53962         6.05993        0.509775 
        4.55535         5.99409        0.505318 
        4.57106         5.95668        0.500921 
        4.58678         5.91763        0.496575 
         4.6025         5.87055         0.49228 
        4.61821         5.82895        0.488036 
        4.63391          5.7971        0.483848 
         4.6496         5.74499         0.47971 
        4.66532         5.72916        0.475615 
        4.68103         5.65712        0.471569 
        4.69673         5.64595        0.467574 
        4.71241         5.59307        0.463629 
        4.72811         5.54845        0.459723 
        4.74384         5.51271        0.455857 
        4.75955         5.47229        0.452042 
        4.77525         5.44159        0.448272 
        4.79096           5.402        0.444541 
        4.80669         5.37226         0.44085 
         4.8224         5.33805        0.437205 
        4.83809         5.28551        0.433605 
        4.85379         5.23769        0.430044 
         4.8695         5.22349         0.42652 
        4.88521         5.18754        0.423037 
        4.90093         5.13167        0.419592 
        4.91663         5.11565        0.416188 
        4.93234         5.08654        0.412819 
        4.94807         5.03363        0.409484 
        4.96377         5.00216        0.406193 
        4.97943         4.96358        0.402945 
        4.99514         4.92866        0.399724 
        5.01086         4.89882        0.396535 
        5.02654         4.88106         0.39339 
        5.04227         4.83826        0.390269 
          5.058         4.80239        0.387181 
        5.07371         4.77836        0.384132 
        5.08942          4.7434        0.381116 
        5.10513         4.71778        0.378131 
        5.12084         4.68931        0.375177 
        5.13656         4.65429        0.372256 
        5.15225          4.6226         0.36937 
        5.16796         4.59308         0.36651 
        5.18369         4.55309        0.363678 
         5.1994         4.53069        0.360881 
        5.21509         4.49685        0.358115 
        5.23079         4.47449        0.355376 
        5.24649         4.43958        0.352667 
        5.26217         4.41149        0.349989 
        5.27788         4.38026        0.347334 
        5.29359         4.34757        0.344706 
        5.30933          4.3257        0.342102 
        5.32504         4.30034        0.339529 
        5.34073         4.26313        0.336986 
        5.35646         4.23952        0.334463 
        5.37218         4.20925        0.331965 
        5.38789         4.18783        0.329497 
        5.40357         4.16047        0.327057 
        5.41929         4.13007        0.324637 
        5.43502         4.11576         0.32224 
         5.4507         4.07609        0.319873 
        5.46639         4.05461         0.31753 
        5.48212         4.03557        0.315205 
        5.49786         4.00849          0.3129 
        5.51353         3.97725         0.31063 
        5.52921         3.95489         0.30838 
        5.54495         3.92278        0.306146 
        5.56066         3.90909        0.303936 
        5.57637         3.88057        0.301748 
        5.59207         3.85659        0.299584 
        5.60778         3.83342         0.29744 
        5.62346         3.80145         0.29532 
        5.63916         3.78381        0.293219 
        5.65487         3.75859        0.291137 
         5.6706         3.73896        0.289072 
        5.68633         3.71527        0.287027 
        5.70203         3.68694        0.285006 
        5.71773          3.6724        0.283005 
        5.73344         3.64918        0.281022 
        5.74916         3.62608        0.279056 
        5.76486          3.6056        0.277112 
        5.78054          3.5807        0.275189 
        5.79626         3.56098        0.273279 
          5.812         3.54223        0.271385 
         5.8277         3.52336        0.269515 
        5.84339         3.49638        0.267662 
        5.85911         3.47971        0.265823 
        5.87484          3.4568        0.264002 
        5.89053         3.43596        0.262201 
        5.90623         3.41281        0.260416 
        5.92195         3.39339        0.258645 
        5.93767         3.37851        0.256891 
        5.95336         3.36175        0.255157 
        5.96905         3.33736        0.253439 
        5.98476         3.31526        0.251734 
        6.00048         3.29154        0.250045 
        6.01617         3.27773        0.248373 
        6.03185         3.25329        0.246718 
        6.04756         3.24231        0.245075 
        6.06331         3.21444        0.243443 
        6.07903         3.20204         0.24183 
        6.09473         3.18369        0.240232 
        6.11044         3.16172        0.238648 
        6.12616         3.14603        0.237078 
        6.14186         3.13156        0.235523 
        6.15755         3.10586        0.233983 
        6.17326         3.09763        0.232455 
        6.18898         3.07402         0.23094 
        6.20467         3.05518        0.229442 
        6.22036         3.03391        0.227957 
         6.2361         3.02293        0.226481 
         6.2518         3.00526         0.22502 
        6.26748         2.98682        0.223575 
        6.28319         2.96856         0.22214 
        6.29893         2.95371        0.220715 
        6.31463         2.93934        0.219305 
        6.33033         2.92905        0.217909 
        6.34604         2.90434        0.216523 
        6.36177         2.88665        0.215148 
        6.37747          2.8713        0.213788 
