# k  (h/Mpc)    Pcb(k)  (Mpc/h)^3    Pcb_linear(k) (Mpc/h)^3   ShotnoiseSubtracted = true
      0.0200456         10897.5         11105.2 
      0.0350414         7836.08         8073.14 
      0.0492313         5816.21         5865.79 
      0.0637834         4970.71         4876.18 
      0.0800726         3933.56          3870.1 
       0.096163         2750.22          2808.1 
       0.111083          2187.5         2239.81 
       0.126058         2014.56         1984.93 
       0.142273         1739.89         1681.67 
       0.158546         1453.46         1328.17 
        0.17375         1166.88         1118.98 
       0.188953         1124.72         1013.21 
       0.204907         1055.85         896.485 
       0.220756         896.731          758.48 
        0.23588         789.129         659.812 
         0.2514         689.548         599.433 
       0.267535         670.683         542.384 
       0.283568         607.941          478.31 
       0.299022         566.299         426.149 
       0.314451          531.09         389.471 
       0.330372         489.942         357.296 
       0.346141         444.472         324.301 
       0.361624         427.217         294.745 
       0.377134         397.574         271.212 
       0.392932         376.114         250.947 
       0.408854         360.837         231.325 
       0.424564         343.211         213.215 
       0.440253         331.002         197.675 
       0.455999         311.414         184.163 
       0.471626         290.277         171.745 
        0.48727         281.769         160.128 
       0.502856         272.273         149.693 
       0.518488         268.856         140.382 
       0.534347         253.193         131.725 
       0.550082         237.771         123.744 
       0.565732          233.84         116.442 
       0.581496         221.971         109.755 
       0.597222         216.521         103.621 
       0.612804         208.659         97.9816 
       0.628434          201.59         92.7249 
       0.644267         194.993         87.8103 
       0.660051         192.598         83.2808 
       0.675724         188.218         79.0984 
       0.691403         182.773         75.1996 
       0.707174         175.054         71.5417 
       0.722871         173.524         68.1416 
        0.73838         169.704         64.9988 
       0.754018         164.533         62.0306 
       0.769845         159.853         59.2155 
        0.78569         157.625         56.5726 
       0.801365         152.999         54.1175 
       0.817031         147.934         51.8102 
       0.832809         145.847         49.6235 
       0.848511          142.16         47.5734 
       0.864097          139.64         45.6538 
       0.879701         136.646         43.8387 
       0.895507         133.249         42.1014 
       0.911279          130.72         40.4623 
        0.92691         129.349         38.9244 
       0.942635         126.132         37.4584 
       0.958396         125.837          36.065 
       0.974128         122.254         34.7454 
       0.989692         119.258         33.5051 
        1.00528         116.977         32.3238 
        1.02113         116.214         31.1812 
        1.03692         111.794         30.0983 
        1.05264         111.242         29.0719 
        1.06832         108.668         28.0953 
        1.08405          107.23         27.1611 
        1.09979         106.676         26.2689 
        1.11537         103.106         25.4259 
        1.13105         102.891         24.6149 
        1.14679         101.714         23.8364 
        1.16256          100.22         23.0901 
        1.17828         97.6534         22.3783 
        1.19395         96.4853         21.6991 
         1.2097         94.3367         21.0447 
        1.22537         94.3769         20.4205 
          1.241         92.1623         19.8237 
        1.25666         90.3329         19.2493 
        1.27241         89.2204          18.695 
        1.28819         87.8222         18.1617 
        1.30392         86.7594         17.6508 
        1.31957         85.5042         17.1619 
        1.33529         83.9829         16.6898 
        1.35108         83.1514         16.2336 
        1.36674          82.205         15.7978 
         1.3824         80.6812         15.3784 
        1.39811         79.8322          14.973 
        1.41389          78.646         14.5806 
        1.42964         77.7034          14.203 
        1.44531         76.0601         13.8406 
        1.46101         75.1404         13.4902 
        1.47667         74.9669         13.1529 
        1.49229         73.4508         12.8282 
        1.50793         72.9599          12.514 
        1.52367         71.7674         12.2084 
        1.53953         70.7311          11.911 
        1.55526          70.067         11.6258 
        1.57092         69.8049         11.3512 
        1.58662          68.272         11.0849 
        1.60235         67.7734         10.8266 
        1.61809          66.836         10.5764 
        1.63369         65.8256         10.3363 
        1.64941         65.2131         10.1021 
        1.66519         63.9386         9.87419 
        1.68085         63.5138           9.655 
        1.69652         62.4218         9.44241 
        1.71228         62.0897         9.23502 
        1.72806         61.3944         9.03372 
        1.74368         60.5879         8.84044 
        1.75933         59.8658         8.65245 
        1.77505         59.2959         8.46905 
        1.79081         58.4771         8.29066 
         1.8065         57.9619         8.11817 
        1.82218         57.1332         7.95076 
        1.83797         56.5353         7.78693 
        1.85367         55.8905         7.62862 
        1.86928         55.3561         7.47568 
        1.88497         54.6595          7.3261 
        1.90073         53.9436         7.18007 
        1.91647         53.6134         7.03816 
        1.93218         52.9194         6.90039 
        1.94787         52.3398         6.76651 
        1.96363         51.6378         6.63566 
        1.97935         51.2399         6.50855 
        1.99499         50.4887         6.38549 
        2.01064         50.3212         6.26544 
         2.0264          49.098         6.14772 
        2.04216         48.8737         6.03309 
        2.05781         48.2537         5.92211 
        2.07353         47.7532         5.81353 
        2.08928         47.2054         5.70744 
        2.10499         46.8169         5.60429 
        2.12065         46.2271         5.50399 
        2.13633          46.019         5.40607 
        2.15211         45.5858          5.3099 
        2.16785         44.6986         5.21634 
        2.18349         44.4291         5.12563 
        2.19916         44.0054         5.03688 
        2.21489         43.5376         4.94994 
        2.23063         42.8898           4.865 
         2.2463         42.4829         4.78244 
        2.26194         41.8398           4.702 
        2.27765         41.4268           4.623 
        2.29341         40.9495         4.54561 
        2.30914         40.4986         4.47015 
        2.32486          39.967         4.39645 
        2.34061         39.7016         4.32429 
        2.35635         39.2691         4.25382 
        2.37203          38.805         4.18516 
        2.38768         38.4253         4.11816 
        2.40339         38.1857         4.05238 
        2.41914         37.8096         3.98789 
        2.43483         37.1721         3.92503 
         2.4505         36.9197         3.86364 
        2.46622         36.5593         3.80334 
        2.48195         36.2149         3.74433 
        2.49759          35.778         3.68689 
        2.51328         35.2935         3.63051 
        2.52906         35.1039         3.57494 
        2.54479          34.529         3.52075 
        2.56049         34.2415         3.46779 
        2.57618         33.9188         3.41596 
        2.59189         33.6172         3.36512 
        2.60758         33.3679         3.31539 
        2.62325            32.9         3.26672 
        2.63898         32.6177         3.21887 
        2.65468         32.2544         3.17207 
        2.67044         31.9202           3.126 
        2.68618         31.6527         3.08096 
        2.70184         31.2747         3.03698 
        2.71755         31.1221         2.99375 
        2.73329         30.7527          2.9513 
        2.74897         30.4018         2.90981 
        2.76462         30.0171         2.86921 
        2.78034         29.8985         2.82922 
        2.79607         29.5551         2.78994 
        2.81179         29.3005         2.75146 
        2.82749          29.019         2.71375 
        2.84321         28.5597          2.6767 
        2.85893         28.3351         2.64036 
        2.87462         28.0737         2.60475 
        2.89033         27.8123         2.56976 
        2.90605         27.6327         2.53539 
        2.92176         27.4595         2.50167 
        2.93747         27.0656         2.46857 
        2.95318         26.6959         2.43607 
        2.96891         26.5411         2.40414 
        2.98456         26.1846         2.37292 
        3.00023         25.9613         2.34221 
        3.01596         25.6927         2.31195 
        3.03164         25.5113         2.28231 
        3.04738         25.2986          2.2531 
         3.0631           25.04         2.22442 
        3.07883         24.7912         2.19623 
        3.09456         24.4867         2.16853 
        3.11026         24.2796         2.14136 
        3.12596         24.1044         2.11465 
        3.14163         23.8627         2.08846 
        3.15734          23.636         2.06266 
        3.17308         23.3933         2.03723 
        3.18879         23.2192         2.01229 
        3.20447         22.9593         1.98781 
         3.2202         22.7439         1.96366 
         3.2359         22.4794         1.93996 
        3.25157         22.4617          1.9167 
        3.26729         22.1518         1.89375 
        3.28304         21.9463         1.87114 
        3.29877         21.6605         1.84892 
        3.31446         21.4774         1.82711 
        3.33014         21.2837         1.80567 
        3.34585         21.1369         1.78455 
        3.36158         20.8925         1.76373 
        3.37727         20.6894         1.74331 
        3.39294         20.5541         1.72323 
        3.40867         20.3515         1.70339 
        3.42439         20.1761         1.68388 
        3.44008         19.9868         1.66471 
        3.45578          19.797         1.64582 
        3.47153         19.5705         1.62719 
        3.48724         19.4229         1.60887 
        3.50292         19.2965         1.59089 
        3.51859         19.0791         1.57318 
        3.53431         18.9048         1.55569 
        3.55007         18.7168         1.53842 
        3.56577         18.5237         1.52149 
        3.58146         18.4111         1.50481 
        3.59719         18.2058         1.48835 
        3.61292         18.0587         1.47214 
        3.62859         17.9087         1.45623 
        3.64429         17.7595         1.44052 
        3.66003         17.6199           1.425 
        3.67578         17.4115         1.40971 
        3.69146         17.3214         1.39471 
        3.70712         17.1286         1.37995 
        3.72284         17.0613         1.36535 
        3.73853         16.8356         1.35098 
        3.75422         16.6325         1.33682 
        3.76993         16.5409         1.32285 
        3.78564          16.393         1.30908 
        3.80137         16.2171         1.29549 
        3.81707         16.0726         1.28212 
        3.83279         15.9577         1.26892 
        3.84853         15.7882         1.25589 
        3.86424         15.6867         1.24307 
        3.87992         15.5389         1.23045 
        3.89561         15.3658           1.218 
        3.91134         15.2884          1.2057 
        3.92704         15.1345         1.19358 
        3.94273         15.0223         1.18164 
        3.95845         14.8477         1.16984 
        3.97418         14.7734          1.1582 
        3.98988         14.6035         1.14673 
        4.00554         14.5091         1.13546 
        4.02125         14.3831          1.1243 
        4.03698         14.3077         1.11327 
        4.05268         14.1198         1.10241 
        4.06839         14.0089          1.0917 
         4.0841         13.9075         1.08112 
        4.09983         13.7538         1.07068 
        4.11555         13.6395         1.06037 
        4.13124         13.5442         1.05023 
        4.14693         13.4317         1.04021 
        4.16266         13.3171         1.03031 
        4.17839         13.1897         1.02053 
        4.19408         13.0726         1.01091 
        4.20977         13.0117          1.0014 
        4.22551          12.861        0.991993 
        4.24123         12.7782        0.982717 
        4.25691         12.6679        0.973586 
        4.27259         12.5481        0.964567 
        4.28831         12.4233        0.955644 
        4.30404         12.3452        0.946825 
        4.31974         12.2281        0.938137 
        4.33543         12.1521        0.929563 
        4.35116         12.0581        0.921075 
        4.36688         11.9213        0.912697 
        4.38255         11.8318        0.904454 
        4.39825         11.7378        0.896294 
        4.41398         11.6961        0.888219 
         4.4297         11.5463        0.880252 
        4.44541         11.4477        0.872385 
        4.46111         11.3672        0.864619 
        4.47683         11.2926        0.856942 
        4.49251         11.1937        0.849374 
        4.50819         11.1232        0.841899 
         4.5239         11.0209        0.834504 
        4.53962         10.9387        0.827188 
        4.55535         10.8384        0.819956 
        4.57106         10.7391        0.812821 
        4.58678         10.6446        0.805769 
         4.6025         10.5804          0.7988 
        4.61821         10.4984        0.791913 
        4.63391         10.4039        0.785117 
         4.6496         10.3247        0.778404 
        4.66532         10.2342        0.771758 
        4.68103         10.1725        0.765193 
        4.69673         10.0815         0.75871 
        4.71241          9.9832        0.752309 
        4.72811         9.90687        0.745972 
        4.74384         9.86111        0.739699 
        4.75955          9.7645        0.733507 
        4.77525         9.68051         0.72739 
        4.79096         9.63786        0.721336 
        4.80669         9.55072        0.715347 
         4.8224          9.4878        0.709433 
        4.83809         9.40263        0.703592 
        4.85379         9.33129        0.697813 
         4.8695         9.28405        0.692094 
        4.88521         9.18771        0.686442 
        4.90093         9.11227        0.680852 
        4.91663         9.05804        0.675329 
        4.93234         9.00098        0.669862 
        4.94807         8.90743        0.664452 
        4.96377          8.8361        0.659111 
        4.97943         8.78433         0.65384 
        4.99514         8.72637        0.648613 
        5.01086         8.65876         0.64344 
        5.02654         8.58752        0.638336 
        5.04227         8.53569        0.633272 
          5.058         8.44102        0.628261 
        5.07371         8.40035        0.623314 
        5.08942         8.34651        0.618419 
        5.10513         8.27065        0.613576 
        5.12084         8.20521        0.608783 
        5.13656         8.15953        0.604042 
        5.15225         8.09646        0.599359 
        5.16796         8.04073        0.594719 
        5.18369         7.98738        0.590123 
         5.1994         7.88854        0.585585 
        5.21509         7.86279        0.581098 
        5.23079         7.79985        0.576652 
        5.24649         7.74678        0.572257 
        5.26217         7.68223         0.56791 
        5.27788         7.63207        0.563603 
        5.29359         7.57013        0.559339 
        5.30933         7.51282        0.555114 
        5.32504         7.46169        0.550938 
        5.34073         7.42748        0.546811 
        5.35646         7.34727        0.542717 
        5.37218         7.31519        0.538665 
        5.38789         7.25223         0.53466 
        5.40357         7.20908        0.530701 
        5.41929         7.15322        0.526773 
        5.43502         7.10164        0.522884 
         5.4507         7.06138        0.519044 
        5.46639         7.02681        0.515242 
        5.48212         6.96762        0.511469 
        5.49786         6.92675        0.507729 
        5.51353         6.85682        0.504045 
        5.52921         6.81299        0.500394 
        5.54495         6.77354        0.496768 
        5.56066         6.72441        0.493183 
        5.57637         6.65739        0.489633 
        5.59207         6.63177        0.486121 
        5.60778         6.56312        0.482642 
        5.62346         6.53123        0.479202 
        5.63916         6.48648        0.475792 
        5.65487         6.45059        0.472414 
         5.6706         6.39098        0.469065 
        5.68633         6.34902        0.465746 
        5.70203         6.31552        0.462467 
        5.71773         6.27455         0.45922 
        5.73344         6.22564        0.456002 
        5.74916         6.18919        0.452812 
        5.76486         6.15199        0.449657 
        5.78054         6.10797        0.446537 
        5.79626         6.06149        0.443437 
          5.812         6.02417        0.440364 
         5.8277         5.98422        0.437329 
        5.84339         5.93231        0.434323 
        5.85911         5.90815        0.431339 
        5.87484         5.86114        0.428383 
        5.89053         5.82035        0.425461 
        5.90623         5.78297        0.422565 
        5.92195         5.72792        0.419691 
        5.93767          5.7094        0.416846 
        5.95336         5.66333        0.414031 
        5.96905         5.64137        0.411243 
        5.98476         5.59428        0.408477 
        6.00048         5.56688        0.405736 
        6.01617         5.52717        0.403023 
        6.03185         5.49926        0.400339 
        6.04756         5.45221        0.397672 
        6.06331         5.41563        0.395024 
        6.07903         5.38856        0.392406 
        6.09473         5.34157        0.389813 
        6.11044         5.30867        0.387242 
        6.12616         5.28555        0.384695 
        6.14186         5.24667        0.382173 
        6.15755         5.20809        0.379673 
        6.17326          5.1747        0.377194 
        6.18898         5.13832        0.374736 
        6.20467         5.11478        0.372305 
        6.22036          5.0824        0.369895 
         6.2361         5.04892          0.3675 
         6.2518         5.01603         0.36513 
        6.26748         4.98978        0.362786 
        6.28319         4.94848        0.360456 
        6.29893         4.92313        0.358144 
        6.31463         4.89856        0.355857 
        6.33033         4.85673         0.35359 
        6.34604         4.83977        0.351342 
        6.36177         4.80441        0.349111 
        6.37747         4.77001        0.346903 
