# k  (h/Mpc)    Pcb(k)  (Mpc/h)^3    Pcb_linear(k) (Mpc/h)^3   ShotnoiseSubtracted = true
      0.0200456         8570.93         8725.16 
      0.0350414         6184.25          6342.9 
      0.0492313            4583         4608.63 
      0.0637834         3902.35         3831.11 
      0.0800726         3090.16         3040.66 
       0.096163         2167.87         2206.26 
       0.111083         1721.75         1759.77 
       0.126058         1582.21         1559.52 
       0.142273         1364.71         1321.25 
       0.158546         1126.71         1043.51 
        0.17375         907.971         879.159 
       0.188953         869.332         796.058 
       0.204907         814.547          704.35 
       0.220756         687.633         595.922 
        0.23588         603.219         518.401 
         0.2514         529.348         470.962 
       0.267535         509.078          426.14 
       0.283568          461.12         375.798 
       0.299022          427.26         334.816 
       0.314451         396.476             306 
       0.330372         366.484          280.72 
       0.346141          330.49         254.796 
       0.361624           316.5         231.575 
       0.377134         295.795         213.086 
       0.392932         275.525         197.164 
       0.408854         264.094         181.747 
       0.424564         252.562         167.519 
       0.440253         240.537         155.309 
       0.455999         226.318         144.693 
       0.471626         209.681         134.936 
        0.48727         203.704          125.81 
       0.502856         196.002         117.611 
       0.518488         192.303         110.295 
       0.534347         182.323         103.494 
       0.550082         169.825         97.2231 
       0.565732         165.367         91.4862 
       0.581496         157.797         86.2319 
       0.597222         153.152         81.4131 
       0.612804         146.644         76.9821 
       0.628434         142.884          72.852 
       0.644267         137.978         68.9908 
       0.660051         135.753          65.432 
       0.675724         131.908         62.1459 
       0.691403         127.872         59.0827 
       0.707174         122.606         56.2088 
       0.722871         121.181         53.5374 
        0.73838         118.669         51.0682 
       0.754018         113.675         48.7361 
       0.769845         111.316         46.5243 
        0.78569         108.797         44.4479 
       0.801365         105.689          42.519 
       0.817031          101.96         40.7062 
       0.832809         100.704         38.9881 
       0.848511         97.5211         37.3774 
       0.864097         95.0265         35.8692 
       0.879701          93.713         34.4432 
       0.895507         91.5933         33.0782 
       0.911279         90.1873         31.7904 
        0.92691         88.2125         30.5821 
       0.942635         85.7899         29.4302 
       0.958396           85.44         28.3355 
       0.974128         83.1546         27.2987 
       0.989692         81.1628         26.3243 
        1.00528         79.5295         25.3962 
        1.02113         78.4044         24.4984 
        1.03692         75.8801         23.6476 
        1.05264         75.7452         22.8412 
        1.06832         73.6562         22.0739 
        1.08405         72.7514         21.3399 
        1.09979         72.1993          20.639 
        1.11537         69.5457         19.9766 
        1.13105         69.9077         19.3394 
        1.14679         68.4897         18.7277 
        1.16256          67.453         18.1414 
        1.17828         65.6614         17.5822 
        1.19395         65.1652         17.0485 
         1.2097         63.5288         16.5344 
        1.22537         63.6396          16.044 
          1.241           61.98          15.575 
        1.25666         60.8027         15.1237 
        1.27241         60.2399         14.6883 
        1.28819         59.0563         14.2692 
        1.30392         58.2332         13.8679 
        1.31957         57.6748         13.4837 
        1.33529         56.6822         13.1128 
        1.35108         56.4035         12.7544 
        1.36674         55.5522          12.412 
         1.3824         54.2457         12.0825 
        1.39811         53.9599         11.7639 
        1.41389         53.0845         11.4557 
        1.42964         52.3982          11.159 
        1.44531         51.5567         10.8743 
        1.46101         50.6826          10.599 
        1.47667         50.5996          10.334 
        1.49229         49.8939         10.0788 
        1.50793         49.1591         9.83201 
        1.52367          48.396         9.59189 
        1.53953         48.0232          9.3582 
        1.55526         47.3238         9.13418 
        1.57092         46.9503         8.91843 
        1.58662         46.3091         8.70916 
        1.60235         45.7941         8.50621 
        1.61809         45.0731         8.30964 
        1.63369         44.3853         8.12105 
        1.64941         43.8552         7.93697 
        1.66519         43.2586         7.75795 
        1.68085         42.9496         7.58573 
        1.69652         42.3174          7.4187 
        1.71228         42.0756         7.25577 
        1.72806         41.5572          7.0976 
        1.74368         40.9158         6.94575 
        1.75933         40.5023         6.79805 
        1.77505         40.1654         6.65396 
        1.79081         39.5652          6.5138 
         1.8065          39.164         6.37828 
        1.82218         38.7512         6.24674 
        1.83797         38.2064         6.11803 
        1.85367         37.6723         5.99365 
        1.86928         37.4374         5.87348 
        1.88497         37.0607         5.75596 
        1.90073          36.686         5.64123 
        1.91647         36.2477         5.52973 
        1.93218         35.8858         5.42149 
        1.94787         35.4651         5.31631 
        1.96363         35.1398          5.2135 
        1.97935         34.6818         5.11363 
        1.99499         34.3061         5.01695 
        2.01064         34.0501         4.92262 
         2.0264         33.5237         4.83014 
        2.04216         33.1304         4.74007 
        2.05781          32.753         4.65288 
        2.07353         32.4781         4.56757 
        2.08928         32.4002         4.48422 
        2.10499         31.9439         4.40317 
        2.12065         31.4977         4.32437 
        2.13633         31.3664         4.24744 
        2.15211         30.8006         4.17188 
        2.16785         30.4203         4.09837 
        2.18349         30.2929          4.0271 
        2.19916         30.0219         3.95737 
        2.21489         29.5525         3.88907 
        2.23063         29.3499         3.82233 
         2.2463         29.0521         3.75746 
        2.26194         28.7959         3.69426 
        2.27765         28.5025         3.63219 
        2.29341         28.2159         3.57139 
        2.30914         28.0191          3.5121 
        2.32486         27.5839          3.4542 
        2.34061         27.4447          3.3975 
        2.35635         27.1415         3.34213 
        2.37203         26.9334         3.28819 
        2.38768         26.5668         3.23555 
        2.40339         26.4807         3.18387 
        2.41914         26.1513          3.1332 
        2.43483         25.8214         3.08382 
         2.4505         25.6037         3.03558 
        2.46622         25.3749         2.98821 
        2.48195         25.1231         2.94185 
        2.49759         24.8971         2.89671 
        2.51328         24.5992         2.85241 
        2.52906         24.4722         2.80876 
        2.54479         24.1298         2.76618 
        2.56049         23.8601         2.72457 
        2.57618         23.6169         2.68385 
        2.59189         23.5213          2.6439 
        2.60758         23.3037         2.60483 
        2.62325         22.9804          2.5666 
        2.63898         22.9312           2.529 
        2.65468         22.5858         2.49223 
        2.67044         22.4165         2.45604 
        2.68618          22.127         2.42065 
        2.70184         21.9985         2.38609 
        2.71755         21.8343         2.35213 
        2.73329         21.5772         2.31878 
        2.74897         21.3048         2.28618 
        2.76462         21.2602         2.25428 
        2.78034         21.0462         2.22286 
        2.79607         20.8235           2.192 
        2.81179         20.6557         2.16177 
        2.82749         20.4583         2.13214 
        2.84321         20.3114         2.10303 
        2.85893         20.0532         2.07447 
        2.87462         19.8603          2.0465 
        2.89033         19.7616         2.01901 
        2.90605         19.6195         1.99201 
        2.92176         19.3275         1.96551 
        2.93747         19.2638         1.93951 
        2.95318         18.9984         1.91397 
        2.96891         18.8727         1.88888 
        2.98456         18.6767         1.86435 
        3.00023         18.5033         1.84023 
        3.01596         18.4071         1.81645 
        3.03164         18.2271         1.79316 
        3.04738         18.0127         1.77022 
         3.0631         17.8558         1.74768 
        3.07883         17.7136         1.72553 
        3.09456         17.5699         1.70377 
        3.11026         17.4301         1.68242 
        3.12596         17.2482         1.66144 
        3.14163         17.1487         1.64086 
        3.15734         16.9275         1.62059 
        3.17308         16.8053         1.60061 
        3.18879         16.6516         1.58101 
        3.20447         16.5172         1.56178 
         3.2202         16.3461         1.54281 
         3.2359         16.2201         1.52418 
        3.25157         16.1137         1.50591 
        3.26729         16.0085         1.48788 
        3.28304         15.8102         1.47011 
        3.29877         15.6232         1.45266 
        3.31446         15.5193         1.43552 
        3.33014         15.3965         1.41868 
        3.34585         15.2026         1.40208 
        3.36158         15.1283         1.38572 
        3.37727         14.9618         1.36968 
        3.39294         14.8078          1.3539 
        3.40867         14.7245         1.33832 
        3.42439          14.573         1.32299 
        3.44008         14.4875         1.30793 
        3.45578         14.3473         1.29309 
        3.47153         14.2549         1.27845 
        3.48724         14.1284         1.26406 
        3.50292         13.9712         1.24993 
        3.51859         13.9077         1.23602 
        3.53431         13.7899         1.22227 
        3.55007         13.6626         1.20871 
        3.56577         13.5519          1.1954 
        3.58146          13.451          1.1823 
        3.59719         13.2881         1.16936 
        3.61292         13.2092         1.15663 
        3.62859         13.0714         1.14413 
        3.64429         12.9724         1.13179 
        3.66003         12.8821         1.11959 
        3.67578         12.8096         1.10758 
        3.69146         12.6663         1.09579 
        3.70712         12.5484          1.0842 
        3.72284         12.4686         1.07272 
        3.73853         12.3162         1.06144 
        3.75422         12.2485         1.05031 
        3.76993         12.1721         1.03933 
        3.78564         12.0237         1.02852 
        3.80137         11.9418         1.01784 
        3.81707         11.8446         1.00733 
        3.83279         11.7236        0.996965 
        3.84853         11.6614        0.986728 
        3.86424         11.4965        0.976655 
        3.87992          11.464        0.966737 
        3.89561         11.3686        0.956956 
        3.91134         11.2957         0.94729 
        3.92704         11.1556        0.937769 
        3.94273          11.083        0.928388 
        3.95845         11.0136        0.919119 
        3.97418         10.9293        0.909974 
        3.98988         10.8093        0.900965 
        4.00554         10.7604        0.892104 
        4.02125         10.6065        0.883335 
        4.03698          10.579        0.874672 
        4.05268         10.4695        0.866144 
        4.06839         10.3915        0.857723 
         4.0841         10.3018        0.849417 
        4.09983         10.2224        0.841209 
        4.11555         10.1322        0.833113 
        4.13124          10.049        0.825145 
        4.14693         9.98282        0.817275 
        4.16266         9.90822        0.809489 
        4.17839         9.81042         0.80181 
        4.19408         9.75051        0.794247 
        4.20977         9.65696        0.786779 
        4.22551         9.60838        0.779388 
        4.24123         9.53072        0.772101 
        4.25691         9.45317        0.764926 
        4.27259         9.34806         0.75784 
        4.28831         9.29737        0.750829 
        4.30404         9.21855        0.743901 
        4.31974         9.16825        0.737075 
        4.33543         9.06642        0.730338 
        4.35116         9.00414         0.72367 
        4.36688         8.93356        0.717087 
        4.38255         8.86845         0.71061 
        4.39825         8.79658          0.7042 
        4.41398          8.7333        0.697855 
         4.4297         8.66401        0.691596 
        4.44541         8.60321        0.685414 
        4.46111         8.53851        0.679313 
        4.47683         8.48049        0.673282 
        4.49251          8.3997        0.667336 
        4.50819         8.32941        0.661463 
         4.5239         8.28813        0.655652 
        4.53962         8.22604        0.649904 
        4.55535         8.14284        0.644222 
        4.57106         8.08206        0.638617 
        4.58678         8.01138        0.633076 
         4.6025         7.94471          0.6276 
        4.61821         7.91005         0.62219 
        4.63391         7.86308         0.61685 
         4.6496         7.79146        0.611575 
        4.66532         7.72691        0.606354 
        4.68103         7.65781        0.601196 
        4.69673         7.61289        0.596103 
        4.71241         7.55851        0.591074 
        4.72811         7.48728        0.586094 
        4.74384         7.44726        0.581166 
        4.75955         7.39122        0.576301 
        4.77525         7.32982        0.571495 
        4.79096         7.28421        0.566738 
        4.80669         7.22581        0.562033 
         4.8224         7.17712        0.557386 
        4.83809         7.09933        0.552797 
        4.85379         7.04883        0.548257 
         4.8695         7.00993        0.543764 
        4.88521         6.96588        0.539323 
        4.90093         6.90601        0.534931 
        4.91663         6.84554        0.530592 
        4.93234         6.80798        0.526297 
        4.94807         6.74982        0.522046 
        4.96377         6.71279         0.51785 
        4.97943         6.66637        0.513708 
        4.99514         6.60856        0.509602 
        5.01086         6.55935        0.505537 
        5.02654         6.51274        0.501527 
        5.04227         6.46977        0.497549 
          5.058         6.43782        0.493611 
        5.07371         6.39167        0.489724 
        5.08942         6.33491        0.485879 
        5.10513         6.28906        0.482074 
        5.12084         6.23886        0.478308 
        5.13656         6.19896        0.474583 
        5.15225         6.16259        0.470904 
        5.16796         6.12056        0.467258 
        5.18369          6.0727        0.463647 
         5.1994         6.02925        0.460082 
        5.21509         5.98206        0.456556 
        5.23079         5.94457        0.453064 
        5.24649         5.91437         0.44961 
        5.26217         5.86795        0.446195 
        5.27788         5.82095        0.442811 
        5.29359         5.78128        0.439461 
        5.30933         5.75003        0.436141 
        5.32504         5.70819        0.432861 
        5.34073         5.66234        0.429618 
        5.35646         5.62344        0.426402 
        5.37218         5.57927        0.423218 
        5.38789         5.56107        0.420071 
        5.40357         5.51088        0.416961 
        5.41929         5.47985        0.413875 
        5.43502         5.43594        0.410819 
         5.4507         5.40156        0.407802 
        5.46639         5.35295        0.404815 
        5.48212         5.31079         0.40185 
        5.49786         5.30126        0.398912 
        5.51353         5.24623        0.396018 
        5.52921         5.22153        0.393149 
        5.54495          5.1814        0.390301 
        5.56066         5.14787        0.387483 
        5.57637         5.11541        0.384694 
        5.59207         5.07365        0.381935 
        5.60778         5.04479        0.379202 
        5.62346         5.01429        0.376499 
        5.63916         4.97975         0.37382 
        5.65487         4.93636        0.371166 
         5.6706         4.91924        0.368534 
        5.68633         4.87951        0.365927 
        5.70203         4.84568        0.363351 
        5.71773         4.82107        0.360799 
        5.73344         4.78386        0.358271 
        5.74916         4.76057        0.355765 
        5.76486         4.72291        0.353286 
        5.78054         4.69232        0.350834 
        5.79626         4.65488        0.348399 
          5.812         4.63227        0.345985 
         5.8277         4.59169          0.3436 
        5.84339         4.57941        0.341238 
        5.85911         4.55563        0.338894 
        5.87484         4.51205        0.336572 
        5.89053         4.49086        0.334276 
        5.90623          4.4646        0.332001 
        5.92195         4.42351        0.329743 
        5.93767         4.39737        0.327507 
        5.95336         4.37803        0.325295 
        5.96905         4.34589        0.323105 
        5.98476         4.32013        0.320932 
        6.00048         4.28298        0.318778 
        6.01617         4.26647        0.316647 
        6.03185         4.23482        0.314538 
        6.04756         4.21123        0.312443 
        6.06331         4.18527        0.310362 
        6.07903         4.15848        0.308305 
        6.09473         4.12724        0.306268 
        6.11044         4.10185        0.304248 
        6.12616          4.0914        0.302247 
        6.14186         4.05572        0.300265 
        6.15755         4.03469        0.298301 
        6.17326         4.01352        0.296354 
        6.18898         3.98476        0.294423 
        6.20467         3.96025        0.292512 
        6.22036         3.94047        0.290619 
         6.2361         3.91056        0.288737 
         6.2518         3.89563        0.286875 
        6.26748         3.86727        0.285033 
        6.28319          3.8427        0.283202 
        6.29893         3.81757        0.281386 
        6.31463         3.79928        0.279589 
        6.33033         3.76904        0.277809 
        6.34604         3.74839        0.276042 
        6.36177         3.72475        0.274289 
        6.37747         3.70875        0.272555 
