# k  (h/Mpc)    Pcb(k)  (Mpc/h)^3    Pcb_linear(k) (Mpc/h)^3   ShotnoiseSubtracted = true
      0.0200456         4327.83         4385.17 
      0.0350414          3249.2         3187.87 
      0.0492313         2315.13         2316.25 
      0.0637834         1886.04         1925.47 
      0.0800726         1490.68          1528.2 
       0.096163         1137.07         1108.84 
       0.111083         918.137         884.442 
       0.126058          778.77         783.795 
       0.142273         662.104         664.047 
       0.158546         538.224         524.458 
        0.17375          463.53         441.855 
       0.188953         420.239          400.09 
       0.204907         357.991         353.998 
       0.220756         317.225         299.504 
        0.23588         278.598         260.542 
         0.2514         250.957           236.7 
       0.267535          236.26         214.173 
       0.283568         206.526         188.872 
       0.299022         191.649         168.275 
       0.314451         183.539         153.792 
       0.330372          161.47         141.087 
       0.346141          148.54         128.058 
       0.361624         138.326         116.387 
       0.377134         126.378         107.094 
       0.392932         122.818         99.0924 
       0.408854         114.214          91.344 
       0.424564         108.837         84.1931 
       0.440253         98.9779         78.0567 
       0.455999         91.3881          72.721 
       0.471626         87.5554         67.8174 
        0.48727         84.9799         63.2305 
       0.502856          78.416         59.1097 
       0.518488         75.2139          55.433 
       0.534347         70.9472         52.0149 
       0.550082         68.5716         48.8632 
       0.565732          66.386         45.9799 
       0.581496         61.6094         43.3392 
       0.597222         59.2178         40.9173 
       0.612804         57.0404         38.6903 
       0.628434         55.8325         36.6146 
       0.644267         52.7914          34.674 
       0.660051          50.653         32.8854 
       0.675724         48.8144         31.2338 
       0.691403         47.9871         29.6943 
       0.707174         46.2769         28.2499 
       0.722871         44.8471         26.9073 
        0.73838         42.8383         25.6663 
       0.754018         40.6424         24.4942 
       0.769845         40.0482         23.3826 
        0.78569         38.6093          22.339 
       0.801365          37.534         21.3695 
       0.817031         36.0785         20.4585 
       0.832809         35.4335          19.595 
       0.848511         34.3031         18.7855 
       0.864097         33.4777         18.0275 
       0.879701         32.8643         17.3107 
       0.895507         31.6435         16.6247 
       0.911279         30.6838         15.9775 
        0.92691         30.1239         15.3702 
       0.942635         29.4812         14.7913 
       0.958396          28.853         14.2411 
       0.974128         28.0624           13.72 
       0.989692         26.9956         13.2303 
        1.00528         26.7566         12.7638 
        1.02113         26.0122         12.3126 
        1.03692         25.5477          11.885 
        1.05264         25.0137         11.4797 
        1.06832         24.5564         11.0941 
        1.08405         23.8522         10.7252 
        1.09979         23.5474         10.3729 
        1.11537         22.8203           10.04 
        1.13105         22.4716         9.71979 
        1.14679         21.9165         9.41236 
        1.16256         21.6011         9.11767 
        1.17828         21.2602         8.83662 
        1.19395         20.8803          8.5684 
         1.2097         20.4279            8.31 
        1.22537         20.0663         8.06353 
          1.241         19.6713         7.82784 
        1.25666          19.423         7.60102 
        1.27241          19.095         7.38215 
        1.28819         18.3749         7.17156 
        1.30392         18.5812         6.96983 
        1.31957         18.0853         6.77677 
        1.33529          17.757         6.59035 
        1.35108         17.5762         6.41022 
        1.36674          17.233         6.23814 
         1.3824         16.9189         6.07254 
        1.39811         16.6036         5.91243 
        1.41389          16.411         5.75749 
        1.42964         16.2053         5.60838 
        1.44531         15.9524          5.4653 
        1.46101         15.7337         5.32692 
        1.47667         15.4922         5.19375 
        1.49229         15.1516         5.06551 
        1.50793         15.0337         4.94146 
        1.52367         14.8526         4.82078 
        1.53953         14.6192         4.70332 
        1.55526         14.3477         4.59073 
        1.57092         14.3201          4.4823 
        1.58662         14.0898         4.37712 
        1.60235         13.8671         4.27513 
        1.61809         13.7115         4.17633 
        1.63369         13.4847         4.08155 
        1.64941         13.3412         3.98903 
        1.66519         13.1543         3.89906 
        1.68085          12.903          3.8125 
        1.69652         12.9256         3.72856 
        1.71228         12.6736         3.64667 
        1.72806         12.4887         3.56718 
        1.74368          12.372         3.49086 
        1.75933         12.2589         3.41662 
        1.77505         12.0768          3.3442 
        1.79081         11.9439         3.27376 
         1.8065         11.8636         3.20565 
        1.82218         11.7457         3.13954 
        1.83797         11.6016         3.07485 
        1.85367         11.4869         3.01234 
        1.86928         11.3348         2.95195 
        1.88497         11.2256         2.89288 
        1.90073         11.0593         2.83522 
        1.91647         10.8163         2.77918 
        1.93218         10.8286         2.72478 
        1.94787         10.6303         2.67192 
        1.96363         10.5804         2.62025 
        1.97935         10.4801         2.57005 
        1.99499         10.3449         2.52146 
        2.01064         10.2382         2.47406 
         2.0264         10.0935         2.42757 
        2.04216         10.1244         2.38231 
        2.05781         9.99128         2.33849 
        2.07353         9.86148         2.29561 
        2.08928         9.72668         2.25372 
        2.10499         9.63115         2.21298 
        2.12065         9.58123         2.17338 
        2.13633         9.45249         2.13471 
        2.15211         9.37783         2.09674 
        2.16785         9.24078          2.0598 
        2.18349         9.18905         2.02397 
        2.19916         9.09139         1.98893 
        2.21489         9.02322          1.9546 
        2.23063          8.9732         1.92106 
         2.2463         8.81365         1.88846 
        2.26194         8.74617         1.85669 
        2.27765          8.6587          1.8255 
        2.29341         8.53869         1.79494 
        2.30914          8.5403         1.76514 
        2.32486         8.43597         1.73604 
        2.34061         8.38405         1.70755 
        2.35635         8.28297         1.67972 
        2.37203         8.19342         1.65261 
        2.38768         8.11754         1.62615 
        2.40339          8.0718         1.60018 
        2.41914         7.99032         1.57471 
        2.43483         7.95964         1.54989 
         2.4505          7.8718         1.52565 
        2.46622         7.76958         1.50184 
        2.48195         7.77001         1.47854 
        2.49759         7.62216         1.45586 
        2.51328         7.60331         1.43359 
        2.52906         7.51695         1.41165 
        2.54479         7.44829         1.39025 
        2.56049         7.38729         1.36934 
        2.57618          7.3476         1.34887 
        2.59189         7.34645          1.3288 
        2.60758         7.22317         1.30916 
        2.62325         7.15156         1.28994 
        2.63898         7.16055         1.27105 
        2.65468         7.05201         1.25257 
        2.67044         7.00673         1.23438 
        2.68618         6.92556         1.21659 
        2.70184         6.91411         1.19922 
        2.71755         6.82938         1.18215 
        2.73329         6.75041         1.16539 
        2.74897         6.72293         1.14901 
        2.76462         6.69092         1.13298 
        2.78034         6.62459         1.11718 
        2.79607         6.58709         1.10168 
        2.81179         6.51895         1.08648 
        2.82749         6.45623         1.07159 
        2.84321         6.42205         1.05696 
        2.85893         6.38032         1.04261 
        2.87462         6.33872         1.02855 
        2.89033         6.27042         1.01473 
        2.90605         6.23967         1.00116 
        2.92176         6.17248        0.987842 
        2.93747         6.13218        0.974774 
        2.95318         6.07691         0.96194 
        2.96891         6.03246        0.949331 
        2.98456         5.99434        0.937004 
        3.00023          5.9714        0.924877 
        3.01596         5.87981        0.912928 
        3.03164         5.85926        0.901224 
        3.04738         5.82386        0.889691 
         3.0631         5.78479        0.878363 
        3.07883         5.73691        0.867233 
        3.09456         5.66525        0.856297 
        3.11026         5.64994        0.845566 
        3.12596         5.60574        0.835021 
        3.14163         5.57972        0.824679 
        3.15734         5.52749        0.814489 
        3.17308         5.51672        0.804446 
        3.18879         5.45695          0.7946 
        3.20447         5.42005        0.784934 
         3.2202         5.37161        0.775398 
         3.2359         5.33396        0.766037 
        3.25157         5.30766        0.756853 
        3.26729         5.27346        0.747792 
        3.28304         5.23168        0.738862 
        3.29877         5.20472        0.730089 
        3.31446         5.18163        0.721478 
        3.33014         5.11848        0.713013 
        3.34585         5.09545        0.704671 
        3.36158          5.0536         0.69645 
        3.37727         5.02281        0.688385 
        3.39294         4.99117        0.680456 
        3.40867          4.9641        0.672623 
        3.42439         4.90744        0.664918 
        3.44008         4.88548        0.657349 
        3.45578         4.85133        0.649891 
        3.47153          4.8129        0.642533 
        3.48724         4.78713        0.635302 
        3.50292         4.75301        0.628199 
        3.51859          4.7213        0.621207 
        3.53431         4.69449        0.614301 
        3.55007         4.66672        0.607483 
        3.56577           4.614        0.600794 
        3.58146         4.59645         0.59421 
        3.59719         4.57296        0.587709 
        3.61292         4.54368        0.581307 
        3.62859         4.51567        0.575025 
        3.64429         4.48219        0.568824 
        3.66003         4.45991        0.562695 
        3.67578         4.43523        0.556658 
        3.69146         4.39742        0.550733 
        3.70712         4.38485        0.544905 
        3.72284         4.34963         0.53914 
        3.73853         4.31219        0.533468 
        3.75422         4.28166        0.527875 
        3.76993         4.27171        0.522358 
        3.78564         4.23666        0.516922 
        3.80137         4.20352        0.511554 
        3.81707         4.17745        0.506274 
        3.83279         4.15545        0.501064 
        3.84853         4.11568        0.495918 
        3.86424         4.09959        0.490856 
        3.87992         4.07818        0.485871 
        3.89561         4.05045        0.480955 
        3.91134         4.02098        0.476097 
        3.92704         3.98732        0.471312 
        3.94273         3.97457        0.466598 
        3.95845          3.9402        0.461939 
        3.97418         3.92061        0.457343 
        3.98988          3.8974        0.452815 
        4.00554         3.86947        0.448361 
        4.02125         3.83557        0.443955 
        4.03698         3.81648          0.4396 
        4.05268         3.78814        0.435314 
        4.06839         3.76792        0.431082 
         4.0841         3.74016        0.426907 
        4.09983          3.7204        0.422782 
        4.11555         3.69366        0.418713 
        4.13124         3.67185        0.414709 
        4.14693         3.65528        0.410753 
        4.16266         3.62422         0.40684 
        4.17839         3.60193        0.402981 
        4.19408         3.58392         0.39918 
        4.20977         3.56259        0.395426 
        4.22551         3.53098        0.391712 
        4.24123         3.50511        0.388049 
        4.25691         3.48987        0.384443 
        4.27259         3.46554        0.380882 
        4.28831         3.43629        0.377358 
        4.30404         3.43003        0.373876 
        4.31974         3.40006        0.370446 
        4.33543         3.38221         0.36706 
        4.35116         3.36293        0.363708 
        4.36688         3.34253          0.3604 
        4.38255         3.32601        0.357145 
        4.39825         3.30291        0.353923 
        4.41398         3.28366        0.350734 
         4.4297         3.26645        0.347588 
        4.44541         3.24326        0.344482 
        4.46111         3.21337        0.341415 
        4.47683         3.19732        0.338384 
        4.49251         3.18318        0.335395 
        4.50819         3.16125        0.332444 
         4.5239         3.14172        0.329524 
        4.53962         3.11742        0.326635 
        4.55535         3.10589        0.323779 
        4.57106         3.08558        0.320962 
        4.58678         3.06564        0.318177 
         4.6025         3.05536        0.315425 
        4.61821          3.0351        0.312706 
        4.63391         3.00962        0.310022 
         4.6496         2.99483        0.307371 
        4.66532         2.98306        0.304747 
        4.68103         2.95973        0.302154 
        4.69673         2.94775        0.299595 
        4.71241         2.92984        0.297067 
        4.72811         2.90951        0.294564 
        4.74384         2.90118        0.292087 
        4.75955         2.87329        0.289643 
        4.77525         2.85943        0.287227 
        4.79096         2.84529        0.284836 
        4.80669         2.82899        0.282472 
         4.8224         2.81329        0.280136 
        4.83809         2.80387         0.27783 
        4.85379         2.78294        0.275548 
         4.8695         2.76733         0.27329 
        4.88521         2.74574        0.271058 
        4.90093         2.73747         0.26885 
        4.91663         2.72383         0.26667 
        4.93234         2.70751        0.264511 
        4.94807         2.69079        0.262374 
        4.96377         2.67662        0.260265 
        4.97943          2.6673        0.258184 
        4.99514         2.64452         0.25612 
        5.01086         2.63054        0.254077 
        5.02654         2.61615        0.252062 
        5.04227         2.60475        0.250062 
          5.058         2.59463        0.248084 
        5.07371         2.57919         0.24613 
        5.08942         2.55975        0.244197 
        5.10513          2.5496        0.242285 
        5.12084         2.53363        0.240392 
        5.13656         2.52099         0.23852 
        5.15225         2.50375        0.236671 
        5.16796         2.49396        0.234839 
        5.18369         2.47778        0.233024 
         5.1994         2.46541        0.231232 
        5.21509         2.45359         0.22946 
        5.23079         2.44763        0.227705 
        5.24649         2.42953        0.225969 
        5.26217         2.41497        0.224253 
        5.27788         2.40413        0.222552 
        5.29359         2.39557        0.220868 
        5.30933           2.381          0.2192 
        5.32504         2.36913        0.217551 
        5.34073         2.35319        0.215921 
        5.35646         2.34139        0.214305 
        5.37218         2.33289        0.212705 
        5.38789         2.31568        0.211123 
        5.40357         2.30787         0.20956 
        5.41929         2.29769        0.208009 
        5.43502         2.28575        0.206473 
         5.4507         2.27008        0.204957 
        5.46639         2.25677        0.203455 
        5.48212         2.24878        0.201965 
        5.49786         2.23667        0.200489 
        5.51353         2.22696        0.199034 
        5.52921         2.21227        0.197592 
        5.54495         2.20315        0.196161 
        5.56066         2.19313        0.194745 
        5.57637         2.17943        0.193343 
        5.59207         2.17108        0.191956 
        5.60778         2.16573        0.190583 
        5.62346         2.14807        0.189224 
        5.63916         2.13591        0.187878 
        5.65487          2.1249        0.186544 
         5.6706          2.1196        0.185221 
        5.68633         2.10651        0.183911 
        5.70203         2.09755        0.182616 
        5.71773         2.08512        0.181334 
        5.73344         2.07624        0.180063 
        5.74916         2.06605        0.178803 
        5.76486         2.05662        0.177558 
        5.78054         2.04632        0.176325 
        5.79626         2.03678        0.175102 
          5.812         2.02242        0.173888 
         5.8277         2.01519         0.17269 
        5.84339         2.00807        0.171503 
        5.85911         1.99632        0.170324 
        5.87484         1.98724        0.169157 
        5.89053         1.98145        0.168003 
        5.90623         1.97241         0.16686 
        5.92195         1.95683        0.165725 
        5.93767         1.95436        0.164601 
        5.95336          1.9421         0.16349 
        5.96905         1.93618        0.162389 
        5.98476          1.9226        0.161297 
        6.00048         1.91174        0.160214 
        6.01617         1.90756        0.159143 
        6.03185         1.89789        0.158083 
        6.04756         1.88995         0.15703 
        6.06331         1.88137        0.155985 
        6.07903         1.87118        0.154951 
        6.09473         1.86227        0.153927 
        6.11044         1.85867        0.152912 
        6.12616         1.84777        0.151906 
        6.14186         1.83867         0.15091 
        6.15755          1.8267        0.149923 
        6.17326         1.81923        0.148944 
        6.18898          1.8151        0.147973 
        6.20467         1.80509        0.147013 
        6.22036         1.79788        0.146062 
         6.2361         1.79067        0.145116 
         6.2518         1.78268         0.14418 
        6.26748         1.77609        0.143254 
        6.28319         1.76769        0.142334 
        6.29893         1.75648        0.141422 
        6.31463         1.75052        0.140518 
        6.33033         1.74273        0.139623 
        6.34604         1.73536        0.138736 
        6.36177         1.73061        0.137855 
        6.37747         1.72192        0.136983 
