# k  (h/Mpc)    Pcb(k)  (Mpc/h)^3    Pcb_linear(k) (Mpc/h)^3   ShotnoiseSubtracted = true
      0.0200456         24986.3         25446.6 
      0.0350414         19101.5         18498.8 
      0.0492313         13103.4         13440.9 
      0.0637834         10558.2         11173.3 
      0.0800726          8277.5         8867.95 
       0.096163         6695.03         6434.47 
       0.111083         5452.92          5132.3 
       0.126058          4503.9         4548.26 
       0.142273         3960.21         3853.38 
       0.158546         3247.72         3043.36 
        0.17375         2922.38         2564.03 
       0.188953         2788.08         2321.67 
       0.204907         2400.45          2054.2 
       0.220756         2177.32         1737.98 
        0.23588         1944.99         1511.89 
         0.2514         1769.22         1373.54 
       0.267535         1701.68         1242.82 
       0.283568         1525.84            1096 
       0.299022         1452.75         976.478 
       0.314451         1516.42         892.434 
       0.330372         1356.61         818.708 
       0.346141         1245.99         743.103 
       0.361624         1194.66         675.378 
       0.377134         1150.35         621.455 
       0.392932         1091.09          575.02 
       0.408854         1050.87         530.057 
       0.424564         1029.44         488.561 
       0.440253         961.609         452.953 
       0.455999         919.214          421.99 
       0.471626         931.305         393.536 
        0.48727         881.265         366.918 
       0.502856         855.289         343.006 
       0.518488         823.125          321.67 
       0.534347         796.667         301.836 
       0.550082         760.809         283.547 
       0.565732          746.71         266.815 
       0.581496         730.402         251.491 
       0.597222         719.024         237.438 
       0.612804         699.997         224.515 
       0.628434         672.096          212.47 
       0.644267          654.84         201.209 
       0.660051         647.839          190.83 
       0.675724         636.156         181.246 
       0.691403         613.267         172.312 
       0.707174         598.106          163.93 
       0.722871         594.556          156.14 
        0.73838         577.586         148.938 
       0.754018          567.13         142.137 
       0.769845         558.263         135.686 
        0.78569          545.71         129.631 
       0.801365         529.191         124.005 
       0.817031          523.31         118.718 
       0.832809         514.288         113.707 
       0.848511         505.806          109.01 
       0.864097         496.536         104.611 
       0.879701         497.672         100.452 
       0.895507         478.094         96.4711 
       0.911279         472.974         92.7153 
        0.92691          465.36         89.1914 
       0.942635          458.84          85.832 
       0.958396         447.125         82.6394 
       0.974128         439.603         79.6156 
       0.989692         429.412         76.7737 
        1.00528         423.373         74.0668 
        1.02113         416.141         71.4486 
        1.03692         410.215         68.9672 
        1.05264         405.155         66.6154 
        1.06832         395.449         64.3775 
        1.08405         394.176         62.2368 
        1.09979         384.632         60.1926 
        1.11537         375.994         58.2609 
        1.13105         371.367         56.4027 
        1.14679          364.75         54.6187 
        1.16256         362.557         52.9086 
        1.17828         356.945         51.2777 
        1.19395         348.367         49.7213 
         1.2097         343.814         48.2218 
        1.22537         339.262         46.7916 
          1.241         332.274          45.424 
        1.25666         328.972         44.1077 
        1.27241         325.575         42.8377 
        1.28819         316.828         41.6156 
        1.30392         315.989          40.445 
        1.31957         308.783         39.3247 
        1.33529         304.151         38.2429 
        1.35108         303.325         37.1977 
        1.36674         295.352         36.1991 
         1.3824         290.394         35.2382 
        1.39811         286.737          34.309 
        1.41389         281.965           33.41 
        1.42964         277.686         32.5447 
        1.44531         273.545         31.7144 
        1.46101         268.267         30.9114 
        1.47667         266.454         30.1387 
        1.49229         262.841         29.3945 
        1.50793          257.83         28.6746 
        1.52367         253.718         27.9743 
        1.53953         250.684         27.2928 
        1.55526         246.457         26.6394 
        1.57092         244.397         26.0102 
        1.58662         239.299         25.3999 
        1.60235         235.917          24.808 
        1.61809         234.085         24.2347 
        1.63369          229.59         23.6847 
        1.64941         226.644         23.1478 
        1.66519         223.267         22.6257 
        1.68085         219.314         22.1235 
        1.69652          216.68         21.6363 
        1.71228         213.371         21.1611 
        1.72806         210.851         20.6999 
        1.74368         208.018          20.257 
        1.75933         206.192         19.8262 
        1.77505         202.937          19.406 
        1.79081         200.128         18.9972 
         1.8065         199.026          18.602 
        1.82218         193.644         18.2184 
        1.83797         192.122          17.843 
        1.85367         189.425         17.4802 
        1.86928         186.129         17.1298 
        1.88497         184.253          16.787 
        1.90073         182.672         16.4524 
        1.91647         179.626         16.1272 
        1.93218         176.491         15.8115 
        1.94787         173.997         15.5048 
        1.96363         173.025          15.205 
        1.97935         170.648         14.9137 
        1.99499         168.348         14.6317 
        2.01064         164.799         14.3566 
         2.0264         164.088         14.0869 
        2.04216         161.006         13.8242 
        2.05781         159.083         13.5699 
        2.07353         158.012         13.3211 
        2.08928         156.091          13.078 
        2.10499         153.399         12.8417 
        2.12065         151.866         12.6118 
        2.13633         149.655         12.3875 
        2.15211          147.68         12.1671 
        2.16785          146.27         11.9527 
        2.18349         144.423         11.7449 
        2.19916         142.703         11.5415 
        2.21489         140.294         11.3423 
        2.23063         138.674         11.1477 
         2.2463          136.93         10.9585 
        2.26194         135.736         10.7742 
        2.27765         133.591         10.5931 
        2.29341         132.397         10.4158 
        2.30914         130.436         10.2429 
        2.32486         129.137          10.074 
        2.34061         126.864         9.90867 
        2.35635         125.789         9.74719 
        2.37203         124.337         9.58987 
        2.38768         123.134         9.43634 
        2.40339         121.204         9.28563 
        2.41914         119.414         9.13785 
        2.43483         118.237         8.99382 
         2.4505         117.467         8.85314 
        2.46622          115.18         8.71498 
        2.48195          114.12         8.57976 
        2.49759         112.255         8.44814 
        2.51328         111.215         8.31894 
        2.52906         110.219         8.19162 
        2.54479          108.64         8.06745 
        2.56049         107.335         7.94609 
        2.57618         106.092         7.82733 
        2.59189         105.407         7.71083 
        2.60758         103.784         7.59688 
        2.62325         102.477         7.48537 
        2.63898         101.106         7.37571 
        2.65468         100.248         7.26848 
        2.67044         99.3515         7.16292 
        2.68618         97.8481         7.05971 
        2.70184         96.9614         6.95894 
        2.71755         95.7173         6.85989 
        2.73329         94.3192         6.76261 
        2.74897         93.4715         6.66754 
        2.76462         92.9574         6.57451 
        2.78034         91.8375         6.48287 
        2.79607           90.38         6.39288 
        2.81179          89.542          6.3047 
        2.82749         88.8635         6.21828 
        2.84321         87.4164         6.13339 
        2.85893         86.3295         6.05011 
        2.87462         85.6379         5.96852 
        2.89033         84.6427         5.88836 
        2.90605         83.6529          5.8096 
        2.92176         83.0042         5.73232 
        2.93747         82.0346         5.65649 
        2.95318         80.8794         5.58201 
        2.96891          80.526         5.50884 
        2.98456         79.0345         5.43731 
        3.00023         78.4014         5.36694 
        3.01596         77.9507          5.2976 
        3.03164         76.7243         5.22968 
        3.04738         76.3593         5.16276 
         3.0631         75.3214         5.09703 
        3.07883         74.5312         5.03244 
        3.09456         73.5712         4.96898 
        3.11026         73.1826         4.90671 
        3.12596         72.1199         4.84551 
        3.14163         71.5427         4.78551 
        3.15734         70.5518         4.72637 
        3.17308         70.0912          4.6681 
        3.18879         69.3195         4.61096 
        3.20447         68.7655         4.55487 
         3.2202         67.6534         4.49953 
         3.2359         67.2198         4.44521 
        3.25157         66.5068         4.39192 
        3.26729         65.6419         4.33934 
        3.28304         64.9717         4.28752 
        3.29877         64.4637         4.23661 
        3.31446         63.6409         4.18664 
        3.33014         63.1313         4.13752 
        3.34585         62.3733         4.08911 
        3.36158         61.8981         4.04141 
        3.37727         61.2634         3.99461 
        3.39294         60.5593          3.9486 
        3.40867         60.1796         3.90315 
        3.42439         59.2754         3.85843 
        3.44008         58.7413         3.81451 
        3.45578         58.2807         3.77123 
        3.47153         57.7266         3.72854 
        3.48724         57.0708         3.68657 
        3.50292          56.656         3.64535 
        3.51859         56.0323         3.60479 
        3.53431         55.4338         3.56471 
        3.55007          54.732         3.52514 
        3.56577         54.2306         3.48633 
        3.58146         53.7901         3.44812 
        3.59719         53.3532          3.4104 
        3.61292         52.7563         3.37325 
        3.62859         52.3616         3.33679 
        3.64429         51.8552         3.30081 
        3.66003         51.2545         3.26524 
        3.67578         50.7466         3.23021 
        3.69146         50.3541         3.19583 
        3.70712         49.8156         3.16201 
        3.72284         49.2865         3.12856 
        3.73853         48.9851         3.09564 
        3.75422         48.5564         3.06319 
        3.76993         48.0728         3.03117 
        3.78564         47.5964         2.99963 
        3.80137           47.05         2.96848 
        3.81707          46.639         2.93784 
        3.83279         46.2281         2.90761 
        3.84853         45.8437         2.87775 
        3.86424         45.4056         2.84837 
        3.87992         44.9258         2.81945 
        3.89561         44.6715         2.79092 
        3.91134         44.1064         2.76273 
        3.92704         43.8443         2.73496 
        3.94273          43.414          2.7076 
        3.95845         42.8924         2.68057 
        3.97418         42.5415          2.6539 
        3.98988         42.2097         2.62763 
        4.00554         41.7786         2.60178 
        4.02125         41.3541         2.57621 
        4.03698         41.0779         2.55094 
        4.05268         40.6958         2.52607 
        4.06839         40.3315         2.50151 
         4.0841         40.0035         2.47729 
        4.09983         39.7221         2.45335 
        4.11555          39.383         2.42974 
        4.13124         38.8061          2.4065 
        4.14693         38.5771         2.38355 
        4.16266         38.2768         2.36084 
        4.17839          37.805         2.33844 
        4.19408         37.6034         2.31639 
        4.20977         37.1856         2.29461 
        4.22551         36.8834         2.27305 
        4.24123         36.5572          2.2518 
        4.25691         36.2096         2.23087 
        4.27259         35.9044         2.21021 
        4.28831         35.6687         2.18976 
        4.30404         35.3888         2.16955 
        4.31974         34.9682         2.14965 
        4.33543         34.6188            2.13 
        4.35116         34.4081         2.11055 
        4.36688         34.0553         2.09135 
        4.38255         33.8246         2.07246 
        4.39825         33.6104         2.05377 
        4.41398         33.3571         2.03526 
         4.4297         32.9528         2.01701 
        4.44541         32.7762         1.99898 
        4.46111         32.4815         1.98119 
        4.47683          32.248          1.9636 
        4.49251         31.9256         1.94626 
        4.50819         31.6479         1.92913 
         4.5239         31.3253         1.91218 
        4.53962         31.0921         1.89542 
        4.55535         30.8364         1.87885 
        4.57106          30.542          1.8625 
        4.58678         30.3659         1.84634 
         4.6025         30.0845         1.83037 
        4.61821         29.8805         1.81459 
        4.63391         29.5862         1.79902 
         4.6496         29.4031         1.78363 
        4.66532         29.1337         1.76841 
        4.68103          28.799         1.75336 
        4.69673         28.6645         1.73851 
        4.71241         28.3703         1.72384 
        4.72811         28.1499         1.70932 
        4.74384          27.972         1.69494 
        4.75955         27.8037         1.68076 
        4.77525         27.5365         1.66674 
        4.79096         27.3226         1.65287 
        4.80669         27.0903         1.63915 
         4.8224         26.8859         1.62559 
        4.83809         26.6358         1.61221 
        4.85379         26.4805         1.59897 
         4.8695         26.2161         1.58586 
        4.88521         26.0295         1.57291 
        4.90093         25.8234          1.5601 
        4.91663         25.6504         1.54745 
        4.93234         25.4394         1.53492 
        4.94807          25.202         1.52252 
        4.96377         25.0132         1.51029 
        4.97943         24.8492         1.49821 
        4.99514         24.6892         1.48623 
        5.01086         24.5013         1.47438 
        5.02654         24.2747         1.46268 
        5.04227         24.0391         1.45108 
          5.058         23.8657          1.4396 
        5.07371         23.7187         1.42826 
        5.08942         23.5421         1.41704 
        5.10513         23.3107         1.40595 
        5.12084         23.1234         1.39496 
        5.13656         22.9553          1.3841 
        5.15225         22.8306         1.37337 
        5.16796         22.5925         1.36274 
        5.18369         22.4411         1.35221 
         5.1994         22.2499         1.34181 
        5.21509         22.0799         1.33153 
        5.23079         21.9445         1.32134 
        5.24649         21.7712         1.31127 
        5.26217          21.598         1.30131 
        5.27788         21.4451         1.29144 
        5.29359         21.2667         1.28167 
        5.30933         21.0629         1.27199 
        5.32504         20.9704         1.26242 
        5.34073         20.7977         1.25296 
        5.35646         20.6094         1.24358 
        5.37218         20.4697          1.2343 
        5.38789         20.3541         1.22512 
        5.40357         20.1768         1.21605 
        5.41929         20.0381         1.20705 
        5.43502         19.8582         1.19814 
         5.4507         19.7685         1.18934 
        5.46639         19.5991         1.18062 
        5.48212         19.4836         1.17198 
        5.49786         19.3229         1.16341 
        5.51353         19.1553         1.15497 
        5.52921         19.0176          1.1466 
        5.54495          18.917         1.13829 
        5.56066         18.7109         1.13008 
        5.57637         18.5854         1.12194 
        5.59207         18.4781          1.1139 
        5.60778         18.3635         1.10593 
        5.62346         18.1762         1.09804 
        5.63916         18.0637         1.09023 
        5.65487         17.9356         1.08249 
         5.6706         17.8154         1.07481 
        5.68633         17.6903         1.06721 
        5.70203         17.5496          1.0597 
        5.71773         17.4632         1.05226 
        5.73344         17.3321         1.04488 
        5.74916          17.189         1.03757 
        5.76486         17.0829         1.03034 
        5.78054         16.9227         1.02319 
        5.79626         16.8773         1.01609 
          5.812         16.6943         1.00905 
         5.8277         16.5627          1.0021 
        5.84339         16.4871        0.995207 
        5.85911         16.3552        0.988369 
        5.87484         16.2262        0.981597 
        5.89053         16.1204        0.974902 
        5.90623         16.0267        0.968266 
        5.92195         15.8708        0.961681 
        5.93767         15.7882         0.95516 
        5.95336         15.6874         0.94871 
        5.96905         15.5808        0.942322 
        5.98476         15.4834        0.935984 
        6.00048         15.3642        0.929703 
        6.01617         15.2373        0.923487 
        6.03185         15.1492        0.917336 
        6.04756         15.0518        0.911225 
        6.06331         14.9638        0.905158 
        6.07903         14.8195        0.899158 
        6.09473         14.7404        0.893218 
        6.11044         14.6558        0.887327 
        6.12616         14.5512         0.88149 
        6.14186         14.4422         0.87571 
        6.15755         14.3395        0.869983 
        6.17326         14.2846        0.864303 
        6.18898         14.1643        0.858671 
        6.20467         14.0489        0.853099 
        6.22036         13.9481        0.847576 
         6.2361         13.8525        0.842088 
         6.2518         13.7628        0.836657 
        6.26748         13.6887        0.831286 
        6.28319         13.5968        0.825948 
        6.29893          13.493        0.820651 
        6.31463         13.4109         0.81541 
        6.33033         13.3265        0.810217 
        6.34604         13.2339        0.805065 
        6.36177         13.1642        0.799952 
        6.37747         13.0512        0.794894 
