# k  (h/Mpc)    Pcb(k)  (Mpc/h)^3    Pcb_linear(k) (Mpc/h)^3   ShotnoiseSubtracted = true
      0.0200456         24521.1         25132.6 
      0.0350414         17361.6         18270.6 
      0.0492313         12950.3         13275.1 
      0.0637834         11245.7         11035.4 
      0.0800726         8866.19         8758.55 
       0.096163         6138.62         6355.09 
       0.111083         4953.67         5068.98 
       0.126058         4554.37         4492.15 
       0.142273         3946.12         3805.84 
       0.158546         3490.69         3005.82 
        0.17375         2798.72          2532.4 
       0.188953         2741.41         2293.03 
       0.204907         2574.71         2028.86 
       0.220756         2239.27         1716.54 
        0.23588         2011.01         1493.24 
         0.2514         1755.24         1356.59 
       0.267535         1759.58         1227.49 
       0.283568         1595.88         1082.48 
       0.299022         1514.41         964.431 
       0.314451         1442.74         881.425 
       0.330372         1320.75         808.608 
       0.346141         1281.91         733.935 
       0.361624         1231.83         667.047 
       0.377134         1150.12         613.788 
       0.392932         1100.49         567.926 
       0.408854         1084.85         523.518 
       0.424564         999.429         482.534 
       0.440253         980.417         447.365 
       0.455999         955.548         416.784 
       0.471626         921.266         388.681 
        0.48727         883.736         362.391 
       0.502856         855.837         338.774 
       0.518488         851.159         317.702 
       0.534347          799.02         298.112 
       0.550082         783.722         280.049 
       0.565732         775.862         263.524 
       0.581496         736.523         248.389 
       0.597222         719.804         234.509 
       0.612804         709.621         221.745 
       0.628434         690.353         209.849 
       0.644267          672.54         198.726 
       0.660051         656.048         188.475 
       0.675724         647.808          179.01 
       0.691403         627.717         170.187 
       0.707174          607.23         161.908 
       0.722871          597.87         154.213 
        0.73838         586.736         147.101 
       0.754018         576.224         140.383 
       0.769845         566.566         134.012 
        0.78569         556.111         128.031 
       0.801365         541.481         122.475 
       0.817031         529.741         117.253 
       0.832809         523.781         112.304 
       0.848511         512.571         107.665 
       0.864097         496.209          103.32 
       0.879701         489.457         99.2128 
       0.895507         487.921          95.281 
       0.911279          475.54         91.5715 
        0.92691         468.624         88.0911 
       0.942635         455.937         84.7732 
       0.958396         445.066         81.6199 
       0.974128         439.749         78.6334 
       0.989692         437.246         75.8265 
        1.00528         423.313         73.1531 
        1.02113         421.078         70.5672 
        1.03692         410.537         68.1163 
        1.05264          406.09         65.7936 
        1.06832          395.49         63.5833 
        1.08405         390.673          61.469 
        1.09979         384.828         59.4501 
        1.11537         377.834         57.5421 
        1.13105         372.089         55.7068 
        1.14679         361.569         53.9449 
        1.16256         354.529         52.2559 
        1.17828         354.159         50.6451 
        1.19395         346.126         49.1079 
         1.2097         338.142         47.6269 
        1.22537         332.397         46.2144 
          1.241         327.612         44.8636 
        1.25666         323.935         43.5636 
        1.27241         318.244         42.3092 
        1.28819         312.332         41.1022 
        1.30392         306.435          39.946 
        1.31957         303.527         38.8396 
        1.33529         299.712         37.7711 
        1.35108         292.992         36.7388 
        1.36674         287.793         35.7525 
         1.3824          285.25         34.8034 
        1.39811         280.181         33.8858 
        1.41389         277.054         32.9978 
        1.42964         273.257         32.1432 
        1.44531         269.779         31.3232 
        1.46101         263.691         30.5301 
        1.47667         260.554         29.7668 
        1.49229         257.561         29.0318 
        1.50793         251.084         28.3209 
        1.52367         249.873         27.6292 
        1.53953         245.147         26.9561 
        1.55526         241.717         26.3108 
        1.57092          239.06         25.6893 
        1.58662         236.299         25.0865 
        1.60235         232.095          24.502 
        1.61809         228.886         23.9357 
        1.63369         226.503         23.3925 
        1.64941         222.041         22.8623 
        1.66519         220.053         22.3466 
        1.68085         217.227         21.8505 
        1.69652         213.959         21.3694 
        1.71228         208.485         20.9001 
        1.72806         206.233         20.4445 
        1.74368         203.245         20.0071 
        1.75933         200.696         19.5816 
        1.77505         198.765         19.1666 
        1.79081         196.194         18.7628 
         1.8065         191.954         18.3725 
        1.82218         189.927         17.9936 
        1.83797         188.928         17.6228 
        1.85367          185.59         17.2646 
        1.86928         182.224         16.9184 
        1.88497         180.247         16.5799 
        1.90073          177.72         16.2494 
        1.91647         176.621         15.9283 
        1.93218         173.464         15.6165 
        1.94787         169.753         15.3135 
        1.96363         167.862         15.0174 
        1.97935         166.074         14.7297 
        1.99499         164.189         14.4512 
        2.01064         161.836         14.1795 
         2.0264         160.572         13.9131 
        2.04216         158.179         13.6537 
        2.05781         155.823         13.4025 
        2.07353         154.321         13.1568 
        2.08928         151.376         12.9167 
        2.10499         150.282         12.6832 
        2.12065         147.982         12.4563 
        2.13633         145.636         12.2346 
        2.15211           143.8          12.017 
        2.16785         142.555         11.8053 
        2.18349         140.907            11.6 
        2.19916         138.885         11.3991 
        2.21489         137.561         11.2024 
        2.23063         135.386         11.0101 
         2.2463         133.554         10.8233 
        2.26194         131.483         10.6412 
        2.27765         130.334         10.4624 
        2.29341          128.85         10.2873 
        2.30914         127.456         10.1165 
        2.32486         125.534         9.94974 
        2.34061         124.059         9.78644 
        2.35635         122.437         9.62694 
        2.37203         121.266         9.47156 
        2.38768         119.325         9.31993 
        2.40339         118.133         9.17107 
        2.41914         116.681         9.02512 
        2.43483         115.235         8.88287 
         2.4505         114.039         8.74392 
        2.46622          112.59         8.60747 
        2.48195         110.772         8.47392 
        2.49759         109.723         8.34392 
        2.51328         108.796         8.21631 
        2.52906         107.262         8.09057 
        2.54479         106.045         7.96792 
        2.56049         104.331         7.84806 
        2.57618         103.661         7.73077 
        2.59189          102.74          7.6157 
        2.60758         101.429         7.50316 
        2.62325         99.8339         7.39302 
        2.63898         98.6763         7.28472 
        2.65468         97.5216         7.17881 
        2.67044         96.6848         7.07456 
        2.68618         95.7845         6.97261 
        2.70184         94.8185         6.87309 
        2.71755         93.2701         6.77526 
        2.73329         92.4727         6.67918 
        2.74897         91.4681         6.58529 
        2.76462         90.4844          6.4934 
        2.78034         89.2872         6.40289 
        2.79607         88.1194         6.31401 
        2.81179         87.4718         6.22692 
        2.82749         86.5019         6.14157 
        2.84321         85.3238         6.05773 
        2.85893         84.4958         5.97547 
        2.87462         83.6204         5.89489 
        2.89033         82.5798         5.81571 
        2.90605         81.7162         5.73793 
        2.92176         80.7029          5.6616 
        2.93747         79.9421         5.58671 
        2.95318         79.1232         5.51315 
        2.96891         78.4314         5.44088 
        2.98456         77.4066         5.37023 
        3.00023         76.6034         5.30073 
        3.01596         75.5185         5.23225 
        3.03164         74.9162         5.16517 
        3.04738         73.8743         5.09907 
         3.0631         73.1616         5.03415 
        3.07883         72.4784         4.97035 
        3.09456         71.9853         4.90768 
        3.11026         71.0392         4.84618 
        3.12596         70.1558         4.78574 
        3.14163         69.7235         4.72647 
        3.15734         68.7481         4.66806 
        3.17308         68.0138         4.61051 
        3.18879         67.4596         4.55408 
        3.20447         66.5724         4.49867 
         3.2202         66.0627         4.44402 
         3.2359         65.1951         4.39037 
        3.25157         64.7822         4.33774 
        3.26729         64.0301         4.28581 
        3.28304         63.5357         4.23462 
        3.29877         62.7313         4.18434 
        3.31446         61.9002         4.13499 
        3.33014         61.3195         4.08648 
        3.34585         60.6408         4.03867 
        3.36158         60.2001         3.99155 
        3.37727         59.6899         3.94533 
        3.39294         58.7687         3.89989 
        3.40867         58.3925         3.85499 
        3.42439         57.8828         3.81083 
        3.44008         57.1503         3.76745 
        3.45578         56.6048         3.72471 
        3.47153         56.0231         3.68254 
        3.48724         55.6556         3.64109 
        3.50292         55.1671         3.60038 
        3.51859         54.4449         3.56031 
        3.53431         54.0662         3.52073 
        3.55007         53.5848         3.48165 
        3.56577         53.1593         3.44332 
        3.58146         52.5682         3.40558 
        3.59719           51.97         3.36832 
        3.61292         51.4782         3.33163 
        3.62859         50.8845         3.29563 
        3.64429           50.53         3.26009 
        3.66003         50.1124         3.22496 
        3.67578         49.5441         3.19036 
        3.69146         49.0453         3.15641 
        3.70712         48.5788           3.123 
        3.72284         48.2006         3.08996 
        3.73853         47.6753         3.05745 
        3.75422         47.1401          3.0254 
        3.76993         46.6831         2.99378 
        3.78564         46.3468         2.96262 
        3.80137         45.9133         2.93186 
        3.81707         45.3752          2.9016 
        3.83279         45.0394         2.87174 
        3.84853         44.7092         2.84225 
        3.86424         44.2934         2.81323 
        3.87992         43.7777         2.78466 
        3.89561          43.498         2.75649 
        3.91134         43.1008         2.72865 
        3.92704          42.559         2.70122 
        3.94273         42.1919          2.6742 
        3.95845         41.8813          2.6475 
        3.97418         41.5232         2.62116 
        3.98988          41.059         2.59521 
        4.00554         40.8053         2.56968 
        4.02125         40.3317         2.54443 
        4.03698         39.9662         2.51947 
        4.05268         39.6057         2.49491 
        4.06839         39.1901         2.47065 
         4.0841         38.9298         2.44673 
        4.09983         38.6932         2.42308 
        4.11555         38.2013         2.39976 
        4.13124          37.879         2.37681 
        4.14693         37.6476         2.35414 
        4.16266         37.3012         2.33172 
        4.17839         36.9652          2.3096 
        4.19408         36.4932         2.28781 
        4.20977         36.2867          2.2663 
        4.22551         35.9872         2.24501 
        4.24123         35.6816         2.22402 
        4.25691         35.3306         2.20335 
        4.27259         34.9769         2.18294 
        4.28831          34.791         2.16275 
        4.30404         34.4684         2.14279 
        4.31974         34.1555         2.12313 
        4.33543         33.8191         2.10372 
        4.35116         33.6521         2.08451 
        4.36688         33.2657         2.06555 
        4.38255         32.9461          2.0469 
        4.39825          32.692         2.02843 
        4.41398         32.4433         2.01016 
         4.4297         32.1498         1.99213 
        4.44541         31.9188         1.97432 
        4.46111         31.6202         1.95675 
        4.47683         31.3335         1.93937 
        4.49251         31.0975         1.92225 
        4.50819         30.8487         1.90533 
         4.5239         30.6442         1.88859 
        4.53962         30.3546         1.87203 
        4.55535         30.0745         1.85567 
        4.57106         29.8074         1.83952 
        4.58678         29.5687         1.82356 
         4.6025         29.2874         1.80779 
        4.61821         29.0909          1.7922 
        4.63391         28.8419         1.77682 
         4.6496         28.6307         1.76163 
        4.66532         28.4118         1.74659 
        4.68103         28.1847         1.73173 
        4.69673         27.9182         1.71706 
        4.71241         27.7404         1.70257 
        4.72811         27.5446         1.68823 
        4.74384         27.3134         1.67403 
        4.75955         26.9982         1.66002 
        4.77525         26.8792         1.64618 
        4.79096         26.6281         1.63248 
        4.80669          26.418         1.61892 
         4.8224         26.1737         1.60554 
        4.83809         26.0132         1.59232 
        4.85379         25.8479         1.57924 
         4.8695         25.5732          1.5663 
        4.88521         25.3798         1.55351 
        4.90093         25.1761         1.54086 
        4.91663         24.9472         1.52836 
        4.93234          24.719         1.51599 
        4.94807         24.6178         1.50374 
        4.96377         24.4336         1.49165 
        4.97943         24.2211         1.47973 
        4.99514         23.9981          1.4679 
        5.01086         23.8557         1.45619 
        5.02654         23.6249         1.44464 
        5.04227         23.4448         1.43318 
          5.058         23.3489         1.42184 
        5.07371         23.0775         1.41064 
        5.08942         22.8692         1.39956 
        5.10513         22.7341          1.3886 
        5.12084          22.616         1.37776 
        5.13656         22.4339         1.36703 
        5.15225         22.2246         1.35643 
        5.16796         22.0361         1.34593 
        5.18369         21.8959         1.33553 
         5.1994         21.7055         1.32525 
        5.21509         21.5658          1.3151 
        5.23079         21.3634         1.30504 
        5.24649         21.2679         1.29509 
        5.26217         21.0741         1.28526 
        5.27788         20.9264         1.27551 
        5.29359         20.7829         1.26586 
        5.30933         20.5703         1.25629 
        5.32504         20.4201         1.24685 
        5.34073         20.3294          1.2375 
        5.35646         20.1732         1.22824 
        5.37218          20.005         1.21907 
        5.38789         19.8684         1.21001 
        5.40357         19.7332         1.20105 
        5.41929         19.5185         1.19216 
        5.43502         19.4679         1.18336 
         5.4507          19.292         1.17466 
        5.46639         19.1528         1.16606 
        5.48212         19.0318         1.15752 
        5.49786         18.8627         1.14906 
        5.51353         18.7082         1.14072 
        5.52921          18.569         1.13246 
        5.54495         18.4486         1.12425 
        5.56066         18.3195         1.11614 
        5.57637         18.1756          1.1081 
        5.59207         18.0469         1.10015 
        5.60778         17.8985         1.09228 
        5.62346          17.791          1.0845 
        5.63916         17.6581         1.07678 
        5.65487          17.565         1.06913 
         5.6706          17.411         1.06155 
        5.68633         17.2856         1.05404 
        5.70203         17.1455         1.04662 
        5.71773         17.0537         1.03927 
        5.73344         16.9596         1.03199 
        5.74916         16.7784         1.02477 
        5.76486          16.686         1.01763 
        5.78054         16.6091         1.01057 
        5.79626         16.4623         1.00356 
          5.812         16.3468        0.996602 
         5.8277         16.2204        0.989733 
        5.84339          16.142        0.982929 
        5.85911         16.0327        0.976176 
        5.87484         15.8726        0.969488 
        5.89053         15.7644        0.962875 
        5.90623         15.6535        0.956321 
        5.92195         15.5499        0.949817 
        5.93767         15.4514        0.943376 
        5.95336         15.3532        0.937006 
        5.96905         15.2279        0.930697 
        5.98476         15.1311        0.924438 
        6.00048         15.0228        0.918233 
        6.01617         14.9081        0.912094 
        6.03185         14.8343        0.906019 
        6.04756         14.6785        0.899984 
        6.06331         14.6067        0.893991 
        6.07903         14.5286        0.888066 
        6.09473         14.4105        0.882199 
        6.11044         14.2925         0.87638 
        6.12616         14.1947        0.870615 
        6.14186         14.1075        0.864907 
        6.15755         14.0283        0.859251 
        6.17326         13.9355         0.85364 
        6.18898         13.8317        0.848078 
        6.20467         13.7409        0.842574 
        6.22036         13.6396         0.83712 
         6.2361         13.5372          0.8317 
         6.2518         13.4774        0.826336 
        6.26748         13.3767        0.821031 
        6.28319         13.2615        0.815758 
        6.29893         13.1932        0.810527 
        6.31463          13.091        0.805351 
        6.33033         13.0336        0.800221 
        6.34604         12.9341        0.795133 
        6.36177         12.8454        0.790084 
        6.37747         12.7537        0.785088 
