# k  (h/Mpc)    Pcb(k)  (Mpc/h)^3    Pcb_linear(k) (Mpc/h)^3   ShotnoiseSubtracted = true
      0.0200456         23108.5         23523.4 
      0.0350414         17646.5         17100.7 
      0.0492313         12138.7           12425 
      0.0637834         9783.33         10328.8 
      0.0800726         7674.34         8197.73 
       0.096163         6184.26         5948.17 
       0.111083         5036.97         4744.41 
       0.126058         4161.42         4204.51 
       0.142273         3651.35         3562.15 
       0.158546          2995.7         2813.35 
        0.17375         2684.83         2370.25 
       0.188953         2551.72          2146.2 
       0.204907         2195.81         1898.95 
       0.220756         1987.87         1606.63 
        0.23588         1774.99         1397.63 
         0.2514         1610.23         1269.73 
       0.267535         1551.79         1148.89 
       0.283568         1386.11         1013.17 
       0.299022         1320.85         902.678 
       0.314451         1377.12         824.986 
       0.330372         1222.52         756.832 
       0.346141         1122.45          686.94 
       0.361624         1076.87         624.335 
       0.377134         1034.22         574.487 
       0.392932         984.243         531.561 
       0.408854         945.109         489.997 
       0.424564         925.283         451.637 
       0.440253          860.06          418.72 
       0.455999         822.267         390.097 
       0.471626         835.742         363.793 
        0.48727         789.244         339.187 
       0.502856         760.493         317.082 
       0.518488         735.665         297.359 
       0.534347         708.475         279.023 
       0.550082         675.609         262.117 
       0.565732         665.022          246.65 
       0.581496         650.873         232.484 
       0.597222         638.227         219.493 
       0.612804         622.399         207.547 
       0.628434         596.832         196.412 
       0.644267         580.752         186.002 
       0.660051         574.487         176.407 
       0.675724         562.898         167.548 
       0.691403         545.439         159.289 
       0.707174         529.799         151.541 
       0.722871         524.881         144.339 
        0.73838          512.34         137.682 
       0.754018         500.559         131.394 
       0.769845         493.964         125.431 
        0.78569         483.236         119.833 
       0.801365         467.241         114.633 
       0.817031         463.109         109.745 
       0.832809         455.723         105.113 
       0.848511         448.279         100.771 
       0.864097         438.365         96.7047 
       0.879701         437.897         92.8601 
       0.895507         420.503         89.1801 
       0.911279         415.088          85.708 
        0.92691         409.901         82.4505 
       0.942635         404.798          79.345 
       0.958396          392.14         76.3937 
       0.974128         386.685         73.5984 
       0.989692         376.027         70.9713 
        1.00528         372.218          68.469 
        1.02113         365.862         66.0487 
        1.03692          360.37         63.7548 
        1.05264         355.253         61.5808 
        1.06832         347.329          59.512 
        1.08405         345.909         57.5331 
        1.09979         338.205         55.6434 
        1.11537         329.496         53.8576 
        1.13105         325.803         52.1399 
        1.14679         320.142         50.4907 
        1.16256         318.358         48.9099 
        1.17828         313.089         47.4023 
        1.19395         305.139         45.9635 
         1.2097         303.076         44.5773 
        1.22537         298.195         43.2552 
          1.241         291.657         41.9909 
        1.25666         288.852         40.7742 
        1.27241         285.035         39.6001 
        1.28819         278.041         38.4704 
        1.30392         278.032         37.3883 
        1.31957         270.274         36.3527 
        1.33529          266.69         35.3526 
        1.35108         265.324         34.3864 
        1.36674         258.169         33.4632 
         1.3824          255.45         32.5749 
        1.39811         252.443          31.716 
        1.41389         246.644         30.8849 
        1.42964         243.429         30.0851 
        1.44531         240.756         29.3175 
        1.46101         236.387         28.5752 
        1.47667         233.774         27.8608 
        1.49229         230.526         27.1729 
        1.50793         227.015         26.5075 
        1.52367         223.416         25.8601 
        1.53953         219.744           25.23 
        1.55526         217.308         24.6261 
        1.57092         215.459         24.0444 
        1.58662         210.578         23.4802 
        1.60235         208.115         22.9331 
        1.61809         206.042         22.4031 
        1.63369         202.093         21.8946 
        1.64941         199.199         21.3984 
        1.66519          196.61         20.9157 
        1.68085         193.114         20.4514 
        1.69652         191.215         20.0011 
        1.71228         188.276         19.5618 
        1.72806         186.163         19.1354 
        1.74368         183.784          18.726 
        1.75933         182.472         18.3278 
        1.77505         179.565         17.9393 
        1.79081         176.211         17.5614 
         1.8065         175.166         17.1961 
        1.82218         170.733         16.8415 
        1.83797         169.544         16.4944 
        1.85367         167.037         16.1591 
        1.86928         164.511         15.8351 
        1.88497         162.961         15.5183 
        1.90073         161.362          15.209 
        1.91647         158.255         14.9084 
        1.93218         155.852         14.6165 
        1.94787         153.944          14.333 
        1.96363         153.196         14.0558 
        1.97935         151.311         13.7865 
        1.99499         148.847         13.5259 
        2.01064         145.763         13.2716 
         2.0264         145.344         13.0222 
        2.04216         142.709         12.7794 
        2.05781          140.32         12.5443 
        2.07353         139.567         12.3143 
        2.08928         137.734         12.0896 
        2.10499         136.212         11.8711 
        2.12065         134.652         11.6587 
        2.13633         132.622         11.4512 
        2.15211         130.567         11.2475 
        2.16785         129.273         11.0494 
        2.18349         127.871         10.8572 
        2.19916         125.979         10.6692 
        2.21489         124.347         10.4851 
        2.23063          122.84         10.3051 
         2.2463         121.092         10.1303 
        2.26194         120.123         9.95987 
        2.27765         118.125         9.79253 
        2.29341          117.16          9.6286 
        2.30914         115.776         9.46876 
        2.32486         113.887         9.31265 
        2.34061         112.419          9.1598 
        2.35635         111.622         9.01052 
        2.37203         109.745         8.86508 
        2.38768         108.945         8.72316 
        2.40339         106.851         8.58384 
        2.41914         105.882         8.44723 
        2.43483         105.025         8.31409 
         2.4505         103.703         8.18403 
        2.46622         101.998         8.05632 
        2.48195         101.135         7.93132 
        2.49759         99.5677         7.80965 
        2.51328         98.6104         7.69021 
        2.52906         97.6638         7.57252 
        2.54479         96.2933         7.45773 
        2.56049         94.9859         7.34554 
        2.57618         94.0198         7.23576 
        2.59189         93.3487         7.12806 
        2.60758         91.7493         7.02272 
        2.62325         91.2151         6.91964 
        2.63898          90.043         6.81827 
        2.65468         89.1591         6.71914 
        2.67044         88.1503         6.62156 
        2.68618         86.7527         6.52615 
        2.70184         85.8277           6.433 
        2.71755         85.2262         6.34143 
        2.73329         83.7454         6.25151 
        2.74897         82.9357         6.16362 
        2.76462         82.6063         6.07762 
        2.78034         81.1454         5.99291 
        2.79607         80.0854         5.90972 
        2.81179           79.42          5.8282 
        2.82749         78.7411         5.74832 
        2.84321         77.4876         5.66984 
        2.85893         76.3322         5.59286 
        2.87462         75.9459         5.51743 
        2.89033         74.9996         5.44333 
        2.90605         74.1596         5.37052 
        2.92176         73.5638         5.29908 
        2.93747         72.6724         5.22898 
        2.95318         71.5411         5.16013 
        2.96891         71.1229          5.0925 
        2.98456         70.0542         5.02637 
        3.00023         69.4263         4.96132 
        3.01596         68.8282         4.89722 
        3.03164         67.9754         4.83444 
        3.04738         67.6333         4.77257 
         3.0631         66.4477          4.7118 
        3.07883         65.9674          4.6521 
        3.09456         65.0401         4.59343 
        3.11026         64.6594         4.53587 
        3.12596          63.796          4.4793 
        3.14163         63.1753         4.42383 
        3.15734         62.2578         4.36916 
        3.17308         61.8689         4.31529 
        3.18879         61.2426         4.26247 
        3.20447         60.6954         4.21062 
         3.2202         59.7406         4.15947 
         3.2359         59.1692         4.10925 
        3.25157         58.8353         4.05999 
        3.26729         58.0873         4.01138 
        3.28304         57.2926         3.96348 
        3.29877         56.9415         3.91642 
        3.31446         56.1376         3.87022 
        3.33014         55.7369         3.82481 
        3.34585         55.1745         3.78006 
        3.36158         54.7728         3.73596 
        3.37727         54.2087         3.69271 
        3.39294         53.5457         3.65017 
        3.40867         53.1238         3.60815 
        3.42439         52.5197         3.56682 
        3.44008         51.9684         3.52622 
        3.45578         51.4465         3.48621 
        3.47153         50.9651         3.44674 
        3.48724         50.5225         3.40795 
        3.50292         50.0094         3.36985 
        3.51859         49.5464         3.33234 
        3.53431         48.9529         3.29529 
        3.55007         48.4118         3.25872 
        3.56577         47.9311         3.22284 
        3.58146         47.4517         3.18752 
        3.59719         47.0883         3.15265 
        3.61292         46.4752         3.11831 
        3.62859         46.1555         3.08461 
        3.64429         45.7752         3.05134 
        3.66003         45.3949         3.01846 
        3.67578          44.822         2.98608 
        3.69146         44.4568          2.9543 
        3.70712         44.1215         2.92303 
        3.72284         43.6433         2.89211 
        3.73853         43.2358         2.86168 
        3.75422         42.7966         2.83168 
        3.76993         42.4369         2.80208 
        3.78564         42.0267         2.77292 
        3.80137         41.7024         2.74413 
        3.81707         41.1866          2.7158 
        3.83279         40.8921         2.68786 
        3.84853         40.4633         2.66026 
        3.86424         40.0721          2.6331 
        3.87992         39.6556         2.60636 
        3.89561         39.3952         2.57999 
        3.91134         39.0077         2.55393 
        3.92704         38.6452         2.52826 
        3.94273         38.3312         2.50297 
        3.95845         37.8806         2.47798 
        3.97418         37.6164         2.45332 
        3.98988         37.2735         2.42904 
        4.00554         36.8339         2.40514 
        4.02125         36.6433         2.38151 
        4.03698         36.2176         2.35815 
        4.05268         35.9967         2.33516 
        4.06839         35.6778         2.31245 
         4.0841         35.3867         2.29006 
        4.09983         34.9732         2.26793 
        4.11555         34.7504          2.2461 
        4.13124          34.296         2.22462 
        4.14693         34.0859          2.2034 
        4.16266         33.8205         2.18241 
        4.17839          33.443         2.16171 
        4.19408         33.1895         2.14132 
        4.20977         32.9251         2.12118 
        4.22551         32.6076         2.10126 
        4.24123         32.3672         2.08161 
        4.25691         32.0471         2.06227 
        4.27259         31.7786         2.04316 
        4.28831         31.5472         2.02426 
        4.30404         31.2781         2.00558 
        4.31974         30.9972         1.98718 
        4.33543         30.7114         1.96902 
        4.35116         30.4498         1.95104 
        4.36688         30.1542         1.93329 
        4.38255         29.9885         1.91583 
        4.39825         29.7101         1.89855 
        4.41398         29.4523         1.88144 
         4.4297          29.168         1.86457 
        4.44541          29.028          1.8479 
        4.46111         28.6312         1.83145 
        4.47683         28.5188         1.81519 
        4.49251         28.2852         1.79916 
        4.50819         28.0091         1.78333 
         4.5239         27.7131         1.76766 
        4.53962         27.5346         1.75217 
        4.55535         27.3199         1.73685 
        4.57106         27.0146         1.72173 
        4.58678         26.8539          1.7068 
         4.6025         26.6759         1.69203 
        4.61821         26.4494         1.67745 
        4.63391         26.2121         1.66305 
         4.6496         25.9486         1.64883 
        4.66532         25.7776         1.63475 
        4.68103         25.5663         1.62085 
        4.69673         25.3872         1.60712 
        4.71241          25.176         1.59356 
        4.72811         24.9735         1.58013 
        4.74384         24.8302         1.56684 
        4.75955         24.6429         1.55373 
        4.77525         24.3544         1.54077 
        4.79096         24.1392         1.52795 
        4.80669          23.993         1.51526 
         4.8224         23.8302         1.50273 
        4.83809         23.5735         1.49036 
        4.85379         23.4221         1.47812 
         4.8695         23.2336         1.46601 
        4.88521         23.0245         1.45404 
        4.90093         22.9097         1.44219 
        4.91663          22.707          1.4305 
        4.93234         22.4663         1.41892 
        4.94807         22.2892         1.40745 
        4.96377         22.1498         1.39614 
        4.97943         22.0043         1.38498 
        4.99514         21.8635         1.37391 
        5.01086         21.6541         1.36295 
        5.02654         21.4722         1.35214 
        5.04227         21.3199         1.34141 
          5.058          21.108         1.33079 
        5.07371         20.9519         1.32032 
        5.08942         20.7503         1.30995 
        5.10513         20.6876         1.29969 
        5.12084         20.5132         1.28954 
        5.13656         20.3543         1.27949 
        5.15225         20.2519         1.26958 
        5.16796         20.0421         1.25975 
        5.18369          19.878         1.25001 
         5.1994         19.6827          1.2404 
        5.21509         19.5686         1.23089 
        5.23079         19.4266         1.22148 
        5.24649         19.2875         1.21217 
        5.26217         19.1352         1.20296 
        5.27788         19.0145         1.19383 
        5.29359         18.8369          1.1848 
        5.30933         18.6835         1.17585 
        5.32504         18.5598         1.16701 
        5.34073         18.3985         1.15827 
        5.35646         18.2681         1.14959 
        5.37218         18.1417         1.14101 
        5.38789         18.0139         1.13253 
        5.40357         17.8696         1.12414 
        5.41929         17.7638         1.11582 
        5.43502         17.6208         1.10758 
         5.4507         17.4533         1.09945 
        5.46639         17.3282          1.0914 
        5.48212         17.2049          1.0834 
        5.49786         17.0891         1.07548 
        5.51353         16.9832         1.06768 
        5.52921         16.8431         1.05994 
        5.54495         16.7169         1.05226 
        5.56066         16.6026         1.04467 
        5.57637         16.4637         1.03715 
        5.59207         16.3367         1.02971 
        5.60778         16.2951         1.02234 
        5.62346           16.13         1.01506 
        5.63916         16.0087         1.00783 
        5.65487         15.8652         1.00068 
         5.6706          15.789        0.993582 
        5.68633          15.687        0.986553 
        5.70203         15.5591        0.979607 
        5.71773         15.4603        0.972728 
        5.73344         15.3563        0.965912 
        5.74916         15.2293        0.959155 
        5.76486         15.1158        0.952472 
        5.78054         14.9966        0.945863 
        5.79626         14.9151        0.939298 
          5.812         14.8228        0.932788 
         5.8277         14.6776        0.926359 
        5.84339         14.5803        0.919991 
        5.85911          14.508         0.91367 
        5.87484         14.3697         0.90741 
        5.89053         14.2614        0.901221 
        5.90623          14.187        0.895087 
        5.92195         14.0673        0.888999 
        5.93767         13.9896        0.882971 
        5.95336         13.8886        0.877009 
        5.96905         13.7855        0.871104 
        5.98476         13.7056        0.865245 
        6.00048         13.6001        0.859438 
        6.01617         13.5395        0.853692 
        6.03185         13.4252        0.848005 
        6.04756         13.3451        0.842357 
        6.06331         13.2517        0.836748 
        6.07903         13.1239        0.831202 
        6.09473         13.0467        0.825711 
        6.11044         12.9702        0.820265 
        6.12616         12.8975        0.814868 
        6.14186         12.8185        0.809526 
        6.15755         12.6969        0.804232 
        6.17326         12.6106        0.798981 
        6.18898         12.5212        0.793774 
        6.20467         12.4221        0.788623 
        6.22036         12.3523        0.783518 
         6.2361         12.2549        0.778445 
         6.2518         12.1824        0.773425 
        6.26748         12.1314         0.76846 
        6.28319         12.0282        0.763524 
        6.29893         11.9589        0.758628 
        6.31463         11.8858        0.753783 
        6.33033          11.806        0.748982 
        6.34604         11.7115         0.74422 
        6.36177         11.6392        0.739494 
        6.37747         11.5668        0.734818 
