# k  (h/Mpc)    Pcb(k)  (Mpc/h)^3    Pcb_linear(k) (Mpc/h)^3   ShotnoiseSubtracted = true
      0.0200456         25591.1         26066.3 
      0.0350414         19570.7         18949.3 
      0.0492313         13413.6         13768.2 
      0.0637834         10807.5         11445.4 
      0.0800726         8471.44         9083.94 
       0.096163         6859.83         6591.19 
       0.111083         5587.05          5257.3 
       0.126058         4614.58         4659.04 
       0.142273         4060.09         3947.23 
       0.158546         3329.17         3117.49 
        0.17375         2999.53         2626.48 
       0.188953         2865.16         2378.22 
       0.204907         2467.09         2104.24 
       0.220756         2239.22         1780.31 
        0.23588         2000.56         1548.72 
         0.2514         1821.27         1406.99 
       0.267535         1750.69         1273.09 
       0.283568         1571.69         1122.69 
       0.299022         1495.97         1000.26 
       0.314451         1561.84         914.171 
       0.330372         1400.66         838.649 
       0.346141         1286.85         761.202 
       0.361624         1233.45         691.828 
       0.377134         1188.72         636.591 
       0.392932         1126.25         589.025 
       0.408854         1085.82         542.968 
       0.424564         1063.75         500.461 
       0.440253         995.321         463.985 
       0.455999         951.346         432.268 
       0.471626         962.681         403.121 
        0.48727         911.703         375.855 
       0.502856          886.69          351.36 
       0.518488         852.107         329.505 
       0.534347         825.783         309.187 
       0.550082         789.245         290.453 
       0.565732         773.852         273.314 
       0.581496         756.799         257.617 
       0.597222         745.888         243.221 
       0.612804         725.727         229.983 
       0.628434         697.157         217.645 
       0.644267         679.483         206.109 
       0.660051         672.052         195.478 
       0.675724           660.5          185.66 
       0.691403         635.755         176.509 
       0.707174         620.801         167.923 
       0.722871         617.668         159.943 
        0.73838          599.08         152.566 
       0.754018          589.19         145.599 
       0.769845         579.472         138.991 
        0.78569         566.349         132.788 
       0.801365         549.712         127.025 
       0.817031         543.172         121.609 
       0.832809         533.505         116.477 
       0.848511           524.4         111.665 
       0.864097         515.472         107.159 
       0.879701         517.146         102.899 
       0.895507         497.069         98.8208 
       0.911279         492.051         94.9735 
        0.92691         483.551         91.3637 
       0.942635         476.527         87.9226 
       0.958396         465.331         84.6522 
       0.974128         457.105         81.5548 
       0.989692          447.09         78.6436 
        1.00528         440.339         75.8708 
        1.02113         432.755         73.1888 
        1.03692         426.633         70.6469 
        1.05264         421.609         68.2379 
        1.06832         411.633         65.9455 
        1.08405         410.027         63.7527 
        1.09979         399.986         61.6587 
        1.11537         391.472         59.6799 
        1.13105         386.455         57.7764 
        1.14679         379.713          55.949 
        1.16256         377.253         54.1973 
        1.17828         371.509         52.5267 
        1.19395         362.918         50.9323 
         1.2097         357.417         49.3963 
        1.22537         353.001         47.9313 
          1.241         345.799         46.5303 
        1.25666         342.292          45.182 
        1.27241         339.204          43.881 
        1.28819         330.022         42.6292 
        1.30392         328.655         41.4301 
        1.31957         321.658         40.2825 
        1.33529          316.86         39.1744 
        1.35108         316.288         38.1037 
        1.36674          307.98         37.0808 
         1.3824         302.237         36.0964 
        1.39811         298.604         35.1447 
        1.41389         294.057         34.2237 
        1.42964         289.433         33.3374 
        1.44531          284.85         32.4869 
        1.46101         279.106         31.6643 
        1.47667         277.678         30.8727 
        1.49229         273.992         30.1104 
        1.50793         268.432          29.373 
        1.52367         264.211         28.6557 
        1.53953         261.277         27.9575 
        1.55526         256.482         27.2883 
        1.57092         254.361         26.6437 
        1.58662         249.214         26.0185 
        1.60235          245.56         25.4122 
        1.61809         243.644          24.825 
        1.63369         238.945         24.2616 
        1.64941         236.095         23.7116 
        1.66519         232.515         23.1768 
        1.68085         228.416         22.6623 
        1.69652         225.569         22.1633 
        1.71228         222.096         21.6765 
        1.72806         219.396          21.204 
        1.74368         216.301         20.7504 
        1.75933         214.323         20.3091 
        1.77505         210.899         19.8786 
        1.79081         208.164         19.4599 
         1.8065         206.962          19.055 
        1.82218         201.401         18.6621 
        1.83797         199.835         18.2775 
        1.85367         196.958          17.906 
        1.86928         193.419          17.547 
        1.88497         191.519         17.1959 
        1.90073          189.85         16.8531 
        1.91647         186.792           16.52 
        1.93218         183.585         16.1966 
        1.94787         180.698         15.8824 
        1.96363         179.756         15.5753 
        1.97935         177.056         15.2769 
        1.99499         174.986         14.9881 
        2.01064         171.058         14.7063 
         2.0264          170.34           14.43 
        2.04216          167.21         14.1609 
        2.05781         165.382         13.9004 
        2.07353         164.143         13.6456 
        2.08928         162.314         13.3966 
        2.10499         159.218         13.1544 
        2.12065          157.65          12.919 
        2.13633         155.352         12.6892 
        2.15211         153.398         12.4634 
        2.16785         151.901         12.2438 
        2.18349         149.834         12.0309 
        2.19916         148.456         11.8226 
        2.21489          145.61         11.6186 
        2.23063         143.892         11.4192 
         2.2463         142.169         11.2254 
        2.26194          140.93         11.0366 
        2.27765         138.743         10.8511 
        2.29341         137.374         10.6695 
        2.30914         135.267         10.4924 
        2.32486           134.1         10.3194 
        2.34061         131.655           10.15 
        2.35635         130.351         9.98459 
        2.37203         129.105         9.82344 
        2.38768         127.676         9.66617 
        2.40339         125.888         9.51179 
        2.41914         123.822         9.36042 
        2.43483         122.648         9.21288 
         2.4505         121.787         9.06876 
        2.46622         119.495         8.92724 
        2.48195         118.354         8.78873 
        2.49759         116.487         8.65391 
        2.51328         115.373         8.52156 
        2.52906         114.291         8.39114 
        2.54479         112.651         8.26394 
        2.56049         111.348         8.13962 
        2.57618         110.123         8.01798 
        2.59189         109.283         7.89863 
        2.60758         107.788         7.78191 
        2.62325         106.154         7.66768 
        2.63898         104.724         7.55535 
        2.65468         103.825         7.44551 
        2.67044         102.888         7.33738 
        2.68618         101.458         7.23165 
        2.70184         100.565         7.12843 
        2.71755         99.0511         7.02697 
        2.73329         97.7171         6.92732 
        2.74897         96.7762         6.82994 
        2.76462         96.1428         6.73464 
        2.78034         95.1252         6.64076 
        2.79607         93.6726         6.54858 
        2.81179         92.7637         6.45826 
        2.82749         92.0118         6.36974 
        2.84321         90.4894         6.28278 
        2.85893         89.4645         6.19747 
        2.87462         88.6055         6.11389 
        2.89033          87.688         6.03177 
        2.90605         86.6044          5.9511 
        2.92176         85.8304         5.87194 
        2.93747         84.9151         5.79426 
        2.95318         83.7691         5.71797 
        2.96891         83.3875         5.64302 
        2.98456         81.7992         5.56974 
        3.00023         81.1547         5.49766 
        3.01596          80.709         5.42663 
        3.03164         79.4132         5.35706 
        3.04738         78.9756          5.2885 
         3.0631         78.0548         5.22117 
        3.07883         77.1672         5.15501 
        3.09456         76.1564            5.09 
        3.11026         75.7274         5.02622 
        3.12596         74.6425         4.96353 
        3.14163         74.0111         4.90206 
        3.15734         73.0434         4.84149 
        3.17308         72.4714         4.78179 
        3.18879         71.6861         4.72327 
        3.20447         71.2216         4.66581 
         3.2202         70.0556         4.60912 
         3.2359         69.6011         4.55348 
        3.25157         68.8716         4.49889 
        3.26729         67.9986         4.44503 
        3.28304          67.261         4.39195 
        3.29877         66.7161          4.3398 
        3.31446         65.9697         4.28861 
        3.33014         65.4127         4.23829 
        3.34585         64.6445         4.18871 
        3.36158         64.1106         4.13984 
        3.37727         63.3926          4.0919 
        3.39294         62.7284         4.04477 
        3.40867         62.3195         3.99821 
        3.42439         61.3183         3.95241 
        3.44008         60.8357         3.90741 
        3.45578         60.4072         3.86309 
        3.47153         59.8327         3.81935 
        3.48724         59.0848         3.77636 
        3.50292         58.6891         3.73414 
        3.51859         58.0243         3.69258 
        3.53431         57.3834         3.65153 
        3.55007         56.7151           3.611 
        3.56577         56.1996         3.57125 
        3.58146         55.7304          3.5321 
        3.59719         55.2729         3.49346 
        3.61292         54.6859         3.45541 
        3.62859         54.2133         3.41807 
        3.64429         53.7738          3.3812 
        3.66003         53.0809         3.34477 
        3.67578         52.5697         3.30889 
        3.69146         52.1356         3.27367 
        3.70712         51.5574         3.23903 
        3.72284         50.9899         3.20476 
        3.73853         50.7671         3.17104 
        3.75422         50.2799          3.1378 
        3.76993         49.8074           3.105 
        3.78564         49.2633         3.07269 
        3.80137         48.7074         3.04078 
        3.81707         48.2963         3.00939 
        3.83279         47.9009         2.97842 
        3.84853         47.4505         2.94784 
        3.86424         47.0489         2.91775 
        3.87992         46.5399         2.88812 
        3.89561         46.2499          2.8589 
        3.91134         45.7152         2.83002 
        3.92704         45.3944         2.80158 
        3.94273         44.9738         2.77355 
        3.95845         44.4257         2.74586 
        3.97418          44.056         2.71854 
        3.98988         43.7001         2.69163 
        4.00554         43.2613         2.66515 
        4.02125         42.8064         2.63896 
        4.03698         42.5617         2.61307 
        4.05268         42.1607          2.5876 
        4.06839         41.7688         2.56244 
         4.0841         41.4555         2.53762 
        4.09983         41.1554          2.5131 
        4.11555         40.7941         2.48892 
        4.13124         40.2566         2.46511 
        4.14693         39.9816          2.4416 
        4.16266         39.6947         2.41834 
        4.17839         39.2137          2.3954 
        4.19408         38.9959         2.37281 
        4.20977          38.543         2.35049 
        4.22551          38.215         2.32842 
        4.24123         37.9067         2.30664 
        4.25691         37.5488         2.28521 
        4.27259         37.2372         2.26404 
        4.28831         36.9365          2.2431 
        4.30404         36.6866          2.2224 
        4.31974         36.2257           2.202 
        4.33543         35.8874         2.18188 
        4.35116         35.6191         2.16196 
        4.36688         35.3129         2.14229 
        4.38255         35.0496         2.12294 
        4.39825         34.7984         2.10379 
        4.41398         34.5358         2.08484 
         4.4297         34.1301         2.06614 
        4.44541         33.9663         2.04767 
        4.46111         33.7102         2.02944 
        4.47683          33.429         2.01142 
        4.49251         33.0888         1.99366 
        4.50819         32.7914         1.97611 
         4.5239         32.4557         1.95876 
        4.53962         32.2255         1.94158 
        4.55535         31.9263         1.92461 
        4.57106         31.6896         1.90786 
        4.58678         31.4469         1.89131 
         4.6025         31.1618         1.87495 
        4.61821         30.9909         1.85879 
        4.63391         30.6526         1.84283 
         4.6496         30.4852         1.82708 
        4.66532         30.2207         1.81148 
        4.68103         29.9147         1.79607 
        4.69673         29.6845         1.78085 
        4.71241         29.4308         1.76583 
        4.72811         29.1723         1.75095 
        4.74384         28.9821         1.73623 
        4.75955         28.7929          1.7217 
        4.77525         28.5354         1.70734 
        4.79096         28.3264         1.69313 
        4.80669         28.0942         1.67907 
         4.8224         27.8663         1.66519 
        4.83809         27.6205         1.65148 
        4.85379         27.4358         1.63791 
         4.8695         27.1653         1.62449 
        4.88521         26.9673         1.61122 
        4.90093         26.7509          1.5981 
        4.91663         26.5787         1.58514 
        4.93234         26.3833         1.57231 
        4.94807         26.1615         1.55961 
        4.96377         25.9393         1.54707 
        4.97943         25.7678          1.5347 
        4.99514         25.5956         1.52243 
        5.01086         25.4103         1.51029 
        5.02654         25.1795         1.49831 
        5.04227         24.9515         1.48642 
          5.058         24.8327         1.47466 
        5.07371         24.6219         1.46305 
        5.08942         24.4477         1.45156 
        5.10513         24.1987         1.44019 
        5.12084         24.0013         1.42894 
        5.13656         23.8465         1.41781 
        5.15225         23.6908         1.40682 
        5.16796         23.4506         1.39593 
        5.18369         23.3142         1.38514 
         5.1994         23.1005         1.37449 
        5.21509         22.9193         1.36396 
        5.23079         22.7795         1.35352 
        5.24649          22.584         1.34321 
        5.26217         22.4387           1.333 
        5.27788         22.2702         1.32289 
        5.29359         22.0848         1.31289 
        5.30933         21.8781         1.30297 
        5.32504         21.7677         1.29317 
        5.34073          21.595         1.28348 
        5.35646         21.4249         1.27387 
        5.37218         21.2557         1.26436 
        5.38789         21.1358         1.25496 
        5.40357         20.9457         1.24567 
        5.41929         20.8187         1.23645 
        5.43502         20.6144         1.22732 
         5.4507         20.5433          1.2183 
        5.46639         20.3418         1.20938 
        5.48212         20.2007         1.20052 
        5.49786         20.0614         1.19175 
        5.51353         19.8892          1.1831 
        5.52921         19.7421         1.17453 
        5.54495         19.6471         1.16602 
        5.56066         19.4547          1.1576 
        5.57637          19.297         1.14927 
        5.59207          19.209         1.14103 
        5.60778         19.0561         1.13286 
        5.62346         18.8981         1.12479 
        5.63916         18.7562         1.11678 
        5.65487         18.6372         1.10885 
         5.6706         18.5026         1.10099 
        5.68633          18.364          1.0932 
        5.70203         18.2041         1.08551 
        5.71773         18.1301         1.07788 
        5.73344         17.9965         1.07033 
        5.74916         17.8667         1.06284 
        5.76486         17.7435         1.05544 
        5.78054         17.5893         1.04811 
        5.79626         17.5166         1.04084 
          5.812          17.342         1.03363 
         5.8277         17.2024          1.0265 
        5.84339         17.0988         1.01945 
        5.85911         16.9744         1.01244 
        5.87484         16.8447         1.00551 
        5.89053         16.7306        0.998647 
        5.90623         16.6332        0.991849 
        5.92195         16.4975        0.985103 
        5.93767         16.3796        0.978424 
        5.95336         16.2776        0.971817 
        5.96905         16.1619        0.965274 
        5.98476         16.0696        0.958781 
        6.00048         15.9363        0.952347 
        6.01617         15.8053        0.945979 
        6.03185         15.7187        0.939678 
        6.04756         15.5914        0.933419 
        6.06331         15.5115        0.927204 
        6.07903         15.3837        0.921058 
        6.09473         15.2901        0.914974 
        6.11044         15.1913        0.908939 
        6.12616         15.0902        0.902959 
        6.14186         14.9828        0.897039 
        6.15755         14.8776        0.891173 
        6.17326         14.8176        0.885354 
        6.18898         14.7084        0.879585 
        6.20467         14.5873        0.873877 
        6.22036         14.4741         0.86822 
         6.2361          14.379        0.862598 
         6.2518         14.2777        0.857035 
        6.26748         14.2027        0.851533 
        6.28319         14.1035        0.846065 
        6.29893         13.9999        0.840639 
        6.31463          13.902        0.835271 
        6.33033         13.8168         0.82995 
        6.34604         13.7309        0.824673 
        6.36177         13.6655        0.819436 
        6.37747         13.5477        0.814255 
