# k  (h/Mpc)    Pcb(k)  (Mpc/h)^3    Pcb_linear(k) (Mpc/h)^3   ShotnoiseSubtracted = true
      0.0200456         5616.64          5692.5 
      0.0350414          4225.1         4138.26 
      0.0492313         3000.63         3006.78 
      0.0637834         2440.42         2499.51 
      0.0800726         1927.67          1983.8 
       0.096163         1479.41         1439.42 
       0.111083         1196.51         1148.12 
       0.126058         1010.49         1017.47 
       0.142273         861.336         862.017 
       0.158546         702.302         680.813 
        0.17375         606.625         573.584 
       0.188953         552.203         519.368 
       0.204907          470.01         459.534 
       0.220756         417.937         388.794 
        0.23588         368.033         338.217 
         0.2514         330.765         307.267 
       0.267535         314.078         278.024 
       0.283568          274.05         245.179 
       0.299022         256.345         218.442 
       0.314451         248.074         199.641 
       0.330372         216.496         183.149 
       0.346141         199.746         166.235 
       0.361624         187.344         151.085 
       0.377134         171.444         139.022 
       0.392932         166.849         128.634 
       0.408854         156.416         118.576 
       0.424564         149.152         109.293 
       0.440253         135.249         101.328 
       0.455999         125.976          94.401 
       0.471626         121.699         88.0356 
        0.48727         117.705         82.0811 
       0.502856         107.969         76.7319 
       0.518488         105.059          71.959 
       0.534347         98.8133         67.5219 
       0.550082         95.9912         63.4307 
       0.565732         93.3832         59.6878 
       0.581496          86.199         56.2597 
       0.597222         83.6606         53.1158 
       0.612804         80.7962         50.2249 
       0.628434         78.8553         47.5304 
       0.644267         74.6234         45.0112 
       0.660051         71.9867         42.6894 
       0.675724         69.9985         40.5455 
       0.691403          68.675          38.547 
       0.707174          66.276         36.6719 
       0.722871         64.5592         34.9291 
        0.73838         62.0657         33.3181 
       0.754018         58.7555         31.7966 
       0.769845         58.1455         30.3536 
        0.78569         56.1269         28.9989 
       0.801365          54.617         27.7404 
       0.817031         52.6046         26.5577 
       0.832809         51.7111         25.4368 
       0.848511          50.291         24.3859 
       0.864097         49.2707         23.4019 
       0.879701         48.2468         22.4715 
       0.895507         46.4975          21.581 
       0.911279         45.5303         20.7408 
        0.92691         44.4139         19.9525 
       0.942635         43.5159          19.201 
       0.958396         43.0839         18.4868 
       0.974128         41.9282         17.8104 
       0.989692         40.5931         17.1746 
        1.00528         40.0309         16.5691 
        1.02113         39.0819         15.9834 
        1.03692         38.6424         15.4282 
        1.05264          37.724         14.9022 
        1.06832         36.9826         14.4015 
        1.08405         36.0852         13.9226 
        1.09979         35.8934         13.4653 
        1.11537         34.7753         13.0332 
        1.13105         34.0421         12.6175 
        1.14679          33.459         12.2184 
        1.16256         33.0276         11.8359 
        1.17828         32.5683          11.471 
        1.19395         31.8201         11.1229 
         1.2097         31.4927         10.7874 
        1.22537         30.8367         10.4675 
          1.241         30.2845         10.1615 
        1.25666         29.8509         9.86709 
        1.27241         29.5321         9.58297 
        1.28819         28.4856         9.30959 
        1.30392          28.655         9.04772 
        1.31957         28.1172         8.79711 
        1.33529           27.54         8.55511 
        1.35108         27.2014         8.32128 
        1.36674         26.8885         8.09789 
         1.3824         26.3857         7.88293 
        1.39811         25.8177         7.67508 
        1.41389         25.5723         7.47395 
        1.42964         25.3638         7.28039 
        1.44531         24.8578         7.09465 
        1.46101         24.6213         6.91501 
        1.47667         24.3044         6.74214 
        1.49229         23.7984         6.57567 
        1.50793         23.6278         6.41464 
        1.52367         23.2486         6.25798 
        1.53953         23.0602         6.10551 
        1.55526         22.6375         5.95935 
        1.57092         22.5034          5.8186 
        1.58662         22.1818         5.68206 
        1.60235         21.8376         5.54965 
        1.61809         21.6276         5.42141 
        1.63369          21.406         5.29836 
        1.64941         21.1243         5.17827 
        1.66519         20.7823         5.06147 
        1.68085         20.4145         4.94911 
        1.69652          20.414         4.84014 
        1.71228         20.1086         4.73383 
        1.72806         19.7961         4.63065 
        1.74368         19.6231         4.53157 
        1.75933         19.4181         4.43521 
        1.77505         19.2165          4.3412 
        1.79081         19.0076         4.24976 
         1.8065         18.7831         4.16134 
        1.82218         18.6142         4.07553 
        1.83797         18.4842         3.99155 
        1.85367         18.3357          3.9104 
        1.86928         18.1387           3.832 
        1.88497          17.891         3.75533 
        1.90073         17.6768         3.68047 
        1.91647         17.3747         3.60773 
        1.93218         17.4564         3.53711 
        1.94787         17.1099         3.46848 
        1.96363         17.0293         3.40141 
        1.97935         16.7517         3.33626 
        1.99499         16.5774         3.27317 
        2.01064         16.4374         3.21164 
         2.0264         16.2521          3.1513 
        2.04216         16.2017         3.09254 
        2.05781          15.996         3.03565 
        2.07353          15.846         2.97999 
        2.08928          15.637         2.92561 
        2.10499         15.4711         2.87273 
        2.12065         15.3602         2.82132 
        2.13633         15.2394         2.77113 
        2.15211         15.0443         2.72183 
        2.16785         14.9838         2.67388 
        2.18349         14.7552         2.62738 
        2.19916         14.6381         2.58188 
        2.21489         14.4683         2.53732 
        2.23063         14.4276         2.49378 
         2.2463         14.1995         2.45146 
        2.26194          14.108         2.41022 
        2.27765         13.8919         2.36973 
        2.29341         13.8284         2.33006 
        2.30914         13.6763         2.29138 
        2.32486         13.6205          2.2536 
        2.34061         13.4779         2.21661 
        2.35635         13.3483         2.18049 
        2.37203         13.2105         2.14529 
        2.38768         13.0479         2.11095 
        2.40339         13.0289         2.07723 
        2.41914          12.844         2.04418 
        2.43483         12.7238         2.01196 
         2.4505         12.6044         1.98048 
        2.46622         12.5575         1.94958 
        2.48195         12.4426         1.91933 
        2.49759         12.2553         1.88989 
        2.51328         12.2671         1.86098 
        2.52906         12.0832          1.8325 
        2.54479         11.9747         1.80472 
        2.56049         11.8386         1.77757 
        2.57618         11.8216         1.75101 
        2.59189         11.7561         1.72494 
        2.60758          11.568         1.69945 
        2.62325         11.4907         1.67451 
        2.63898         11.4469         1.64998 
        2.65468         11.2631         1.62599 
        2.67044         11.2446         1.60238 
        2.68618         11.1467         1.57929 
        2.70184         11.0269         1.55674 
        2.71755         10.9511         1.53459 
        2.73329         10.8315         1.51282 
        2.74897         10.7646         1.49156 
        2.76462         10.6922         1.47075 
        2.78034         10.5692         1.45024 
        2.79607         10.5294         1.43011 
        2.81179         10.4061         1.41039 
        2.82749         10.3381         1.39106 
        2.84321         10.2644         1.37207 
        2.85893          10.178         1.35344 
        2.87462         10.1179         1.33518 
        2.89033         10.0009         1.31725 
        2.90605         9.95552         1.29963 
        2.92176         9.85108         1.28234 
        2.93747         9.77383         1.26538 
        2.95318         9.69527         1.24872 
        2.96891         9.64512         1.23235 
        2.98456         9.53641         1.21635 
        3.00023         9.47602         1.20061 
        3.01596         9.37188          1.1851 
        3.03164         9.36674          1.1699 
        3.04738         9.24811         1.15493 
         3.0631         9.14002         1.14023 
        3.07883         9.09678         1.12578 
        3.09456         9.03917         1.11158 
        3.11026         8.98401         1.09765 
        3.12596         8.88254         1.08396 
        3.14163         8.85979         1.07054 
        3.15734         8.75368         1.05731 
        3.17308         8.71403         1.04427 
        3.18879         8.63374         1.03149 
        3.20447          8.5449         1.01894 
         3.2202          8.5005         1.00656 
         3.2359         8.40963        0.994413 
        3.25157         8.40146        0.982491 
        3.26729         8.30767        0.970729 
        3.28304          8.2261        0.959136 
        3.29877         8.19124        0.947748 
        3.31446         8.13322        0.936569 
        3.33014         8.06493        0.925581 
        3.34585         8.03092        0.914752 
        3.36158         7.95894         0.90408 
        3.37727         7.91385        0.893611 
        3.39294         7.83037        0.883318 
        3.40867          7.7954         0.87315 
        3.42439         7.70783        0.863148 
        3.44008         7.65467        0.853322 
        3.45578          7.6066        0.843641 
        3.47153         7.53378        0.834089 
        3.48724         7.48343        0.824702 
        3.50292         7.40681        0.815481 
        3.51859         7.39774        0.806406 
        3.53431         7.33044         0.79744 
        3.55007         7.26455        0.788589 
        3.56577         7.20023        0.779907 
        3.58146          7.1852         0.77136 
        3.59719         7.11465         0.76292 
        3.61292          7.0698         0.75461 
        3.62859         7.02783        0.746455 
        3.64429         6.96811        0.738405 
        3.66003          6.9145        0.730449 
        3.67578         6.86023        0.722613 
        3.69146         6.83468        0.714921 
        3.70712         6.77641        0.707356 
        3.72284         6.70465        0.699871 
        3.73853         6.68711        0.692508 
        3.75422         6.61255        0.685248 
        3.76993         6.58514        0.678086 
        3.78564         6.53463         0.67103 
        3.80137         6.50798        0.664062 
        3.81707         6.41989        0.657207 
        3.83279         6.39844        0.650444 
        3.84853         6.33696        0.643765 
        3.86424         6.29888        0.637193 
        3.87992         6.25604        0.630722 
        3.89561         6.22632        0.624341 
        3.91134         6.15564        0.618035 
        3.92704         6.12745        0.611823 
        3.94273         6.09162        0.605703 
        3.95845         6.05799        0.599655 
        3.97418         5.99963        0.593689 
        3.98988         5.96445        0.587811 
        4.00554         5.92182         0.58203 
        4.02125         5.87076        0.576309 
        4.03698         5.84019        0.570657 
        4.05268         5.77856        0.565093 
        4.06839          5.7368        0.559599 
         4.0841         5.70808         0.55418 
        4.09983         5.66507        0.548825 
        4.11555         5.62048        0.543543 
        4.13124         5.57444        0.538344 
        4.14693         5.54966         0.53321 
        4.16266         5.51457         0.52813 
        4.17839         5.48455         0.52312 
        4.19408         5.43393        0.518186 
        4.20977         5.40425        0.513313 
        4.22551         5.36875        0.508492 
        4.24123          5.3157        0.503737 
        4.25691         5.28448        0.499056 
        4.27259         5.24096        0.494433 
        4.28831         5.19975        0.489859 
        4.30404         5.16607        0.485339 
        4.31974         5.13373        0.480885 
        4.33543         5.09027         0.47649 
        4.35116         5.06321        0.472139 
        4.36688         5.02934        0.467844 
        4.38255         5.00304        0.463619 
        4.39825          4.9621        0.459437 
        4.41398         4.93035        0.455297 
         4.4297         4.91591        0.451214 
        4.44541         4.86065        0.447181 
        4.46111         4.83278          0.4432 
        4.47683          4.8051        0.439265 
        4.49251         4.77842        0.435386 
        4.50819         4.74424        0.431554 
         4.5239          4.7137        0.427763 
        4.53962         4.67405        0.424013 
        4.55535         4.65089        0.420306 
        4.57106         4.62464        0.416649 
        4.58678         4.58132        0.413034 
         4.6025         4.56229        0.409461 
        4.61821           4.518        0.405931 
        4.63391         4.48602        0.402448 
         4.6496         4.45872        0.399006 
        4.66532         4.43312          0.3956 
        4.68103         4.40138        0.392235 
        4.69673          4.3827        0.388912 
        4.71241         4.35925        0.385631 
        4.72811         4.32306        0.382382 
        4.74384         4.29878        0.379166 
        4.75955         4.26263        0.375993 
        4.77525         4.23342        0.372857 
        4.79096         4.21682        0.369754 
        4.80669         4.19398        0.366684 
         4.8224         4.15252        0.363652 
        4.83809         4.13565        0.360658 
        4.85379         4.09508        0.357696 
         4.8695         4.07723        0.354765 
        4.88521         4.05523        0.351867 
        4.90093         4.02992        0.349002 
        4.91663         4.01131        0.346171 
        4.93234         3.97425        0.343368 
        4.94807         3.95502        0.340595 
        4.96377         3.92993        0.337857 
        4.97943         3.90424        0.335156 
        4.99514         3.88547        0.332476 
        5.01086         3.85968        0.329824 
        5.02654         3.83302        0.327208 
        5.04227         3.80905        0.324612 
          5.058         3.78552        0.322044 
        5.07371          3.7629        0.319508 
        5.08942         3.73378        0.316999 
        5.10513         3.70951        0.314517 
        5.12084         3.69446         0.31206 
        5.13656         3.67127        0.309629 
        5.15225          3.6544        0.307229 
        5.16796         3.63137         0.30485 
        5.18369         3.59651        0.302495 
         5.1994         3.58191        0.300168 
        5.21509         3.55379        0.297868 
        5.23079         3.53748        0.295589 
        5.24649         3.51271        0.293336 
        5.26217          3.4878        0.291108 
        5.27788         3.47314          0.2889 
        5.29359          3.4561        0.286715 
        5.30933         3.43544        0.284549 
        5.32504         3.41011        0.282409 
        5.34073         3.39556        0.280293 
        5.35646         3.36936        0.278195 
        5.37218         3.35726        0.276117 
        5.38789         3.33624        0.274065 
        5.40357         3.31343        0.272035 
        5.41929         3.28831        0.270022 
        5.43502         3.27242        0.268028 
         5.4507         3.25473         0.26606 
        5.46639         3.22851        0.264111 
        5.48212         3.21216        0.262177 
        5.49786         3.19428         0.26026 
        5.51353         3.17682        0.258371 
        5.52921         3.15306          0.2565 
        5.54495         3.14017        0.254641 
        5.56066         3.12802        0.252803 
        5.57637         3.10481        0.250984 
        5.59207         3.08624        0.249183 
        5.60778         3.06927          0.2474 
        5.62346         3.05382        0.245637 
        5.63916         3.02611        0.243889 
        5.65487         3.01512        0.242157 
         5.6706         2.99455         0.24044 
        5.68633         2.98688         0.23874 
        5.70203         2.97045        0.237059 
        5.71773          2.9394        0.235394 
        5.73344         2.92932        0.233745 
        5.74916         2.91652        0.232109 
        5.76486         2.89834        0.230492 
        5.78054         2.88265        0.228893 
        5.79626         2.86859        0.227304 
          5.812         2.84515        0.225729 
         5.8277         2.83456        0.224173 
        5.84339         2.81689        0.222632 
        5.85911         2.80101        0.221102 
        5.87484         2.78282        0.219587 
        5.89053          2.7687         0.21809 
        5.90623         2.75495        0.216605 
        5.92195         2.74347        0.215132 
        5.93767         2.72534        0.213673 
        5.95336         2.70993         0.21223 
        5.96905         2.69651        0.210802 
        5.98476          2.6776        0.209384 
        6.00048         2.66986        0.207978 
        6.01617         2.64797        0.206588 
        6.03185         2.63547        0.205212 
        6.04756         2.61909        0.203845 
        6.06331         2.60647        0.202488 
        6.07903         2.59629        0.201146 
        6.09473         2.57715        0.199817 
        6.11044         2.56512        0.198499 
        6.12616         2.55555        0.197193 
        6.14186         2.53851          0.1959 
        6.15755         2.52815        0.194619 
        6.17326         2.51354        0.193348 
        6.18898         2.49472        0.192088 
        6.20467         2.48906        0.190842 
        6.22036         2.47475        0.189606 
         6.2361         2.46056        0.188379 
         6.2518         2.44576        0.187164 
        6.26748         2.43505        0.185962 
        6.28319         2.42167        0.184768 
        6.29893         2.40782        0.183583 
        6.31463         2.39864        0.182411 
        6.33033          2.3906        0.181249 
        6.34604         2.37241        0.180096 
        6.36177         2.36285        0.178953 
        6.37747         2.35002        0.177821 
