# k  (h/Mpc)    Pcb(k)  (Mpc/h)^3    Pcb_linear(k) (Mpc/h)^3   ShotnoiseSubtracted = true
      0.0200456         21805.8         22190.1 
      0.0350414         16638.5         16131.5 
      0.0492313         11467.8         11720.8 
      0.0637834         9244.71          9743.4 
      0.0800726          7254.9          7733.1 
       0.096163          5830.7         5611.03 
       0.111083          4748.8         4475.51 
       0.126058         3924.75         3966.21 
       0.142273         3438.19         3360.25 
       0.158546         2821.64         2653.89 
        0.17375         2521.78          2235.9 
       0.188953         2390.36         2024.56 
       0.204907          2055.9         1791.32 
       0.220756         1858.84         1515.57 
        0.23588          1659.3         1318.41 
         0.2514         1502.35         1197.76 
       0.267535         1449.87         1083.77 
       0.283568         1291.53         955.741 
       0.299022         1231.41         851.515 
       0.314451         1282.11         778.227 
       0.330372         1132.13         713.936 
       0.346141          1039.7         648.006 
       0.361624         997.655         588.949 
       0.377134         956.342         541.926 
       0.392932         912.186         501.433 
       0.408854         874.255         462.225 
       0.424564         855.263         426.039 
       0.440253         792.447         394.987 
       0.455999         757.686         367.987 
       0.471626         771.223         343.174 
        0.48727         727.695         319.963 
       0.502856         697.276         299.111 
       0.518488         677.424         280.505 
       0.534347         649.572         263.209 
       0.550082         619.404         247.261 
       0.565732         610.843          232.67 
       0.581496         597.827         219.307 
       0.597222         584.696         207.052 
       0.612804         570.752         195.783 
       0.628434         547.027         185.279 
       0.644267          531.53         175.459 
       0.660051          525.53         166.409 
       0.675724         514.547         158.051 
       0.691403         500.223         150.261 
       0.707174         484.542         142.952 
       0.722871         478.835         136.158 
        0.73838         468.835         129.878 
       0.754018          456.51         123.947 
       0.769845         451.258         118.322 
        0.78569         441.683         113.041 
       0.801365         426.478         108.135 
       0.817031         423.232         103.525 
       0.832809         416.558         99.1558 
       0.848511         409.312         95.0594 
       0.864097         399.463         91.2236 
       0.879701         398.109         87.5969 
       0.895507         382.726         84.1255 
       0.911279         377.139         80.8503 
        0.92691         373.176         77.7773 
       0.942635         368.904         74.8479 
       0.958396          356.49         72.0638 
       0.974128         352.304          69.427 
       0.989692         341.385         66.9487 
        1.00528         339.016         64.5883 
        1.02113         333.246         62.3051 
        1.03692         327.864         60.1413 
        1.05264         322.824         58.0905 
        1.06832         316.734         56.1389 
        1.08405         314.245         54.2722 
        1.09979         307.939         52.4896 
        1.11537         299.873         50.8051 
        1.13105         296.395         49.1847 
        1.14679         291.704          47.629 
        1.16256         289.952         46.1378 
        1.17828         284.985         44.7156 
        1.19395         277.696         43.3583 
         1.2097         276.847         42.0508 
        1.22537         271.899         40.8036 
          1.241         265.647         39.6109 
        1.25666         263.346         38.4631 
        1.27241         259.501         37.3556 
        1.28819         253.807           36.29 
        1.30392         253.561         35.2691 
        1.31957         246.019         34.2922 
        1.33529         242.994         33.3489 
        1.35108          241.71         32.4374 
        1.36674          234.96         31.5666 
         1.3824         233.311         30.7286 
        1.39811         230.924         29.9184 
        1.41389         224.611         29.1344 
        1.42964         222.048         28.3799 
        1.44531          219.99         27.6558 
        1.46101         216.102         26.9556 
        1.47667         213.458         26.2817 
        1.49229         210.396         25.6328 
        1.50793         207.418         25.0051 
        1.52367         204.272         24.3944 
        1.53953         200.369            23.8 
        1.55526         198.807         23.2303 
        1.57092         197.085         22.6816 
        1.58662         192.442         22.1494 
        1.60235         190.452         21.6333 
        1.61809         188.119         21.1333 
        1.63369         184.515         20.6537 
        1.64941         182.092         20.1855 
        1.66519         179.811         19.7302 
        1.68085         176.691         19.2923 
        1.69652         175.063         18.8675 
        1.71228         172.131         18.4531 
        1.72806         170.307         18.0508 
        1.74368         168.088         17.6646 
        1.75933         166.917          17.289 
        1.77505         164.281         16.9225 
        1.79081         160.765         16.5661 
         1.8065         159.551         16.2214 
        1.82218         155.986         15.8869 
        1.83797         155.025         15.5595 
        1.85367         152.691         15.2432 
        1.86928          150.46         14.9376 
        1.88497         149.302         14.6387 
        1.90073          147.61         14.3469 
        1.91647          144.61         14.0634 
        1.93218         142.763         13.7881 
        1.94787         140.887         13.5206 
        1.96363         140.307         13.2591 
        1.97935         138.463         13.0051 
        1.99499         136.249         12.7592 
        2.01064          133.45         12.5194 
         2.0264         132.881         12.2842 
        2.04216         130.785         12.0551 
        2.05781         128.449         11.8333 
        2.07353         127.516         11.6164 
        2.08928         125.846         11.4044 
        2.10499         124.613         11.1983 
        2.12065         123.159         10.9979 
        2.13633         121.409         10.8022 
        2.15211         119.402         10.6101 
        2.16785          118.16         10.4231 
        2.18349         116.748         10.2418 
        2.19916         115.287         10.0645 
        2.21489         113.918          9.8908 
        2.23063         112.201         9.72107 
         2.2463         110.756         9.55609 
        2.26194          109.84         9.39536 
        2.27765         108.179          9.2375 
        2.29341         107.151         9.08286 
        2.30914          106.01         8.93209 
        2.32486         104.078         8.78482 
        2.34061         103.064         8.64064 
        2.35635         102.177         8.49982 
        2.37203         100.339         8.36263 
        2.38768         99.6635         8.22875 
        2.40339           98.04         8.09732 
        2.41914         96.9693         7.96846 
        2.43483         96.3073         7.84286 
         2.4505         94.8377         7.72018 
        2.46622         93.5637          7.5997 
        2.48195          92.827         7.48179 
        2.49759         91.3985         7.36701 
        2.51328         90.6451         7.25434 
        2.52906         89.4535         7.14332 
        2.54479         88.2547         7.03504 
        2.56049         87.0733         6.92921 
        2.57618         86.2053         6.82565 
        2.59189         85.4492         6.72405 
        2.60758         83.9571         6.62468 
        2.62325         83.6558         6.52744 
        2.63898         82.5423         6.43182 
        2.65468          81.581         6.33831 
        2.67044          80.383         6.24627 
        2.68618         79.4362         6.15626 
        2.70184         78.5179         6.06839 
        2.71755         77.9292         5.98201 
        2.73329         76.6305         5.89718 
        2.74897         75.9759         5.81428 
        2.76462         75.4105         5.73315 
        2.78034         73.9703         5.65324 
        2.79607         73.2041         5.57476 
        2.81179         72.6538         5.49787 
        2.82749         71.9004         5.42251 
        2.84321         70.8946         5.34849 
        2.85893         69.9879         5.27586 
        2.87462         69.3946         5.20471 
        2.89033         68.6463         5.13481 
        2.90605         67.9947         5.06613 
        2.92176         67.2455         4.99874 
        2.93747         66.6229         4.93261 
        2.95318         65.4841         4.86767 
        2.96891         65.1013         4.80386 
        2.98456         64.2315         4.74148 
        3.00023         63.5955         4.68012 
        3.01596         63.1398         4.61965 
        3.03164         62.3117         4.56043 
        3.04738         62.0309         4.50207 
         3.0631         60.9181         4.44475 
        3.07883         60.4686         4.38842 
        3.09456          59.682         4.33308 
        3.11026         59.1859         4.27879 
        3.12596         58.5212         4.22542 
        3.14163          57.838         4.17309 
        3.15734         57.1252         4.12153 
        3.17308         56.6999         4.07071 
        3.18879         56.1434         4.02089 
        3.20447         55.7077         3.97197 
         3.2202         54.8899         3.92371 
         3.2359         54.2641         3.87635 
        3.25157         53.9609         3.82988 
        3.26729         53.3206         3.78402 
        3.28304         52.6309         3.73883 
        3.29877         52.2435         3.69444 
        3.31446         51.7336         3.65086 
        3.33014         51.2076         3.60803 
        3.34585         50.6495         3.56582 
        3.36158         50.3192         3.52422 
        3.37727          49.625         3.48341 
        3.39294          49.208         3.44329 
        3.40867         48.7504         3.40365 
        3.42439         48.1694         3.36466 
        3.44008         47.6246         3.32636 
        3.45578         47.2825         3.28862 
        3.47153         46.7681         3.25139 
        3.48724         46.3186         3.21479 
        3.50292         45.9018         3.17885 
        3.51859         45.4108         3.14347 
        3.53431         44.8637         3.10852 
        3.55007          44.461         3.07402 
        3.56577         44.0355         3.04018 
        3.58146          43.548         3.00686 
        3.59719          43.171         2.97396 
        3.61292          42.675         2.94157 
        3.62859         42.4273         2.90978 
        3.64429         42.0647          2.8784 
        3.66003         41.6897         2.84738 
        3.67578         41.2485         2.81684 
        3.69146         40.8365         2.78685 
        3.70712         40.4692         2.75736 
        3.72284         40.1255         2.72819 
        3.73853         39.6953         2.69948 
        3.75422         39.3085         2.67118 
        3.76993          38.971         2.64327 
        3.78564         38.6093         2.61576 
        3.80137         38.3352          2.5886 
        3.81707         37.7874         2.56188 
        3.83279         37.5831         2.53551 
        3.84853         37.1851         2.50948 
        3.86424         36.7517         2.48386 
        3.87992          36.492         2.45863 
        3.89561         36.2007         2.43376 
        3.91134         35.8927         2.40918 
        3.92704         35.5415         2.38496 
        3.94273         35.1908         2.36111 
        3.95845         34.9006         2.33753 
        3.97418         34.5881         2.31427 
        3.98988         34.2043         2.29136 
        4.00554         33.9616         2.26882 
        4.02125         33.7106         2.24653 
        4.03698         33.3278         2.22449 
        4.05268         33.1498          2.2028 
        4.06839         32.7301         2.18139 
         4.0841         32.5498         2.16026 
        4.09983         32.1973         2.13939 
        4.11555         31.9324          2.1188 
        4.13124           31.58         2.09853 
        4.14693         31.3219         2.07852 
        4.16266         31.0689         2.05872 
        4.17839         30.7889         2.03919 
        4.19408         30.5578         2.01995 
        4.20977          30.315         2.00096 
        4.22551          29.969         1.98216 
        4.24123         29.7458         1.96363 
        4.25691         29.4769         1.94538 
        4.27259         29.2822         1.92736 
        4.28831         28.9445         1.90953 
        4.30404         28.7423         1.89191 
        4.31974         28.4665         1.87455 
        4.33543         28.2642         1.85742 
        4.35116         28.0151         1.84046 
        4.36688          27.728         1.82372 
        4.38255         27.5793         1.80725 
        4.39825         27.2625         1.79094 
        4.41398          27.062         1.77481 
         4.4297         26.8579         1.75889 
        4.44541         26.7093         1.74317 
        4.46111         26.3643         1.72765 
        4.47683         26.1702         1.71231 
        4.49251         25.9887         1.69719 
        4.50819         25.7989         1.68225 
         4.5239         25.5048         1.66747 
        4.53962         25.3677         1.65286 
        4.55535         25.1149         1.63841 
        4.57106         24.9113         1.62415 
        4.58678         24.7395         1.61006 
         4.6025         24.5088         1.59613 
        4.61821         24.3551         1.58237 
        4.63391          24.034         1.56879 
         4.6496          23.899         1.55538 
        4.66532         23.7432          1.5421 
        4.68103         23.4905         1.52898 
        4.69673         23.3263         1.51603 
        4.71241         23.1721         1.50324 
        4.72811         22.9553         1.49057 
        4.74384         22.7509         1.47804 
        4.75955         22.6012         1.46567 
        4.77525         22.4145         1.45344 
        4.79096         22.1928         1.44135 
        4.80669         22.0773         1.42938 
         4.8224         21.8609         1.41756 
        4.83809         21.6509         1.40589 
        4.85379         21.4796         1.39434 
         4.8695         21.3578         1.38292 
        4.88521         21.1303         1.37162 
        4.90093         21.0173         1.36045 
        4.91663         20.8197         1.34942 
        4.93234         20.6844         1.33849 
        4.94807         20.5112         1.32768 
        4.96377          20.388         1.31701 
        4.97943         20.1708         1.30648 
        4.99514         20.0425         1.29604 
        5.01086         19.8983          1.2857 
        5.02654          19.749          1.2755 
        5.04227         19.6059         1.26538 
          5.058         19.4086         1.25537 
        5.07371         19.2377         1.24548 
        5.08942         19.0991          1.2357 
        5.10513         19.0086         1.22603 
        5.12084          18.856         1.21645 
        5.13656         18.6687         1.20697 
        5.15225         18.5538         1.19762 
        5.16796         18.3964         1.18835 
        5.18369         18.2502         1.17916 
         5.1994         18.1297         1.17009 
        5.21509         17.9753         1.16113 
        5.23079         17.8713         1.15225 
        5.24649         17.7171         1.14346 
        5.26217          17.616         1.13478 
        5.27788         17.4587         1.12617 
        5.29359         17.3185         1.11765 
        5.30933         17.1752         1.10921 
        5.32504         17.0589         1.10086 
        5.34073         16.9392         1.09262 
        5.35646         16.8185         1.08444 
        5.37218         16.6608         1.07634 
        5.38789         16.5435         1.06834 
        5.40357         16.4235         1.06043 
        5.41929         16.3173         1.05258 
        5.43502         16.1711         1.04481 
         5.4507          16.055         1.03713 
        5.46639         15.9305         1.02954 
        5.48212         15.8419           1.022 
        5.49786         15.7319         1.01453 
        5.51353         15.6447         1.00716 
        5.52921         15.5008        0.999869 
        5.54495         15.3962        0.992624 
        5.56066         15.2601        0.985459 
        5.57637         15.1632        0.978366 
        5.59207         15.0497        0.971349 
        5.60778         14.9505        0.964397 
        5.62346         14.8376        0.957524 
        5.63916         14.7359        0.950711 
        5.65487         14.6201         0.94396 
         5.6706         14.5009        0.937267 
        5.68633         14.4161        0.930637 
        5.70203         14.3127        0.924084 
        5.71773         14.2089        0.917596 
        5.73344         14.1138        0.911166 
        5.74916         14.0097        0.904792 
        5.76486         13.9213        0.898488 
        5.78054         13.8167        0.892253 
        5.79626         13.6934         0.88606 
          5.812          13.633        0.879919 
         5.8277         13.5146        0.873855 
        5.84339          13.429        0.867848 
        5.85911          13.332        0.861885 
        5.87484         13.2289         0.85598 
        5.89053         13.1194        0.850141 
        5.90623         13.0672        0.844355 
        5.92195         12.9425        0.838612 
        5.93767         12.8569        0.832926 
        5.95336         12.7838        0.827301 
        5.96905         12.7034        0.821731 
        5.98476         12.6283        0.816204 
        6.00048         12.5202        0.810726 
        6.01617         12.4604        0.805306 
        6.03185         12.3355        0.799942 
        6.04756         12.2536        0.794613 
        6.06331         12.1965        0.789322 
        6.07903         12.0877        0.784091 
        6.09473         12.0098        0.778911 
        6.11044         11.9172        0.773773 
        6.12616         11.8391        0.768683 
        6.14186         11.7665        0.763643 
        6.15755         11.6866        0.758649 
        6.17326          11.599        0.753696 
        6.18898         11.5236        0.748784 
        6.20467         11.4261        0.743926 
        6.22036         11.3532         0.73911 
         6.2361         11.2801        0.734324 
         6.2518         11.2161        0.729588 
        6.26748          11.146        0.724905 
        6.28319         11.0842        0.720249 
        6.29893         11.0001        0.715631 
        6.31463         10.9286         0.71106 
        6.33033          10.853        0.706531 
        6.34604         10.7616        0.702038 
        6.36177         10.7049         0.69758 
        6.37747         10.6444        0.693169 
