# k  (h/Mpc)    Pcb(k)  (Mpc/h)^3    Pcb_linear(k) (Mpc/h)^3   ShotnoiseSubtracted = true
      0.0200456         2593.68          2627.3 
      0.0350414         1940.87         1909.96 
      0.0492313          1389.9         1387.74 
      0.0637834         1135.65         1153.61 
      0.0800726         898.342         915.596 
       0.096163         678.461         664.344 
       0.111083          546.27         529.898 
       0.126058         466.868         469.598 
       0.142273         395.598         397.852 
       0.158546         319.765          314.22 
        0.17375         274.142          264.73 
       0.188953         247.196         239.707 
       0.204907         211.343         212.092 
       0.220756         185.893         179.443 
        0.23588         162.633           156.1 
         0.2514         147.049         141.815 
       0.267535         136.468         128.318 
       0.283568         119.702         113.159 
       0.299022         109.534         100.819 
       0.314451         103.463         92.1418 
       0.330372         92.2009         84.5298 
       0.346141         84.3803         76.7236 
       0.361624         77.6668         69.7313 
       0.377134         70.9864         64.1638 
       0.392932         68.6938         59.3695 
       0.408854         62.9124         54.7272 
       0.424564         59.9782         50.4428 
       0.440253         54.6765         46.7664 
       0.455999         50.0408         43.5695 
       0.471626         47.4407         40.6316 
        0.48727         46.0566         37.8834 
       0.502856         42.8959         35.4146 
       0.518488         40.2423         33.2117 
       0.534347         37.8931         31.1638 
       0.550082         36.4262         29.2756 
       0.565732         35.0349         27.5481 
       0.581496         32.8525         25.9659 
       0.597222         31.1104         24.5149 
       0.612804         29.6734         23.1807 
       0.628434         29.0871          21.937 
       0.644267         27.5045         20.7743 
       0.660051          26.138         19.7027 
       0.675724         24.9319         18.7132 
       0.691403         24.4252         17.7908 
       0.707174         23.4218         16.9254 
       0.722871         22.6389         16.1211 
        0.73838         21.4494         15.3775 
       0.754018         20.3635         14.6753 
       0.769845          19.849         14.0093 
        0.78569         19.2153         13.3841 
       0.801365         18.4953         12.8032 
       0.817031         17.8216         12.2573 
       0.832809          17.283           11.74 
       0.848511         16.7349          11.255 
       0.864097         16.1805         10.8008 
       0.879701         15.9077         10.3714 
       0.895507         15.3037         9.96042 
       0.911279         14.6745         9.57264 
        0.92691         14.3811         9.20881 
       0.942635          14.019         8.86196 
       0.958396         13.5338         8.53233 
       0.974128         13.2025         8.22013 
       0.989692         12.6084          7.9267 
        1.00528         12.5223         7.64723 
        1.02113         12.0934          7.3769 
        1.03692         11.8173          7.1207 
        1.05264         11.5367         6.87789 
        1.06832         11.2823         6.64683 
        1.08405          10.978         6.42581 
        1.09979         10.7019         6.21475 
        1.11537         10.4315          6.0153 
        1.13105         10.2361         5.82345 
        1.14679         10.0115         5.63925 
        1.16256         9.77665          5.4627 
        1.17828         9.57153         5.29431 
        1.19395         9.37892         5.13361 
         1.2097          9.0814         4.97879 
        1.22537         8.91973         4.83113 
          1.241         8.69006         4.68992 
        1.25666         8.65296         4.55402 
        1.27241         8.46033         4.42289 
        1.28819         8.11936         4.29672 
        1.30392         8.07173         4.17585 
        1.31957         7.87985         4.06019 
        1.33529           7.769          3.9485 
        1.35108         7.59753         3.84058 
        1.36674         7.41522         3.73747 
         1.3824         7.33213         3.63826 
        1.39811         7.19468         3.54233 
        1.41389         7.02225          3.4495 
        1.42964          6.9318         3.36017 
        1.44531         6.79771         3.27444 
        1.46101         6.72128         3.19153 
        1.47667         6.57477         3.11175 
        1.49229         6.40669         3.03491 
        1.50793         6.33344         2.96059 
        1.52367         6.21299         2.88829 
        1.53953         6.10613         2.81792 
        1.55526          6.0543         2.75046 
        1.57092         5.93178          2.6855 
        1.58662         5.83754         2.62248 
        1.60235          5.7594         2.56137 
        1.61809         5.67067         2.50218 
        1.63369         5.55766         2.44539 
        1.64941         5.47116         2.38996 
        1.66519          5.4073         2.33605 
        1.68085         5.31119          2.2842 
        1.69652         5.25471          2.2339 
        1.71228         5.19537         2.18484 
        1.72806         5.09455         2.13721 
        1.74368         5.04092         2.09149 
        1.75933         4.96428         2.04701 
        1.77505         4.86556         2.00362 
        1.79081         4.83218         1.96142 
         1.8065         4.77685         1.92061 
        1.82218         4.69812           1.881 
        1.83797          4.6117         1.84224 
        1.85367         4.55212         1.80479 
        1.86928         4.52308         1.76861 
        1.88497         4.43068         1.73322 
        1.90073         4.38758         1.69867 
        1.91647         4.31872          1.6651 
        1.93218         4.27314         1.63251 
        1.94787         4.22124         1.60083 
        1.96363         4.17454         1.56988 
        1.97935         4.12763          1.5398 
        1.99499         4.07713         1.51069 
        2.01064          4.0308         1.48229 
         2.0264         3.97599         1.45444 
        2.04216         3.92709         1.42732 
        2.05781         3.88064         1.40106 
        2.07353         3.85079         1.37538 
        2.08928         3.77835         1.35028 
        2.10499         3.74073         1.32587 
        2.12065         3.74426         1.30214 
        2.13633         3.68349         1.27898 
        2.15211         3.61856         1.25623 
        2.16785         3.58148         1.23409 
        2.18349         3.55745         1.21263 
        2.19916         3.51915         1.19163 
        2.21489         3.48012         1.17107 
        2.23063         3.43305         1.15097 
         2.2463         3.39238         1.13144 
        2.26194         3.35498         1.11241 
        2.27765         3.29885         1.09372 
        2.29341         3.27493         1.07541 
        2.30914         3.24177         1.05756 
        2.32486           3.226         1.04012 
        2.34061         3.18959         1.02305 
        2.35635           3.157         1.00638 
        2.37203         3.14013        0.990132 
        2.38768         3.11201        0.974281 
        2.40339         3.05721         0.95872 
        2.41914         3.02942        0.943462 
        2.43483         2.99754        0.928591 
         2.4505          2.9765        0.914066 
        2.46622         2.94573        0.899802 
        2.48195          2.9276        0.885841 
        2.49759         2.88944        0.872251 
        2.51328         2.86706        0.858911 
        2.52906          2.8378        0.845766 
        2.54479         2.81171        0.832946 
        2.56049         2.78464        0.820415 
        2.57618          2.7606        0.808154 
        2.59189         2.75607        0.796125 
        2.60758         2.72463         0.78436 
        2.62325         2.67656        0.772847 
        2.63898         2.65586        0.761525 
        2.65468         2.63366        0.750454 
        2.67044         2.63029        0.739555 
        2.68618         2.60427        0.728899 
        2.70184         2.57823        0.718494 
        2.71755          2.5474        0.708268 
        2.73329          2.5251        0.698224 
        2.74897         2.50597        0.688408 
        2.76462         2.48196        0.678803 
        2.78034         2.47368        0.669341 
        2.79607         2.44513         0.66005 
        2.81179         2.42554        0.650946 
        2.82749         2.40087        0.642024 
        2.84321         2.38714        0.633259 
        2.85893         2.36032         0.62466 
        2.87462         2.35197        0.616236 
        2.89033         2.33432        0.607959 
        2.90605         2.31649        0.599828 
        2.92176         2.29244        0.591849 
        2.93747         2.27519        0.584019 
        2.95318         2.25728         0.57633 
        2.96891         2.24755        0.568775 
        2.98456         2.22934         0.56139 
        3.00023         2.21318        0.554124 
        3.01596          2.1869        0.546965 
        3.03164          2.1726        0.539953 
        3.04738         2.16303        0.533043 
         3.0631         2.14514        0.526256 
        3.07883         2.13005        0.519588 
        3.09456         2.10846        0.513036 
        3.11026         2.09711        0.506607 
        3.12596         2.07985        0.500288 
        3.14163         2.07301        0.494093 
        3.15734         2.05067        0.487987 
        3.17308         2.04248         0.48197 
        3.18879         2.02854        0.476071 
        3.20447         2.00406         0.47028 
         3.2202         2.00624        0.464566 
         3.2359         1.98539        0.458958 
        3.25157           1.967        0.453456 
        3.26729         1.95346        0.448027 
        3.28304         1.94089        0.442676 
        3.29877         1.92365         0.43742 
        3.31446         1.91673        0.432261 
        3.33014         1.90099        0.427189 
        3.34585         1.88845        0.422191 
        3.36158         1.87387        0.417266 
        3.37727         1.87016        0.412434 
        3.39294         1.85267        0.407684 
        3.40867         1.84628        0.402991 
        3.42439         1.83048        0.398374 
        3.44008         1.81613        0.393839 
        3.45578         1.80381        0.389371 
        3.47153          1.7962        0.384963 
        3.48724         1.78243         0.38063 
        3.50292          1.7651        0.376375 
        3.51859         1.76438        0.372186 
        3.53431         1.74486        0.368048 
        3.55007         1.74263        0.363963 
        3.56577         1.72759        0.359956 
        3.58146         1.71912        0.356011 
        3.59719         1.70723        0.352116 
        3.61292         1.69734         0.34828 
        3.62859         1.68562        0.344516 
        3.64429         1.67729        0.340801 
        3.66003         1.66534        0.337129 
        3.67578         1.65492        0.333512 
        3.69146          1.6432        0.329962 
        3.70712         1.63342        0.326471 
        3.72284         1.62349        0.323016 
        3.73853          1.6162        0.319618 
        3.75422         1.60568        0.316267 
        3.76993         1.59443        0.312962 
        3.78564         1.58288        0.309705 
        3.80137         1.57509        0.306489 
        3.81707         1.56403        0.303325 
        3.83279         1.56411        0.300204 
        3.84853          1.5505        0.297121 
        3.86424         1.53747        0.294088 
        3.87992         1.53152        0.291101 
        3.89561         1.51805        0.288156 
        3.91134         1.51475        0.285246 
        3.92704          1.5043        0.282379 
        3.94273         1.49828        0.279554 
        3.95845         1.48379        0.276763 
        3.97418         1.47936        0.274009 
        3.98988         1.47287        0.271296 
        4.00554         1.46098        0.268628 
        4.02125         1.45351        0.265988 
        4.03698         1.44323        0.263379 
        4.05268         1.43452        0.260811 
        4.06839         1.42306        0.258275 
         4.0841         1.41406        0.255774 
        4.09983         1.40347        0.253303 
        4.11555         1.39651        0.250865 
        4.13124         1.38591        0.248466 
        4.14693         1.37764        0.246096 
        4.16266         1.37207        0.243751 
        4.17839         1.36246        0.241439 
        4.19408         1.35535        0.239162 
        4.20977         1.34637        0.236913 
        4.22551         1.34104        0.234687 
        4.24123         1.32873        0.232493 
        4.25691         1.32058        0.230333 
        4.27259         1.31184        0.228199 
        4.28831         1.31044        0.226088 
        4.30404         1.29805        0.224002 
        4.31974         1.29019        0.221946 
        4.33543         1.28386        0.219918 
        4.35116         1.27665         0.21791 
        4.36688         1.26994        0.215927 
        4.38255         1.26289        0.213977 
        4.39825         1.25756        0.212047 
        4.41398         1.24943        0.210136 
         4.4297         1.24229        0.208252 
        4.44541         1.23501         0.20639 
        4.46111         1.22621        0.204553 
        4.47683         1.22376        0.202737 
        4.49251         1.21706        0.200946 
        4.50819          1.2107        0.199178 
         4.5239         1.20447        0.197428 
        4.53962          1.1971        0.195698 
        4.55535         1.19339        0.193987 
        4.57106         1.18482        0.192299 
        4.58678         1.18474         0.19063 
         4.6025          1.1753        0.188981 
        4.61821         1.17326        0.187352 
        4.63391          1.1669        0.185744 
         4.6496         1.15728        0.184156 
        4.66532          1.1567        0.182584 
        4.68103          1.1496        0.181031 
        4.69673         1.14692        0.179497 
        4.71241         1.13888        0.177983 
        4.72811         1.13698        0.176483 
        4.74384         1.13126        0.174999 
        4.75955         1.12871        0.173534 
        4.77525         1.12039        0.172087 
        4.79096         1.11513        0.170655 
        4.80669         1.11337        0.169238 
         4.8224         1.10808        0.167839 
        4.83809         1.10485        0.166457 
        4.85379         1.09998         0.16509 
         4.8695         1.09385        0.163737 
        4.88521         1.09201          0.1624 
        4.90093         1.08798        0.161077 
        4.91663         1.08299        0.159771 
        4.93234         1.07933        0.158477 
        4.94807         1.07355        0.157197 
        4.96377         1.07093        0.155934 
        4.97943         1.06908        0.154687 
        4.99514         1.06736         0.15345 
        5.01086         1.05897        0.152226 
        5.02654         1.05501        0.151019 
        5.04227         1.05232        0.149821 
          5.058         1.05006        0.148635 
        5.07371         1.04496        0.147465 
        5.08942         1.04291        0.146307 
        5.10513         1.04292        0.145161 
        5.12084         1.03635        0.144027 
        5.13656         1.03176        0.142905 
        5.15225         1.02639        0.141797 
        5.16796         1.02427          0.1407 
        5.18369         1.02297        0.139612 
         5.1994         1.02114        0.138539 
        5.21509         1.01568        0.137477 
        5.23079         1.01415        0.136425 
        5.24649          1.0103        0.135386 
        5.26217         1.00795        0.134357 
        5.27788         1.00288        0.133338 
        5.29359         1.00146        0.132329 
        5.30933        0.999398         0.13133 
        5.32504        0.995296        0.130342 
        5.34073        0.993891        0.129365 
        5.35646        0.989584        0.128397 
        5.37218        0.987127        0.127438 
        5.38789        0.987406        0.126491 
        5.40357        0.983356        0.125554 
        5.41929         0.98272        0.124625 
        5.43502        0.977388        0.123705 
         5.4507        0.973117        0.122796 
        5.46639        0.972506        0.121897 
        5.48212         0.96833        0.121004 
        5.49786        0.968076        0.120119 
        5.51353        0.966968        0.119248 
        5.52921        0.961921        0.118384 
        5.54495        0.959969        0.117526 
        5.56066        0.959338        0.116678 
        5.57637        0.958835        0.115838 
        5.59207        0.954698        0.115007 
        5.60778        0.953448        0.114184 
        5.62346        0.951073         0.11337 
        5.63916        0.949658        0.112564 
        5.65487         0.94545        0.111765 
         5.6706        0.944539        0.110972 
        5.68633        0.940647        0.110187 
        5.70203        0.941256        0.109411 
        5.71773        0.937572        0.108643 
        5.73344        0.934018        0.107882 
        5.74916         0.93423        0.107127 
        5.76486        0.930529        0.106381 
        5.78054        0.929829        0.105642 
        5.79626          0.9279        0.104909 
          5.812        0.925954        0.104182 
         5.8277        0.923439        0.103464 
        5.84339        0.924885        0.102753 
        5.85911         0.92048        0.102047 
        5.87484        0.920135        0.101348 
        5.89053        0.914758        0.100656 
        5.90623         0.91554       0.0999713 
        5.92195        0.912632       0.0992913 
        5.93767         0.91145       0.0986181 
        5.95336        0.908868       0.0979522 
        5.96905        0.907412       0.0972926 
        5.98476        0.904799       0.0966383 
        6.00048        0.905147       0.0959897 
        6.01617        0.902877       0.0953479 
        6.03185        0.900059       0.0947128 
        6.04756        0.900769       0.0940819 
        6.06331        0.896535       0.0934555 
        6.07903        0.897247        0.092836 
        6.09473        0.895745       0.0922227 
        6.11044        0.893132       0.0916145 
        6.12616        0.891314       0.0910118 
        6.14186        0.888843       0.0904151 
        6.15755        0.887229       0.0898238 
        6.17326        0.885681       0.0892373 
        6.18898         0.88422       0.0886558 
        6.20467        0.882766       0.0880805 
        6.22036        0.879589       0.0875103 
         6.2361        0.878814       0.0869437 
         6.2518        0.878292        0.086383 
        6.26748        0.876721       0.0858284 
        6.28319        0.874395       0.0852772 
        6.29893        0.871954       0.0847304 
        6.31463        0.871258       0.0841893 
        6.33033        0.871004        0.083653 
        6.34604        0.869477       0.0831211 
        6.36177        0.867648       0.0825933 
        6.37747        0.864982        0.082071 
