# k  (h/Mpc)    Pcb(k)  (Mpc/h)^3    Pcb_linear(k) (Mpc/h)^3   ShotnoiseSubtracted = true
      0.0200456         20465.6         20819.2 
      0.0350414         15602.6         15134.8 
      0.0492313         10776.1         10996.7 
      0.0637834         8689.56         9141.44 
      0.0800726         6822.37         7255.34 
       0.096163         5467.59         5264.38 
       0.111083         4452.62            4199 
       0.126058         3681.96         3721.17 
       0.142273         3219.83         3152.65 
       0.158546         2643.19         2489.93 
        0.17375         2355.48         2097.77 
       0.188953         2226.53         1899.48 
       0.204907         1913.76         1680.65 
       0.220756         1728.13         1421.93 
        0.23588         1542.15         1236.96 
         0.2514         1393.46         1123.77 
       0.267535         1346.75         1016.81 
       0.283568         1196.24         896.694 
       0.299022         1141.18         798.908 
       0.314451         1185.82         730.148 
       0.330372         1041.53         669.828 
       0.346141          957.11         607.971 
       0.361624         918.392         552.563 
       0.377134         878.518         508.445 
       0.392932         839.867         470.454 
       0.408854         803.598         433.668 
       0.424564         785.286         399.718 
       0.440253         725.281         370.585 
       0.455999         693.585         345.252 
       0.471626         706.449         321.972 
        0.48727         666.362         300.195 
       0.502856         634.594         280.631 
       0.518488         619.603         263.175 
       0.534347         591.202         246.948 
       0.550082         564.168         231.985 
       0.565732         557.323         218.296 
       0.581496         545.088         205.758 
       0.597222         531.888          194.26 
       0.612804          519.57         183.688 
       0.628434         497.927         173.833 
       0.644267         482.854         164.619 
       0.660051         477.046         156.128 
       0.675724         467.168         148.287 
       0.691403          455.33         140.978 
       0.707174         439.941          134.12 
       0.722871         433.778         127.746 
        0.73838         425.901         121.854 
       0.754018         413.341          116.29 
       0.769845         409.324         111.012 
        0.78569         400.668         106.058 
       0.801365          386.84         101.455 
       0.817031         384.074         97.1294 
       0.832809         377.807         93.0299 
       0.848511         370.564         89.1865 
       0.864097         361.272         85.5878 
       0.879701         359.338         82.1851 
       0.895507         346.303         78.9281 
       0.911279         340.487         75.8553 
        0.92691          337.35         72.9722 
       0.942635         333.752         70.2237 
       0.958396         322.421         67.6116 
       0.974128         319.171         65.1377 
       0.989692         308.186         62.8126 
        1.00528         306.978          60.598 
        1.02113         301.947         58.4559 
        1.03692         296.464         56.4257 
        1.05264         291.636         54.5016 
        1.06832          287.61         52.6706 
        1.08405         283.572         50.9192 
        1.09979         278.758         49.2468 
        1.11537         271.782         47.6663 
        1.13105         268.235          46.146 
        1.14679         264.618         44.6864 
        1.16256         262.635         43.2874 
        1.17828         258.232          41.953 
        1.19395         251.507         40.6796 
         1.2097         251.339         39.4528 
        1.22537         246.882         38.2827 
          1.241         240.815         37.1637 
        1.25666         239.022         36.0869 
        1.27241         235.149         35.0478 
        1.28819         230.837         34.0479 
        1.30392         229.718         33.0902 
        1.31957          223.04         32.1736 
        1.33529          220.17         31.2886 
        1.35108         219.112         30.4334 
        1.36674         212.996         29.6164 
         1.3824         211.792         28.8302 
        1.39811         209.836           28.07 
        1.41389         203.702         27.3345 
        1.42964         201.561         26.6265 
        1.44531         199.815         25.9472 
        1.46101         196.261         25.2902 
        1.47667          193.92          24.658 
        1.49229         191.071         24.0492 
        1.50793         188.173         23.4602 
        1.52367         185.751         22.8873 
        1.53953         181.723         22.3297 
        1.55526         180.717         21.7951 
        1.57092         179.186         21.2803 
        1.58662          174.73          20.781 
        1.60235         173.067         20.2967 
        1.61809         170.545         19.8277 
        1.63369         167.404         19.3777 
        1.64941         165.557         18.9385 
        1.66519         163.459         18.5113 
        1.68085          160.68         18.1004 
        1.69652         158.974         17.7018 
        1.71228          156.32          17.313 
        1.72806         154.854         16.9356 
        1.74368         152.812         16.5733 
        1.75933         151.603         16.2209 
        1.77505         149.234         15.8771 
        1.79081         145.918         15.5426 
         1.8065         144.518         15.2193 
        1.82218         141.828         14.9054 
        1.83797         140.957         14.5983 
        1.85367         138.955         14.3015 
        1.86928         137.029         14.0148 
        1.88497         135.808         13.7343 
        1.90073         134.275         13.4606 
        1.91647          131.66         13.1945 
        1.93218         130.147         12.9363 
        1.94787         128.176         12.6853 
        1.96363         127.595           12.44 
        1.97935         125.863         12.2017 
        1.99499         124.141          11.971 
        2.01064         121.565         11.7459 
         2.0264         120.732         11.5252 
        2.04216         118.995         11.3103 
        2.05781         117.253         11.1023 
        2.07353           115.9         10.8987 
        2.08928         114.443         10.6998 
        2.10499         113.319         10.5064 
        2.12065         112.014         10.3184 
        2.13633          110.89         10.1348 
        2.15211         108.963         9.95455 
        2.16785         107.655         9.77915 
        2.18349         106.197         9.60909 
        2.19916         105.222         9.44271 
        2.21489         104.101         9.27973 
        2.23063         102.224         9.12049 
         2.2463         101.198         8.96571 
        2.26194          100.25          8.8149 
        2.27765         98.8679          8.6668 
        2.29341         97.9085         8.52172 
        2.30914         96.6758         8.38026 
        2.32486         94.9138         8.24209 
        2.34061         94.2763         8.10681 
        2.35635         93.2037         7.97469 
        2.37203         91.5704         7.84597 
        2.38768         90.8342         7.72037 
        2.40339         89.8717         7.59706 
        2.41914         88.4408         7.47616 
        2.43483         87.8158         7.35832 
         2.4505         86.6455         7.24322 
        2.46622         85.5659         7.13018 
        2.48195         84.7833         7.01956 
        2.49759         83.5478         6.91187 
        2.51328         82.8538         6.80616 
        2.52906         81.3979           6.702 
        2.54479         80.5715          6.6004 
        2.56049         79.4079         6.50111 
        2.57618         78.4737         6.40395 
        2.59189         78.0311         6.30863 
        2.60758         76.4636          6.2154 
        2.62325         76.2117         6.12417 
        2.63898         75.2259         6.03446 
        2.65468         74.3372         5.94673 
        2.67044         73.1945         5.86036 
        2.68618         72.6388         5.77592 
        2.70184         71.6481         5.69347 
        2.71755         70.9488         5.61244 
        2.73329         69.8727         5.53285 
        2.74897         69.4746         5.45507 
        2.76462         68.6216         5.37895 
        2.78034         67.4394         5.30397 
        2.79607          66.824         5.23035 
        2.81179         66.3667         5.15821 
        2.82749         65.7532         5.08751 
        2.84321         64.9262         5.01805 
        2.85893         64.1631         4.94991 
        2.87462         63.4423         4.88316 
        2.89033         62.8843         4.81757 
        2.90605         62.3234         4.75314 
        2.92176         61.4817         4.68991 
        2.93747          60.975         4.62787 
        2.95318         60.0161         4.56694 
        2.96891         59.5575         4.50707 
        2.98456          58.861         4.44855 
        3.00023         58.2654         4.39098 
        3.01596          57.791         4.33425 
        3.03164         57.0656         4.27868 
        3.04738         56.7342         4.22392 
         3.0631         55.7019         4.17015 
        3.07883         55.2111          4.1173 
        3.09456         54.5971         4.06538 
        3.11026         54.0484         4.01444 
        3.12596         53.5786         3.96437 
        3.14163         52.8679         3.91527 
        3.15734         52.2993         3.86689 
        3.17308          51.847         3.81922 
        3.18879         51.2899         3.77247 
        3.20447         50.9004         3.72658 
         3.2202         50.2016          3.6813 
         3.2359         49.6117         3.63686 
        3.25157         49.2561         3.59326 
        3.26729          48.672         3.55024 
        3.28304          48.231         3.50784 
        3.29877         47.7146         3.46619 
        3.31446         47.3487         3.42531 
        3.33014         46.7685         3.38512 
        3.34585         46.1824         3.34552 
        3.36158         45.8376         3.30649 
        3.37727         45.3326          3.2682 
        3.39294         45.0089         3.23056 
        3.40867         44.5184         3.19337 
        3.42439         44.0647         3.15679 
        3.44008         43.4919         3.12085 
        3.45578         43.1987         3.08545 
        3.47153         42.6859         3.05051 
        3.48724         42.2604         3.01618 
        3.50292         41.8758         2.98246 
        3.51859            41.4         2.94927 
        3.53431         40.9012         2.91648 
        3.55007         40.6058          2.8841 
        3.56577         40.3033         2.85235 
        3.58146         39.8057         2.82109 
        3.59719         39.4158         2.79023 
        3.61292         38.9783         2.75983 
        3.62859         38.7424         2.73001 
        3.64429         38.3705         2.70057 
        3.66003         38.0007         2.67147 
        3.67578         37.6591         2.64281 
        3.69146         37.3302         2.61468 
        3.70712         36.8999         2.58701 
        3.72284         36.6041         2.55964 
        3.73853         36.2791         2.53271 
        3.75422         35.9525         2.50616 
        3.76993         35.5964         2.47996 
        3.78564         35.3452         2.45415 
        3.80137         34.9692         2.42867 
        3.81707         34.5775          2.4036 
        3.83279         34.3025         2.37887 
        3.84853         33.9715         2.35444 
        3.86424         33.6191          2.3304 
        3.87992         33.4613         2.30674 
        3.89561          33.131          2.2834 
        3.91134         32.8988         2.26034 
        3.92704         32.5069         2.23762 
        3.94273         32.2159         2.21523 
        3.95845         31.9762         2.19312 
        3.97418         31.6447         2.17129 
        3.98988         31.2882          2.1498 
        4.00554         31.0561         2.12865 
        4.02125         30.8549         2.10773 
        4.03698         30.4809         2.08706 
        4.05268          30.259         2.06671 
        4.06839         29.8818         2.04662 
         4.0841         29.7393          2.0268 
        4.09983         29.4501         2.00721 
        4.11555         29.1794          1.9879 
        4.13124         28.9387         1.96888 
        4.14693         28.6927         1.95011 
        4.16266         28.3572         1.93153 
        4.17839         28.1728          1.9132 
        4.19408         27.9269         1.89516 
        4.20977         27.6852         1.87734 
        4.22551         27.4453          1.8597 
        4.24123         27.2227         1.84231 
        4.25691         26.9691          1.8252 
        4.27259         26.8293         1.80829 
        4.28831         26.4891         1.79156 
        4.30404         26.2794         1.77503 
        4.31974         25.9923         1.75874 
        4.33543         25.8538         1.74267 
        4.35116         25.6215         1.72675 
        4.36688         25.3996         1.71105 
        4.38255          25.264         1.69559 
        4.39825          24.942          1.6803 
        4.41398         24.7539         1.66516 
         4.4297         24.5433         1.65022 
        4.44541         24.4044         1.63547 
        4.46111         24.1833         1.62091 
        4.47683         23.9436         1.60652 
        4.49251         23.7662         1.59233 
        4.50819         23.5976         1.57832 
         4.5239         23.3548         1.56446 
        4.53962         23.2186         1.55074 
        4.55535         22.9568         1.53718 
        4.57106          22.804         1.52381 
        4.58678         22.6048         1.51059 
         4.6025         22.3851         1.49752 
        4.61821         22.2158         1.48461 
        4.63391              22         1.47187 
         4.6496         21.8513         1.45928 
        4.66532         21.7202         1.44683 
        4.68103         21.4464         1.43452 
        4.69673         21.3686         1.42237 
        4.71241         21.1643         1.41037 
        4.72811         20.9761         1.39848 
        4.74384          20.807         1.38672 
        4.75955         20.6809         1.37512 
        4.77525          20.502         1.36365 
        4.79096         20.3231          1.3523 
        4.80669           20.19         1.34107 
         4.8224         20.0329         1.32998 
        4.83809         19.8514         1.31903 
        4.85379         19.6913          1.3082 
         4.8695         19.5525         1.29748 
        4.88521         19.3843         1.28688 
        4.90093         19.2292          1.2764 
        4.91663         19.0992         1.26605 
        4.93234         18.9178          1.2558 
        4.94807          18.799         1.24566 
        4.96377         18.6923         1.23564 
        4.97943         18.4458         1.22576 
        4.99514         18.3409         1.21596 
        5.01086         18.1948         1.20627 
        5.02654         18.0802          1.1967 
        5.04227         17.9099          1.1872 
          5.058         17.7698         1.17781 
        5.07371         17.6552         1.16854 
        5.08942         17.4943         1.15936 
        5.10513         17.3635         1.15028 
        5.12084         17.2634         1.14129 
        5.13656         17.0784         1.13241 
        5.15225         16.9585         1.12363 
        5.16796         16.8522         1.11493 
        5.18369         16.7288         1.10631 
         5.1994         16.6248          1.0978 
        5.21509         16.4936         1.08939 
        5.23079         16.3637         1.08106 
        5.24649         16.2624         1.07282 
        5.26217         16.1351         1.06467 
        5.27788         15.9807         1.05659 
        5.29359          15.876          1.0486 
        5.30933         15.7619         1.04068 
        5.32504         15.5995         1.03285 
        5.34073         15.5335         1.02511 
        5.35646         15.4175         1.01744 
        5.37218         15.2611         1.00984 
        5.38789         15.1611         1.00234 
        5.40357         15.0616        0.994913 
        5.41929           14.96        0.987549 
        5.43502         14.8196        0.980259 
         5.4507           14.74        0.973059 
        5.46639         14.6432        0.965931 
        5.48212         14.5236        0.958858 
        5.49786         14.4206        0.951847 
        5.51353          14.313        0.944941 
        5.52921         14.2045        0.938096 
        5.54495         14.0837        0.931299 
        5.56066         14.0021        0.924576 
        5.57637         13.8837        0.917921 
        5.59207         13.7889        0.911338 
        5.60778         13.6885        0.904816 
        5.62346         13.6099        0.898367 
        5.63916         13.4812        0.891975 
        5.65487         13.3992        0.885641 
         5.6706         13.2999        0.879362 
        5.68633         13.2251        0.873141 
        5.70203          13.117        0.866993 
        5.71773         13.0266        0.860906 
        5.73344         12.9274        0.854873 
        5.74916         12.8457        0.848893 
        5.76486         12.7641        0.842978 
        5.78054         12.6744        0.837129 
        5.79626         12.5601        0.831318 
          5.812         12.4887        0.825557 
         5.8277         12.4059        0.819867 
        5.84339         12.3071        0.814231 
        5.85911         12.2206        0.808637 
        5.87484         12.1471        0.803097 
        5.89053         12.0538        0.797619 
        5.90623         11.9597         0.79219 
        5.92195         11.8538        0.786802 
        5.93767         11.7858        0.781467 
        5.95336         11.7403         0.77619 
        5.96905         11.6396        0.770964 
        5.98476         11.5918        0.765778 
        6.00048         11.4829        0.760639 
        6.01617         11.4096        0.755553 
        6.03185         11.3375        0.750521 
        6.04756         11.2487        0.745521 
        6.06331         11.1681        0.740557 
        6.07903         11.0879        0.735649 
        6.09473         11.0292        0.730789 
        6.11044         10.9385        0.725969 
        6.12616         10.8554        0.721193 
        6.14186         10.7774        0.716465 
        6.15755           10.73        0.711779 
        6.17326         10.6458        0.707132 
        6.18898         10.5607        0.702524 
        6.20467         10.5066        0.697965 
        6.22036         10.4446        0.693447 
         6.2361         10.3493        0.688957 
         6.2518         10.3135        0.684514 
        6.26748         10.2438        0.680119 
        6.28319         10.1741        0.675751 
        6.29893         10.1029        0.671418 
        6.31463         10.0315         0.66713 
        6.33033         9.96328        0.662881 
        6.34604         9.88147        0.658666 
        6.36177         9.84605        0.654483 
        6.37747         9.77144        0.650345 
