# k  (h/Mpc)    Pcb(k)  (Mpc/h)^3    Pcb_linear(k) (Mpc/h)^3   ShotnoiseSubtracted = true
      0.0200456         14805.9         15124.9 
      0.0350414         10932.7         11363.2 
      0.0492313         8327.08         8464.57 
      0.0637834         7189.06         7070.39 
      0.0800726         5681.54         5611.42 
       0.096163          4004.6          4132.8 
       0.111083         3233.18         3346.66 
       0.126058         2982.45            2962 
       0.142273         2565.58         2491.29 
       0.158546         2202.93         1984.74 
        0.17375         1776.58         1695.04 
       0.188953         1726.19         1533.12 
       0.204907         1619.96         1346.01 
       0.220756          1393.9         1143.05 
        0.23588         1237.21         1004.37 
         0.2514         1079.04         914.189 
       0.267535         1066.85         822.624 
       0.283568         968.007         725.674 
       0.299022         909.666         650.798 
       0.314451         864.428          596.42 
       0.330372         796.438         545.637 
       0.346141         739.017         494.838 
       0.361624          709.95         451.288 
       0.377134         659.728         416.334 
       0.392932         634.616         384.988 
       0.408854         613.291         354.594 
       0.424564         576.158         327.347 
       0.440253         564.039          304.07 
       0.455999         533.738         283.369 
       0.471626         505.367         264.178 
        0.48727         488.728         246.474 
       0.502856         474.637         230.691 
       0.518488          469.38         216.462 
       0.534347         438.643         203.138 
       0.550082         419.769         190.894 
       0.565732         419.061         179.762 
       0.581496         394.293         169.533 
       0.597222         388.074         160.107 
       0.612804          376.35         151.437 
       0.628434         362.467         143.378 
       0.644267         352.148         135.843 
       0.660051         343.363         128.882 
       0.675724         339.182         122.451 
       0.691403         328.567         116.453 
       0.707174         316.664         110.824 
       0.722871         312.715          105.59 
        0.73838         308.041         100.751 
       0.754018         298.898         96.1781 
       0.769845         289.075         91.8399 
        0.78569           288.7         87.7657 
       0.801365         278.717         83.9794 
       0.817031         270.401           80.42 
       0.832809         267.666         77.0454 
       0.848511         260.424         73.8806 
       0.864097         256.446         70.9163 
       0.879701         252.284         68.1127 
       0.895507         246.368         65.4284 
       0.911279         238.508         62.8951 
        0.92691         237.835         60.5176 
       0.942635         232.192         58.2506 
       0.958396         229.417         56.0954 
       0.974128         224.524         54.0538 
       0.989692         219.478         52.1345 
        1.00528         216.628          50.306 
        1.02113         214.593          48.537 
        1.03692         208.801           46.86 
        1.05264         204.797         45.2703 
        1.06832         201.197         43.7571 
        1.08405         197.312         42.3094 
        1.09979         195.369         40.9266 
        1.11537         190.714         39.6196 
        1.13105         187.119         38.3621 
        1.14679         187.248         37.1546 
        1.16256         183.345         35.9969 
        1.17828         179.505         34.8925 
        1.19395         176.912         33.8384 
         1.2097         176.057         32.8226 
        1.22537         171.686         31.8536 
          1.241         170.179         30.9268 
        1.25666         166.567         30.0347 
        1.27241         163.932         29.1737 
        1.28819         161.914         28.3452 
        1.30392         159.239         27.5514 
        1.31957         158.325         26.7916 
        1.33529         153.982         26.0578 
        1.35108          152.58         25.3487 
        1.36674          151.29         24.6711 
         1.3824          148.19          24.019 
        1.39811         147.957         23.3884 
        1.41389         144.531         22.7781 
        1.42964         141.646         22.1906 
        1.44531         139.458         21.6269 
        1.46101         138.154         21.0816 
        1.47667         135.523         20.5567 
        1.49229          133.84         20.0512 
        1.50793         132.763         19.5622 
        1.52367         131.083         19.0864 
        1.53953         128.259         18.6233 
        1.55526         126.716         18.1793 
        1.57092         125.167         17.7516 
        1.58662         123.075         17.3367 
        1.60235         122.003         16.9344 
        1.61809          120.06         16.5446 
        1.63369         118.527         16.1706 
        1.64941         117.075         15.8055 
        1.66519         115.034         15.4504 
        1.68085         114.226         15.1087 
        1.69652          111.35         14.7773 
        1.71228         111.222          14.454 
        1.72806         109.575         14.1402 
        1.74368         108.332         13.8388 
        1.75933         106.662         13.5456 
        1.77505         105.151         13.2596 
        1.79081         104.054         12.9813 
         1.8065         102.544         12.7123 
        1.82218         100.739         12.4511 
        1.83797         99.3675         12.1955 
        1.85367         98.2799         11.9485 
        1.86928         97.2583         11.7098 
        1.88497         95.1474         11.4764 
        1.90073         94.8884         11.2484 
        1.91647         93.2464         11.0269 
        1.93218         92.2113         10.8118 
        1.94787         91.1348         10.6028 
        1.96363         89.7945         10.3985 
        1.97935         88.3198            10.2 
        1.99499         87.6133         10.0078 
        2.01064         86.5194         9.82035 
         2.0264         85.1271         9.63649 
        2.04216         84.3168         9.45743 
        2.05781         83.1349         9.28407 
        2.07353         81.7563         9.11443 
        2.08928         80.8497         8.94868 
        2.10499         79.6462         8.78749 
        2.12065         79.3103         8.63077 
        2.13633         78.2397         8.47774 
        2.15211         77.1796         8.32744 
        2.16785         75.8444          8.1812 
        2.18349         74.8839          8.0394 
        2.19916         74.2652         7.90067 
        2.21489         73.2254         7.76476 
        2.23063         72.2003         7.63196 
         2.2463          71.569         7.50286 
        2.26194         71.0942         7.37708 
        2.27765         69.7588         7.25354 
        2.29341         68.8635         7.13251 
        2.30914          67.859          7.0145 
        2.32486         67.2196         6.89922 
        2.34061         66.4102         6.78635 
        2.35635         65.6136         6.67611 
        2.37203         64.4827          6.5687 
        2.38768         63.9285         6.46388 
        2.40339         63.2073         6.36097 
        2.41914         62.4013         6.26006 
        2.43483         62.1011          6.1617 
         2.4505         60.9912         6.06562 
        2.46622         60.3516         5.97126 
        2.48195         59.5282          5.8789 
        2.49759         58.7475           5.789 
        2.51328         58.2347         5.70074 
        2.52906         57.6335         5.61376 
        2.54479          56.887         5.52893 
        2.56049         56.0493         5.44601 
        2.57618         55.5571         5.36487 
        2.59189         54.7068         5.28526 
        2.60758         54.2701          5.2074 
        2.62325         53.6855         5.13119 
        2.63898         53.0379         5.05625 
        2.65468         52.5521         4.98297 
        2.67044         51.7727         4.91082 
        2.68618         51.4954         4.84027 
        2.70184         50.7628         4.77139 
        2.71755         50.4519         4.70368 
        2.73329         49.4563         4.63718 
        2.74897         48.9998         4.57218 
        2.76462         48.5065         4.50857 
        2.78034         48.0059         4.44591 
        2.79607          47.274         4.38438 
        2.81179         46.7777         4.32409 
        2.82749         46.2642         4.26499 
        2.84321         45.8417         4.20694 
        2.85893         45.2342         4.14998 
        2.87462         44.6401         4.09417 
        2.89033         44.2631         4.03935 
        2.90605           43.69         3.98547 
        2.92176         43.2461         3.93261 
        2.93747         42.7627         3.88074 
        2.95318         42.1587         3.82979 
        2.96891         41.6024         3.77973 
        2.98456         41.4733         3.73079 
        3.00023         40.8434         3.68265 
        3.01596         40.5982          3.6352 
        3.03164         39.9317         3.58873 
        3.04738         39.7451         3.54293 
         3.0631         39.2221         3.49795 
        3.07883         38.8336         3.45375 
        3.09456         38.4259         3.41032 
        3.11026         37.9115          3.3677 
        3.12596         37.6594         3.32582 
        3.14163          37.132         3.28475 
        3.15734         36.5626         3.24427 
        3.17308         36.4985         3.20438 
        3.18879         36.1221         3.16527 
        3.20447         35.6018         3.12687 
         3.2202          35.195         3.08898 
         3.2359         34.8572          3.0518 
        3.25157         34.4759         3.01531 
        3.26729         34.1692         2.97931 
        3.28304         33.6703         2.94383 
        3.29877         33.4098         2.90897 
        3.31446         33.1447         2.87475 
        3.33014         32.7719         2.84111 
        3.34585         32.4382         2.80796 
        3.36158         32.1121         2.77529 
        3.37727         31.7101         2.74324 
        3.39294         31.4403         2.71173 
        3.40867         31.0818          2.6806 
        3.42439         30.7943         2.64997 
        3.44008         30.6535         2.61988 
        3.45578         30.1299         2.59024 
        3.47153         29.8239         2.56099 
        3.48724         29.5981         2.53225 
        3.50292         29.3503         2.50401 
        3.51859         28.9686         2.47621 
        3.53431         28.7156         2.44876 
        3.55007          28.468         2.42165 
        3.56577         28.1965         2.39506 
        3.58146         27.8721         2.36888 
        3.59719         27.6322         2.34303 
        3.61292         27.3953         2.31757 
        3.62859         27.0367         2.29259 
        3.64429         26.7508         2.26793 
        3.66003         26.5488         2.24356 
        3.67578         26.2744         2.21955 
        3.69146         26.0877         2.19598 
        3.70712         25.7836         2.17281 
        3.72284         25.6374         2.14987 
        3.73853         25.3576         2.12731 
        3.75422         25.0592         2.10507 
        3.76993          24.905         2.08312 
        3.78564         24.6631          2.0615 
        3.80137         24.4062         2.04015 
        3.81707         24.1642         2.01914 
        3.83279         24.0012         1.99842 
        3.84853         23.7142         1.97795 
        3.86424         23.4779         1.95781 
        3.87992           23.25         1.93797 
        3.89561         23.0126         1.91841 
        3.91134          22.835         1.89909 
        3.92704          22.627         1.88005 
        3.94273         22.4191         1.86129 
        3.95845         22.1223         1.84275 
        3.97418         22.0319         1.82446 
        3.98988         21.7302         1.80644 
        4.00554         21.5784         1.78872 
        4.02125         21.4526         1.77118 
        4.03698         21.1382         1.75385 
        4.05268         21.0216         1.73679 
        4.06839         20.8008         1.71995 
         4.0841         20.6453         1.70333 
        4.09983         20.4803         1.68691 
        4.11555         20.2905         1.67072 
        4.13124         20.0287         1.65478 
        4.14693         19.8489         1.63903 
        4.16266         19.6752         1.62346 
        4.17839         19.5283         1.60809 
        4.19408         19.3163         1.59296 
        4.20977         19.1841         1.57802 
        4.22551         18.9758         1.56323 
        4.24123         18.7912         1.54865 
        4.25691         18.6697         1.53429 
        4.27259         18.4921         1.52011 
        4.28831         18.3265         1.50609 
        4.30404         18.1479         1.49222 
        4.31974         18.0541         1.47856 
        4.33543         17.8512         1.46508 
        4.35116         17.7434         1.45173 
        4.36688         17.5505         1.43856 
        4.38255         17.4238          1.4256 
        4.39825         17.2995         1.41277 
        4.41398         17.1035         1.40007 
         4.4297         16.9698         1.38754 
        4.44541         16.8428         1.37517 
        4.46111         16.6792         1.36295 
        4.47683         16.5324         1.35088 
        4.49251         16.4019         1.33898 
        4.50819         16.2366         1.32722 
         4.5239         16.1381         1.31559 
        4.53962         15.9655         1.30408 
        4.55535         15.8505         1.29271 
        4.57106         15.6931         1.28149 
        4.58678          15.583         1.27039 
         4.6025         15.4437         1.25943 
        4.61821         15.3395          1.2486 
        4.63391         15.1892         1.23791 
         4.6496          15.066         1.22734 
        4.66532         14.9441         1.21689 
        4.68103         14.7844         1.20656 
        4.69673          14.709         1.19636 
        4.71241         14.6205         1.18629 
        4.72811         14.4369         1.17632 
        4.74384         14.3541         1.16645 
        4.75955         14.2265         1.15671 
        4.77525         14.1064         1.14709 
        4.79096         13.9933         1.13756 
        4.80669         13.9229         1.12814 
         4.8224         13.7536         1.11883 
        4.83809         13.6276         1.10964 
        4.85379         13.5373         1.10055 
         4.8695          13.485         1.09155 
        4.88521         13.3338         1.08265 
        4.90093          13.232         1.07386 
        4.91663         13.1236         1.06516 
        4.93234         13.0211         1.05656 
        4.94807         12.9235         1.04805 
        4.96377         12.8022         1.03964 
        4.97943         12.7012         1.03134 
        4.99514         12.5988         1.02312 
        5.01086          12.514         1.01498 
        5.02654         12.4168         1.00694 
        5.04227         12.3116        0.998972 
          5.058           12.21        0.991084 
        5.07371         12.1219        0.983297 
        5.08942         12.0273        0.975592 
        5.10513         11.9403        0.967969 
        5.12084         11.8438        0.960424 
        5.13656         11.7441        0.952961 
        5.15225         11.6385         0.94559 
        5.16796          11.555        0.938284 
        5.18369         11.4735         0.93105 
         5.1994         11.4151        0.923904 
        5.21509         11.3059         0.91684 
        5.23079         11.2108        0.909842 
        5.24649         11.1307        0.902922 
        5.26217         11.0579        0.896079 
        5.27788         10.9439        0.889297 
        5.29359         10.8901        0.882584 
        5.30933         10.7759         0.87593 
        5.32504         10.7389        0.869357 
        5.34073         10.6383        0.862858 
        5.35646         10.5737        0.856412 
        5.37218         10.4853        0.850031 
        5.38789         10.4008        0.843725 
        5.40357         10.3337         0.83749 
        5.41929         10.2492        0.831305 
        5.43502         10.1739        0.825181 
         5.4507         10.0939        0.819134 
        5.46639         10.0178        0.813146 
        5.48212         9.96471        0.807204 
        5.49786         9.87893        0.801314 
        5.51353         9.80055        0.795513 
        5.52921         9.73601        0.789762 
        5.54495         9.66391        0.784052 
        5.56066         9.58215        0.778405 
        5.57637         9.50857        0.772814 
        5.59207         9.44814        0.767282 
        5.60778         9.38053        0.761803 
        5.62346         9.32619        0.756385 
        5.63916         9.24491        0.751014 
        5.65487         9.17178        0.745693 
         5.6706         9.13086        0.740417 
        5.68633         9.04801         0.73519 
        5.70203         8.98365        0.730024 
        5.71773         8.92782        0.724909 
        5.73344         8.86533         0.71984 
        5.74916         8.79545        0.714815 
        5.76486         8.72177        0.709845 
        5.78054         8.66221        0.704929 
        5.79626         8.59388        0.700046 
          5.812         8.54968        0.695205 
         5.8277         8.47756        0.690424 
        5.84339         8.43122        0.685687 
        5.85911         8.37213        0.680986 
        5.87484         8.29238         0.67633 
        5.89053         8.23493        0.671726 
        5.90623         8.17654        0.667163 
        5.92195         8.13388        0.662635 
        5.93767          8.0673        0.658151 
        5.95336         8.02093        0.653716 
        5.96905         7.98149        0.649324 
        5.98476         7.91638        0.644965 
        6.00048         7.84617        0.640646 
        6.01617         7.80461        0.636371 
        6.03185         7.74626        0.632141 
        6.04756         7.70367        0.627939 
        6.06331         7.64803        0.623766 
        6.07903         7.59103         0.61964 
        6.09473         7.55427        0.615555 
        6.11044         7.49518        0.611503 
        6.12616         7.44688        0.607489 
        6.14186         7.38991        0.603514 
        6.15755         7.34968        0.599575 
        6.17326         7.31036        0.595668 
        6.18898         7.23792        0.591794 
        6.20467          7.1956        0.587962 
        6.22036         7.14118        0.584164 
         6.2361         7.08438        0.580389 
         6.2518         7.04739        0.576653 
        6.26748         7.00422        0.572959 
        6.28319         6.97163        0.569286 
        6.29893         6.91853        0.565643 
        6.31463         6.86411        0.562038 
        6.33033         6.82703        0.558465 
        6.34604          6.7864        0.554921 
        6.36177         6.72795        0.551404 
        6.37747          6.6895        0.547925 
