# k  (h/Mpc)    Pcb(k)  (Mpc/h)^3    Pcb_linear(k) (Mpc/h)^3   ShotnoiseSubtracted = true
      0.0200456         8563.49         8721.82 
      0.0350414         6378.99         6552.62 
      0.0492313         4843.97         4881.12 
      0.0637834         4146.05         4077.17 
      0.0800726         3283.14         3235.84 
       0.096163         2333.45          2383.2 
       0.111083         1876.41         1929.86 
       0.126058         1725.02         1708.05 
       0.142273         1479.51         1436.61 
       0.158546         1231.87         1144.51 
        0.17375          1002.3         977.451 
       0.188953         960.213          884.08 
       0.204907         897.501         776.181 
       0.220756         760.451         659.143 
        0.23588         670.419         579.175 
         0.2514         589.251          527.17 
       0.267535         567.246         474.369 
       0.283568         514.418         418.462 
       0.299022         477.979         375.285 
       0.314451         445.232         343.928 
       0.330372          411.48         314.644 
       0.346141         372.167          285.35 
       0.361624         356.547         260.237 
       0.377134         333.675          240.08 
       0.392932         312.149         222.005 
       0.408854         299.429         204.478 
       0.424564         286.339         188.766 
       0.440253         273.356         175.343 
       0.455999         257.501         163.406 
       0.471626         238.489         152.339 
        0.48727         232.325          142.13 
       0.502856          223.71         133.028 
       0.518488          219.93         124.824 
       0.534347         208.186          117.14 
       0.550082         194.389          110.08 
       0.565732         189.974         103.661 
       0.581496         181.018         97.7617 
       0.597222         175.877         92.3265 
       0.612804          168.57         87.3268 
       0.628434         164.053         82.6792 
       0.644267         158.442         78.3342 
       0.660051         156.088         74.3205 
       0.675724         152.055         70.6115 
       0.691403         147.398          67.153 
       0.707174         141.171         63.9071 
       0.722871          139.68         60.8889 
        0.73838           136.8         58.0981 
       0.754018          131.34         55.4614 
       0.769845         128.496         52.9598 
        0.78569         125.746         50.6104 
       0.801365         122.272          48.427 
       0.817031          117.99         46.3745 
       0.832809         116.305         44.4285 
       0.848511         113.008         42.6035 
       0.864097         110.075         40.8941 
       0.879701         108.511         39.2774 
       0.895507          105.83         37.7295 
       0.911279         104.335         36.2687 
        0.92691         102.098         34.8977 
       0.942635         99.5576         33.5904 
       0.958396         99.0927         32.3476 
       0.974128         96.3646         31.1703 
       0.989692         93.8936         30.0635 
        1.00528         92.0733         29.0091 
        1.02113         90.9045          27.989 
        1.03692         87.8575          27.022 
        1.05264         87.6362         26.1052 
        1.06832         85.3125         25.2327 
        1.08405         84.1791         24.3979 
        1.09979         83.5255         23.6005 
        1.11537         80.6106         22.8468 
        1.13105         80.7619         22.1216 
        1.14679         79.3643         21.4253 
        1.16256         78.0754         20.7577 
        1.17828         75.8693         20.1209 
        1.19395         75.4064          19.513 
         1.2097         73.2966         18.9273 
        1.22537         73.4687         18.3685 
          1.241         71.5565          17.834 
        1.25666         70.1991         17.3196 
        1.27241           69.47         16.8231 
        1.28819         68.2047         16.3453 
        1.30392         67.1826         15.8876 
        1.31957          66.405         15.4495 
        1.33529         65.3222         15.0263 
        1.35108         64.9078         14.6174 
        1.36674         63.9384         14.2267 
         1.3824         62.5512         13.8506 
        1.39811         62.0699          13.487 
        1.41389         61.0287         13.1351 
        1.42964         60.2874         12.7963 
        1.44531         59.2566         12.4712 
        1.46101         58.2387         12.1568 
        1.47667         58.0981         11.8541 
        1.49229         57.1848         11.5626 
        1.50793         56.4344         11.2806 
        1.52367         55.5598         11.0062 
        1.53953         54.9861         10.7392 
        1.55526         54.2674         10.4831 
        1.57092         53.9229         10.2365 
        1.58662         53.0536          9.9973 
        1.60235         52.4704         9.76526 
        1.61809         51.6276         9.54049 
        1.63369         50.7821         9.32482 
        1.64941         50.1872         9.11428 
        1.66519         49.4574         8.90951 
        1.68085         49.0233          8.7125 
        1.69652         48.3454          8.5214 
        1.71228         47.9913         8.33497 
        1.72806         47.5014         8.15398 
        1.74368         46.7425         7.98019 
        1.75933         46.2736         7.81113 
        1.77505         45.7516         7.64619 
        1.79081         45.1132         7.48574 
         1.8065          44.669         7.33058 
        1.82218         44.0821         7.17997 
        1.83797         43.5103         7.03257 
        1.85367         42.8769         6.89013 
        1.86928         42.5719         6.75249 
        1.88497         42.1443         6.61788 
        1.90073         41.7145         6.48644 
        1.91647         41.2112          6.3587 
        1.93218         40.6688         6.23468 
        1.94787         40.2905         6.11415 
        1.96363         39.7988         5.99634 
        1.97935         39.3473         5.88188 
        1.99499         38.8322         5.77106 
        2.01064         38.5555         5.66294 
         2.0264         37.9255         5.55691 
        2.04216         37.4688         5.45366 
        2.05781         37.0396         5.35369 
        2.07353         36.6768         5.25587 
        2.08928         36.4538         5.16028 
        2.10499         35.9737         5.06734 
        2.12065          35.544         4.97696 
        2.13633         35.3836         4.88872 
        2.15211          34.762         4.80204 
        2.16785         34.1826         4.71772 
        2.18349         34.0606         4.63595 
        2.19916         33.7553         4.55595 
        2.21489          33.188         4.47758 
        2.23063         32.9689           4.401 
         2.2463         32.5478         4.32655 
        2.26194         32.1989         4.25402 
        2.27765         31.8784         4.18278 
        2.29341         31.5482         4.11299 
        2.30914         31.2826         4.04493 
        2.32486         30.7934         3.97846 
        2.34061         30.6158         3.91337 
        2.35635         30.2745          3.8498 
        2.37203         30.0017         3.78786 
        2.38768         29.6096         3.72742 
        2.40339         29.4628         3.66807 
        2.41914         29.1455         3.60988 
        2.43483         28.6582         3.55316 
         2.4505         28.4342         3.49776 
        2.46622           28.22         3.44335 
        2.48195         27.9049         3.39009 
        2.49759         27.6087         3.33825 
        2.51328         27.2706         3.28735 
        2.52906         27.1554          3.2372 
        2.54479         26.7551         3.18828 
        2.56049         26.4436         3.14046 
        2.57618         26.1398         3.09367 
        2.59189         26.0313         3.04777 
        2.60758         25.7948         3.00286 
        2.62325         25.3739         2.95892 
        2.63898          25.312         2.91571 
        2.65468         24.8958         2.87344 
        2.67044          24.711         2.83184 
        2.68618         24.4152         2.79116 
        2.70184          24.207         2.75144 
        2.71755         24.0419         2.71239 
        2.73329         23.7535         2.67404 
        2.74897          23.455         2.63656 
        2.76462          23.323         2.59988 
        2.78034         23.1323         2.56375 
        2.79607         22.8607         2.52827 
        2.81179         22.6643          2.4935 
        2.82749         22.4331         2.45942 
        2.84321         22.1768         2.42594 
        2.85893          21.935          2.3931 
        2.87462         21.7302         2.36092 
        2.89033         21.5986          2.3293 
        2.90605         21.4135         2.29824 
        2.92176         21.1738         2.26776 
        2.93747         21.0156         2.23784 
        2.95318         20.7139         2.20846 
        2.96891         20.5959          2.1796 
        2.98456         20.3026         2.15137 
        3.00023         20.1742         2.12361 
        3.01596         19.9756         2.09625 
        3.03164          19.766         2.06945 
        3.04738         19.6003         2.04304 
         3.0631         19.4212         2.01711 
        3.07883         19.2566         1.99162 
        3.09456           19.07         1.96657 
        3.11026          18.895           1.942 
        3.12596         18.7073         1.91785 
        3.14163         18.5842         1.89416 
        3.15734         18.3514         1.87082 
        3.17308         18.2079         1.84782 
        3.18879         18.0266         1.82526 
        3.20447         17.8704         1.80312 
         3.2202         17.6821         1.78127 
         3.2359         17.5083         1.75983 
        3.25157         17.4419         1.73879 
        3.26729         17.3034         1.71803 
        3.28304         17.0859         1.69757 
        3.29877         16.8172         1.67747 
        3.31446         16.7598         1.65773 
        3.33014         16.5877         1.63834 
        3.34585         16.3695         1.61922 
        3.36158         16.3018         1.60038 
        3.37727         16.1178          1.5819 
        3.39294         15.9118         1.56373 
        3.40867         15.8171         1.54578 
        3.42439         15.6626         1.52811 
        3.44008         15.5224         1.51076 
        3.45578          15.403         1.49367 
        3.47153         15.2802          1.4768 
        3.48724         15.1236         1.46023 
        3.50292         14.9892         1.44394 
        3.51859         14.8751         1.42792 
        3.53431         14.7368         1.41208 
        3.55007         14.6022         1.39645 
        3.56577         14.4906         1.38112 
        3.58146         14.3585         1.36602 
        3.59719         14.1944         1.35111 
        3.61292         14.1022         1.33644 
        3.62859         13.9243         1.32203 
        3.64429          13.813         1.30781 
        3.66003         13.7122         1.29375 
        3.67578         13.6291         1.27991 
        3.69146         13.4819         1.26632 
        3.70712          13.341         1.25296 
        3.72284          13.277         1.23973 
        3.73853         13.1344         1.22672 
        3.75422         12.9951          1.2139 
        3.76993         12.9131         1.20124 
        3.78564         12.7582         1.18877 
        3.80137         12.6597         1.17646 
        3.81707         12.5499         1.16435 
        3.83279         12.4012         1.15239 
        3.84853         12.3515         1.14059 
        3.86424         12.1841         1.12897 
        3.87992         12.1303         1.11754 
        3.89561         12.0406         1.10626 
        3.91134         11.9433         1.09511 
        3.92704         11.7755         1.08414 
        3.94273         11.7131         1.07332 
        3.95845         11.6295         1.06263 
        3.97418         11.5521         1.05208 
        3.98988         11.4269         1.04169 
        4.00554         11.3235         1.03147 
        4.02125         11.1784         1.02136 
        4.03698         11.1556         1.01136 
        4.05268         11.0339         1.00153 
        4.06839          10.952        0.991814 
         4.0841         10.8497        0.982233 
        4.09983         10.7518        0.972765 
        4.11555         10.6544        0.963425 
        4.13124          10.567        0.954234 
        4.14693         10.4934        0.945155 
        4.16266         10.4122        0.936173 
        4.17839          10.303        0.927313 
        4.19408          10.229        0.918587 
        4.20977         10.1328         0.90997 
        4.22551         10.0794        0.901443 
        4.24123         9.98209        0.893034 
        4.25691         9.89088        0.884756 
        4.27259         9.80637        0.876579 
        4.28831         9.73514        0.868489 
        4.30404         9.64655        0.860494 
        4.31974         9.58182        0.852617 
        4.33543         9.48754        0.844843 
        4.35116         9.41157        0.837147 
        4.36688         9.32145         0.82955 
        4.38255         9.26926        0.822075 
        4.39825         9.20624        0.814676 
        4.41398         9.10056        0.807354 
         4.4297         9.03931        0.800129 
        4.44541         8.94748        0.792994 
        4.46111         8.90218        0.785952 
        4.47683         8.84456         0.77899 
        4.49251         8.76063        0.772126 
        4.50819         8.68329        0.765347 
         4.5239         8.62339        0.758639 
        4.53962         8.57905        0.752004 
        4.55535         8.48131        0.745444 
        4.57106         8.41826        0.738973 
        4.58678          8.3318        0.732576 
         4.6025          8.2605        0.726254 
        4.61821         8.20664        0.720008 
        4.63391         8.13611        0.713843 
         4.6496         8.08956        0.707752 
        4.66532         8.01152        0.701724 
        4.68103          7.9579        0.695768 
        4.69673         7.88883        0.689887 
        4.71241         7.83618         0.68408 
        4.72811         7.76228         0.67833 
        4.74384         7.72572        0.672639 
        4.75955         7.66062        0.667021 
        4.77525         7.59619        0.661471 
        4.79096         7.54513        0.655978 
        4.80669         7.48991        0.650544 
         4.8224         7.43625        0.645177 
        4.83809         7.36697        0.639877 
        4.85379         7.29296        0.634633 
         4.8695         7.25588        0.629444 
        4.88521         7.19751        0.624315 
        4.90093         7.15429        0.619242 
        4.91663         7.07102        0.614231 
        4.93234          7.0315        0.609269 
        4.94807         6.96452        0.604359 
        4.96377         6.92941        0.599512 
        4.97943          6.8798        0.594728 
        4.99514         6.82337        0.589985 
        5.01086         6.76709        0.585289 
        5.02654         6.70823        0.580656 
        5.04227         6.67554         0.57606 
          5.058         6.63537        0.571512 
        5.07371          6.5809        0.567021 
        5.08942         6.51459        0.562579 
        5.10513         6.46683        0.558183 
        5.12084         6.42395        0.553832 
        5.13656          6.3815        0.549528 
        5.15225         6.32479        0.545277 
        5.16796         6.28849        0.541065 
        5.18369         6.23638        0.536893 
         5.1994         6.18685        0.532773 
        5.21509         6.13743        0.528699 
        5.23079         6.09888        0.524663 
        5.24649          6.0626        0.520673 
        5.26217         6.00961        0.516727 
        5.27788         5.96886        0.512816 
        5.29359         5.92928        0.508945 
        5.30933         5.88861        0.505108 
        5.32504         5.84933        0.501317 
        5.34073         5.79606         0.49757 
        5.35646          5.7516        0.493853 
        5.37218         5.71498        0.490173 
        5.38789         5.69918        0.486537 
        5.40357         5.63938        0.482942 
        5.41929         5.60363        0.479375 
        5.43502           5.563        0.475843 
         5.4507         5.52645        0.472356 
        5.46639         5.48129        0.468903 
        5.48212         5.44172        0.465477 
        5.49786         5.41908        0.462081 
        5.51353         5.36773        0.458735 
        5.52921         5.33563        0.455419 
        5.54495         5.29462        0.452126 
        5.56066         5.26168         0.44887 
        5.57637         5.22262        0.445646 
        5.59207         5.18744        0.442456 
        5.60778         5.14873        0.439296 
        5.62346          5.1207        0.436172 
        5.63916         5.08097        0.433075 
        5.65487         5.04659        0.430006 
         5.6706         5.02007        0.426964 
        5.68633         4.97942         0.42395 
        5.70203          4.9399        0.420971 
        5.71773         4.92486        0.418021 
        5.73344         4.87677        0.415098 
        5.74916         4.84142        0.412201 
        5.76486         4.81726        0.409334 
        5.78054         4.78586          0.4065 
        5.79626         4.74793        0.403684 
          5.812         4.71264        0.400892 
         5.8277         4.67934        0.398135 
        5.84339         4.65655        0.395404 
        5.85911         4.62333        0.392693 
        5.87484         4.59347        0.390008 
        5.89053         4.56486        0.387353 
        5.90623         4.53973        0.384722 
        5.92195          4.4979        0.382111 
        5.93767         4.46373        0.379525 
        5.95336         4.44803        0.376968 
        5.96905         4.41903        0.374435 
        5.98476         4.39658        0.371921 
        6.00048         4.35748         0.36943 
        6.01617          4.3365        0.366966 
        6.03185         4.29969        0.364526 
        6.04756         4.27803        0.362103 
        6.06331         4.24982        0.359697 
        6.07903           4.217        0.357318 
        6.09473         4.18897        0.354962 
        6.11044         4.15701        0.352626 
        6.12616         4.14125         0.35031 
        6.14186         4.11017        0.348018 
        6.15755         4.09007        0.345747 
        6.17326         4.06609        0.343494 
        6.18898         4.03468         0.34126 
        6.20467         4.01028         0.33905 
        6.22036         3.98922         0.33686 
         6.2361         3.95866        0.334683 
         6.2518         3.93626        0.332529 
        6.26748          3.9106        0.330399 
        6.28319         3.88787        0.328281 
        6.29893          3.8653         0.32618 
        6.31463         3.84203        0.324101 
        6.33033         3.81387        0.322041 
        6.34604         3.79414        0.319997 
        6.36177         3.76872        0.317969 
        6.37747         3.74909        0.315963 
