# k  (h/Mpc)    Pcb(k)  (Mpc/h)^3    Pcb_linear(k) (Mpc/h)^3   ShotnoiseSubtracted = true
      0.0200456         919.511         931.314 
      0.0350414         707.035         699.687 
      0.0492313         522.597         521.205 
      0.0637834         431.315         435.359 
      0.0800726          341.63         345.522 
       0.096163         258.017         254.477 
       0.111083         210.013          206.07 
       0.126058         181.341         182.385 
       0.142273         152.361         153.401 
       0.158546          123.11          122.21 
        0.17375         106.181         104.372 
       0.188953         95.2985         94.4018 
       0.204907         81.7354         82.8805 
       0.220756         71.1902         70.3831 
        0.23588          62.606         61.8442 
         0.2514         56.9188         56.2911 
       0.267535         51.7613          50.653 
       0.283568         45.5923         44.6833 
       0.299022         41.2397         40.0728 
       0.314451         38.5301         36.7245 
       0.330372         34.7374         33.5976 
       0.346141         31.6089         30.4696 
       0.361624         28.8448          27.788 
       0.377134         26.4807         25.6357 
       0.392932         25.3377         23.7056 
       0.408854         22.8932         21.8341 
       0.424564         21.7288         20.1564 
       0.440253         19.8914         18.7231 
       0.455999         18.2451         17.4484 
       0.471626         17.1111         16.2667 
        0.48727         16.4456         15.1766 
       0.502856          15.411         14.2048 
       0.518488         14.2266         13.3287 
       0.534347         13.3146         12.5082 
       0.550082         12.7646         11.7543 
       0.565732         12.2041         11.0689 
       0.581496         11.4723          10.439 
       0.597222          10.804          9.8586 
       0.612804         10.1992         9.32473 
       0.628434         9.84168         8.82847 
       0.644267          9.3527         8.36451 
       0.660051         8.86152         7.93592 
       0.675724         8.37295         7.53988 
       0.691403         8.07503         7.17058 
       0.707174         7.68916         6.82398 
       0.722871         7.49567          6.5017 
        0.73838         7.00284          6.2037 
       0.754018         6.69207         5.92215 
       0.769845         6.36832         5.65503 
        0.78569         6.20589         5.40417 
       0.801365          5.9326         5.17103 
       0.817031         5.73392         4.95186 
       0.832809         5.44493         4.74406 
       0.848511         5.28854         4.54919 
       0.864097         5.09709         4.36667 
       0.879701         4.95936         4.19403 
       0.895507         4.74262         4.02875 
       0.911279         4.57346         3.87276 
        0.92691          4.4437         3.72637 
       0.942635         4.25038         3.58677 
       0.958396           4.112         3.45407 
       0.974128         4.00325         3.32836 
       0.989692         3.82904         3.21018 
        1.00528         3.73909         3.09759 
        1.02113         3.63417         2.98866 
        1.03692         3.53386          2.8854 
        1.05264         3.38653         2.78751 
        1.06832         3.30124         2.69434 
        1.08405          3.1992          2.6052 
        1.09979         3.12282         2.52005 
        1.11537         3.02588         2.43957 
        1.13105         2.92225         2.36214 
        1.14679         2.84896         2.28779 
        1.16256         2.75789          2.2165 
        1.17828         2.71991          2.1485 
        1.19395         2.61844         2.08359 
         1.2097         2.54508         2.02105 
        1.22537         2.46297         1.96138 
          1.241         2.41456         1.90431 
        1.25666          2.3758         1.84938 
        1.27241         2.31469         1.79637 
        1.28819         2.22669         1.74535 
        1.30392         2.17496         1.69647 
        1.31957         2.14037         1.64969 
        1.33529          2.0558         1.60451 
        1.35108         2.01832         1.56084 
        1.36674          1.9653         1.51912 
         1.3824         1.94093         1.47897 
        1.39811         1.88574         1.44014 
        1.41389         1.83897         1.40256 
        1.42964         1.79764         1.36639 
        1.44531         1.76628         1.33167 
        1.46101         1.71762          1.2981 
        1.47667         1.68816         1.26578 
        1.49229         1.63087         1.23465 
        1.50793         1.59457         1.20454 
        1.52367         1.56295         1.17524 
        1.53953         1.52583         1.14673 
        1.55526         1.51789         1.11939 
        1.57092         1.48445         1.09305 
        1.58662         1.46452         1.06751 
        1.60235         1.41391         1.04273 
        1.61809         1.39047         1.01873 
        1.63369         1.35428        0.995702 
        1.64941         1.33467        0.973221 
        1.66519         1.31464        0.951355 
        1.68085         1.28085        0.930319 
        1.69652         1.25702        0.909913 
        1.71228         1.22963        0.890006 
        1.72806         1.20934         0.87068 
        1.74368         1.18934        0.852123 
        1.75933         1.16977        0.834071 
        1.77505         1.14982        0.816459 
        1.79081         1.11686        0.799325 
         1.8065         1.10754        0.782758 
        1.82218         1.07959        0.766675 
        1.83797         1.05885        0.750936 
        1.85367         1.04524        0.735726 
        1.86928         1.02658         0.72103 
        1.88497         1.00334        0.706655 
        1.90073        0.995476        0.692621 
        1.91647        0.968621         0.67898 
        1.93218        0.955741        0.665737 
        1.94787        0.940527        0.652867 
        1.96363        0.927631        0.640287 
        1.97935        0.908725        0.628065 
        1.99499        0.895436        0.616232 
        2.01064        0.881051        0.604687 
         2.0264        0.860114        0.593366 
        2.04216        0.852645        0.582341 
        2.05781        0.838082        0.571665 
        2.07353        0.825747         0.56122 
        2.08928        0.812253        0.551014 
        2.10499        0.798456        0.541089 
        2.12065        0.784888        0.531439 
        2.13633        0.774998        0.522016 
        2.15211        0.758694        0.512761 
        2.16785        0.751598        0.503757 
        2.18349        0.739062        0.495026 
        2.19916        0.729231        0.486483 
        2.21489        0.716874        0.478114 
        2.23063        0.703408        0.469937 
         2.2463        0.695407        0.461988 
        2.26194        0.687412        0.454243 
        2.27765        0.675735        0.446636 
        2.29341        0.666337        0.439184 
        2.30914        0.653277        0.431917 
        2.32486        0.646721        0.424819 
        2.34061        0.636056        0.417869 
        2.35635        0.627931        0.411081 
        2.37203        0.621014        0.404467 
        2.38768        0.612296        0.398013 
        2.40339        0.604017        0.391676 
        2.41914        0.596105        0.385462 
        2.43483         0.58704        0.379406 
         2.4505        0.579299         0.37349 
        2.46622        0.571964         0.36768 
        2.48195        0.562479        0.361993 
        2.49759        0.558734        0.356457 
        2.51328        0.547389        0.351023 
        2.52906        0.541082        0.345667 
        2.54479        0.533165        0.340443 
        2.56049        0.527418        0.335338 
        2.57618         0.52165        0.330342 
        2.59189        0.513371         0.32544 
        2.60758        0.509443        0.320645 
        2.62325        0.501285        0.315953 
        2.63898        0.497308        0.311338 
        2.65468        0.487807        0.306826 
        2.67044        0.482864        0.302383 
        2.68618        0.478065        0.298039 
        2.70184        0.470596        0.293798 
        2.71755         0.46464        0.289629 
        2.73329        0.462448        0.285534 
        2.74897        0.453732        0.281532 
        2.76462        0.448715        0.277615 
        2.78034        0.442755        0.273757 
        2.79607        0.439512        0.269968 
        2.81179        0.432318        0.266255 
        2.82749        0.428221        0.262616 
        2.84321        0.422959        0.259042 
        2.85893        0.417841        0.255535 
        2.87462        0.412265        0.252098 
        2.89033        0.410383        0.248722 
        2.90605        0.404894        0.245405 
        2.92176        0.401644         0.24215 
        2.93747        0.395215        0.238956 
        2.95318         0.39136        0.235819 
        2.96891        0.388076        0.232737 
        2.98456        0.382704        0.229723 
        3.00023        0.378717        0.226759 
        3.01596          0.3748        0.223837 
        3.03164        0.370247        0.220976 
        3.04738        0.366992        0.218156 
         3.0631        0.363098        0.215386 
        3.07883        0.359573        0.212664 
        3.09456        0.356253         0.20999 
        3.11026         0.35159        0.207366 
        3.12596          0.3473        0.204787 
        3.14163        0.345848        0.202258 
        3.15734        0.341611        0.199766 
        3.17308        0.338305        0.197309 
        3.18879        0.334808        0.194901 
        3.20447         0.33055        0.192537 
         3.2202        0.328424        0.190204 
         3.2359        0.324597        0.187914 
        3.25157        0.319488        0.185667 
        3.26729        0.319243        0.183451 
        3.28304        0.315337        0.181266 
        3.29877        0.312234        0.179119 
        3.31446         0.31034        0.177012 
        3.33014        0.306159        0.174941 
        3.34585        0.303344          0.1729 
        3.36158        0.301021        0.170888 
        3.37727        0.298741        0.168915 
        3.39294        0.296326        0.166974 
        3.40867        0.292042        0.165057 
        3.42439        0.290598        0.163172 
        3.44008        0.287859        0.161319 
        3.45578        0.284584        0.159494 
        3.47153        0.283013        0.157693 
        3.48724         0.28049        0.155923 
        3.50292        0.277955        0.154184 
        3.51859        0.275644        0.152473 
        3.53431        0.273129        0.150782 
        3.55007        0.270766        0.149113 
        3.56577        0.268887        0.147475 
        3.58146         0.26635        0.145863 
        3.59719        0.264276        0.144272 
        3.61292        0.262665        0.142704 
        3.62859         0.26002        0.141166 
        3.64429        0.257618        0.139648 
        3.66003        0.255568        0.138147 
        3.67578        0.253924        0.136669 
        3.69146        0.250964        0.135218 
        3.70712        0.249932         0.13379 
        3.72284        0.248919        0.132378 
        3.73853         0.24676        0.130989 
        3.75422        0.244079        0.129619 
        3.76993        0.242224        0.128268 
        3.78564        0.240065        0.126937 
        3.80137        0.238251        0.125622 
        3.81707        0.236744        0.124329 
        3.83279          0.2349        0.123052 
        3.84853        0.233276        0.121792 
        3.86424        0.231556        0.120552 
        3.87992        0.229625        0.119331 
        3.89561        0.228207        0.118126 
        3.91134        0.226396        0.116936 
        3.92704        0.224514        0.115764 
        3.94273        0.223405        0.114609 
        3.95845        0.221179        0.113467 
        3.97418         0.21989        0.112341 
        3.98988        0.217555        0.111232 
        4.00554        0.215897         0.11014 
        4.02125         0.21366         0.10906 
        4.03698        0.211404        0.107993 
        4.05268        0.209811        0.106943 
        4.06839        0.207518        0.105906 
         4.0841        0.205479        0.104883 
        4.09983        0.203467        0.103872 
        4.11555        0.201599        0.102874 
        4.13124        0.199695        0.101893 
        4.14693        0.197579        0.100923 
        4.16266        0.195381       0.0999643 
        4.17839        0.193852       0.0990182 
        4.19408        0.191684       0.0980865 
        4.20977        0.190696       0.0971664 
        4.22551        0.189083       0.0962559 
        4.24123         0.18665        0.095358 
        4.25691        0.185625        0.094474 
        4.27259        0.183907       0.0936009 
        4.28831        0.183096       0.0927371 
        4.30404         0.18093       0.0918834 
        4.31974        0.179962       0.0910422 
        4.33543         0.17851       0.0902121 
        4.35116        0.177411       0.0893903 
        4.36688        0.176256       0.0885791 
        4.38255        0.174697        0.087781 
        4.39825        0.174224       0.0869909 
        4.41398        0.172719       0.0862091 
         4.4297        0.172131       0.0854376 
        4.44541        0.170571       0.0846757 
        4.46111        0.169987       0.0839237 
        4.47683        0.169106       0.0831803 
        4.49251        0.167729       0.0824474 
        4.50819        0.167415       0.0817235 
         4.5239         0.16658       0.0810073 
        4.53962        0.165661       0.0802988 
        4.55535         0.16534       0.0795984 
        4.57106        0.164596       0.0789073 
        4.58678        0.163499       0.0782243 
         4.6025        0.163551       0.0775492 
        4.61821         0.16303       0.0768823 
        4.63391        0.162475        0.076224 
         4.6496        0.161689       0.0755736 
        4.66532        0.161504       0.0749299 
        4.68103        0.161104        0.074294 
        4.69673        0.160826        0.073666 
        4.71241        0.160602       0.0730459 
        4.72811        0.160571       0.0724319 
        4.74384        0.160222       0.0718242 
        4.75955        0.159831       0.0712244 
        4.77525        0.160068       0.0706317 
        4.79096        0.159905       0.0700451 
        4.80669        0.159287       0.0694649 
         4.8224        0.159737       0.0688919 
        4.83809        0.159595       0.0683259 
        4.85379        0.159674        0.067766 
         4.8695        0.159849       0.0672119 
        4.88521        0.159819       0.0666642 
        4.90093        0.160589       0.0661226 
        4.91663        0.160041       0.0655874 
        4.93234        0.160394       0.0650576 
        4.94807        0.160644       0.0645333 
        4.96377        0.161435       0.0640157 
        4.97943        0.162117       0.0635049 
        4.99514        0.161403       0.0629984 
        5.01086        0.162269        0.062497 
        5.02654        0.162812       0.0620024 
        5.04227        0.163487       0.0615116 
          5.058        0.164428       0.0610259 
        5.07371        0.164433       0.0605464 
        5.08942        0.165603        0.060072 
        5.10513        0.165928       0.0596026 
        5.12084        0.166602        0.059138 
        5.13656        0.167262       0.0586785 
        5.15225        0.168153       0.0582246 
        5.16796        0.169548       0.0577748 
        5.18369        0.170096       0.0573293 
         5.1994        0.170982       0.0568893 
        5.21509        0.171816       0.0564544 
        5.23079        0.172594       0.0560234 
        5.24649        0.173689       0.0555973 
        5.26217        0.175218        0.055176 
        5.27788        0.175748       0.0547584 
        5.29359        0.177095        0.054345 
        5.30933        0.178253       0.0539353 
        5.32504        0.179807       0.0535306 
        5.34073        0.180703       0.0531304 
        5.35646        0.182129       0.0527335 
        5.37218        0.184327       0.0523406 
        5.38789        0.184308       0.0519523 
        5.40357         0.18617       0.0515684 
        5.41929        0.187096       0.0511875 
        5.43502        0.189734       0.0508105 
         5.4507        0.191005       0.0504381 
        5.46639        0.192323       0.0500694 
        5.48212         0.19385       0.0497035 
        5.49786        0.195593       0.0493409 
        5.51353        0.198691       0.0489836 
        5.52921        0.198788       0.0486296 
        5.54495        0.200852       0.0482779 
        5.56066         0.20342       0.0479302 
        5.57637        0.204757       0.0475859 
        5.59207        0.206519       0.0472453 
        5.60778        0.209085        0.046908 
        5.62346        0.210998       0.0465743 
        5.63916        0.212501       0.0462436 
        5.65487        0.214902        0.045916 
         5.6706        0.216103       0.0455911 
        5.68633        0.219272       0.0452693 
        5.70203        0.221884       0.0449512 
        5.71773        0.224041       0.0446362 
        5.73344        0.226399       0.0443241 
        5.74916         0.22765       0.0440147 
        5.76486        0.231024       0.0437086 
        5.78054        0.232232        0.043406 
        5.79626        0.234907       0.0431053 
          5.812        0.238017       0.0428072 
         5.8277        0.239746       0.0425128 
        5.84339        0.242589       0.0422211 
        5.85911        0.245846       0.0419317 
        5.87484        0.247697       0.0416449 
        5.89053        0.250288       0.0413615 
        5.90623        0.253187       0.0410805 
        5.92195        0.255497       0.0408017 
        5.93767        0.257772       0.0405256 
        5.95336        0.260524       0.0402525 
        5.96905        0.263891       0.0399821 
        5.98476        0.265398       0.0397137 
        6.00048        0.268826       0.0394477 
        6.01617        0.272454       0.0391845 
        6.03185        0.275084        0.038924 
        6.04756        0.276781       0.0386653 
        6.06331        0.279856       0.0384084 
        6.07903        0.284631       0.0381543 
        6.09473         0.28619       0.0379028 
        6.11044        0.289298       0.0376533 
        6.12616        0.291705       0.0374061 
        6.14186        0.295178       0.0371613 
        6.15755        0.298457       0.0369188 
        6.17326          0.3011       0.0366782 
        6.18898         0.30354       0.0364397 
        6.20467        0.305084       0.0362037 
        6.22036        0.310468       0.0359698 
         6.2361        0.310924       0.0357374 
         6.2518        0.314799       0.0355074 
        6.26748        0.317196       0.0352799 
        6.28319        0.321838       0.0350538 
        6.29893         0.32475       0.0348294 
        6.31463        0.326559       0.0346074 
        6.33033        0.331264       0.0343875 
        6.34604        0.334091       0.0341692 
        6.36177        0.335545       0.0339527 
        6.37747        0.338506       0.0337384 
