# k  (h/Mpc)    Pcb(k)  (Mpc/h)^3    Pcb_linear(k) (Mpc/h)^3   ShotnoiseSubtracted = true
      0.0200456         14062.2           14284 
      0.0350414         11009.2         10731.4 
      0.0492313         7873.02         7993.95 
      0.0637834            6392         6677.29 
      0.0800726         5031.44         5299.43 
       0.096163         4017.96         3903.02 
       0.111083         3312.97         3160.59 
       0.126058         2750.18         2797.32 
       0.142273         2373.39         2352.78 
       0.158546          1961.7         1874.39 
        0.17375         1740.51          1600.8 
       0.188953         1623.17         1447.88 
       0.204907         1387.94         1271.17 
       0.220756         1248.85          1079.5 
        0.23588         1116.35         948.531 
         0.2514         1003.53         863.361 
       0.267535         972.975         776.887 
       0.283568         855.545         685.327 
       0.299022         818.304         614.614 
       0.314451         837.194          563.26 
       0.330372         723.569         515.301 
       0.346141         669.139         467.326 
       0.361624         641.315         426.197 
       0.377134         606.154         393.186 
       0.392932         585.826         363.583 
       0.408854         557.835         334.879 
       0.424564         541.434         309.147 
       0.440253          493.54         287.164 
       0.455999         473.155         267.614 
       0.471626         478.953          249.49 
        0.48727          453.45          232.77 
       0.502856         420.293         217.864 
       0.518488         419.689         204.427 
       0.534347          391.69         191.844 
       0.550082         378.134          180.28 
       0.565732         375.719         169.768 
       0.581496         362.477         160.107 
       0.597222          351.96         151.206 
       0.612804         343.639         143.017 
       0.628434         329.564         135.406 
       0.644267         316.495          128.29 
       0.660051         311.708         121.717 
       0.675724         307.726         115.642 
       0.691403         299.267         109.978 
       0.707174         288.139         104.662 
       0.722871          283.72         99.7194 
        0.73838         280.818         95.1489 
       0.754018         268.409         90.8307 
       0.769845         267.019         86.7337 
        0.78569          260.97          82.886 
       0.801365         254.052         79.3103 
       0.817031         248.714         75.9488 
       0.832809         244.942         72.7618 
       0.848511         238.486         69.7729 
       0.864097         232.897         66.9734 
       0.879701         231.512         64.3257 
       0.895507         225.563         61.7906 
       0.911279         219.041         59.3982 
        0.92691         216.789         57.1529 
       0.942635         214.937         55.0119 
       0.958396         209.432         52.9766 
       0.974128         205.401         51.0485 
       0.989692         198.941         49.2359 
        1.00528         197.958         47.5091 
        1.02113         194.448         45.8384 
        1.03692         190.305         44.2546 
        1.05264         187.504         42.7533 
        1.06832         186.368         41.3243 
        1.08405         181.139          39.957 
        1.09979         180.219         38.6511 
        1.11537         176.039         37.4168 
        1.13105         173.408         36.2292 
        1.14679         171.208         35.0888 
        1.16256          168.75         33.9955 
        1.17828         166.439         32.9525 
        1.19395         161.961          31.957 
         1.2097         161.288         30.9977 
        1.22537         159.547         30.0826 
          1.241         156.173         29.2073 
        1.25666         153.332         28.3648 
        1.27241         149.828         27.5517 
        1.28819         148.528         26.7692 
        1.30392         145.966         26.0195 
        1.31957         143.026          25.302 
        1.33529         141.639          24.609 
        1.35108         139.474         23.9393 
        1.36674         137.235         23.2994 
         1.3824         136.483         22.6836 
        1.39811         132.821          22.088 
        1.41389         131.615         21.5116 
        1.42964         129.195         20.9569 
        1.44531         127.826         20.4245 
        1.46101          125.28         19.9095 
        1.47667         124.864         19.4138 
        1.49229         122.918         18.9364 
        1.50793         120.602         18.4746 
        1.52367         119.114         18.0252 
        1.53953         117.118         17.5879 
        1.55526         116.304         17.1685 
        1.57092         114.662         16.7647 
        1.58662         112.754         16.3728 
        1.60235         110.898         15.9928 
        1.61809         110.021         15.6247 
        1.63369         108.133         15.2715 
        1.64941         107.742         14.9267 
        1.66519         105.476         14.5913 
        1.68085         103.969         14.2687 
        1.69652         102.648         13.9557 
        1.71228         101.762         13.6504 
        1.72806         100.133          13.354 
        1.74368         98.5309         13.0694 
        1.75933         97.7377         12.7925 
        1.77505         96.1049         12.5224 
        1.79081         94.9481         12.2596 
         1.8065         93.4685         12.0055 
        1.82218         92.3011         11.7588 
        1.83797         91.9085         11.5174 
        1.85367         89.8472         11.2841 
        1.86928         89.4497         11.0587 
        1.88497         88.1678         10.8383 
        1.90073         87.2728          10.623 
        1.91647         85.5387         10.4138 
        1.93218         84.4918         10.2107 
        1.94787         83.5974         10.0133 
        1.96363         82.6209         9.82037 
        1.97935         81.8831         9.63291 
        1.99499         80.8521         9.45142 
        2.01064         79.3527         9.27435 
         2.0264         78.4005         9.10071 
        2.04216         77.4026         8.93161 
        2.05781         76.6809         8.76788 
        2.07353         75.6611         8.60768 
        2.08928         74.6465         8.45114 
        2.10499         73.5709         8.29892 
        2.12065         73.2308         8.15091 
        2.13633         72.3322         8.00638 
        2.15211         71.0917         7.86444 
        2.16785         69.9844         7.72634 
        2.18349         69.1639         7.59242 
        2.19916         68.4908          7.4614 
        2.21489         67.4364         7.33305 
        2.23063         66.7448         7.20763 
         2.2463         66.1258         7.08571 
        2.26194         65.2906         6.96692 
        2.27765         64.3985         6.85025 
        2.29341         63.6377         6.73595 
        2.30914         62.8486          6.6245 
        2.32486         61.5929         6.51563 
        2.34061         61.3798         6.40904 
        2.35635         60.5278         6.30492 
        2.37203         59.7853         6.20349 
        2.38768          59.126         6.10449 
        2.40339         58.3515          6.0073 
        2.41914         57.6477           5.912 
        2.43483         57.1516         5.81911 
         2.4505         56.3743         5.72838 
        2.46622         55.8604         5.63926 
        2.48195         55.0672         5.55204 
        2.49759         54.4587         5.46714 
        2.51328          53.915         5.38378 
        2.52906         53.2101         5.30164 
        2.54479          52.558         5.22153 
        2.56049         51.8503         5.14322 
        2.57618         51.2606         5.06659 
        2.59189         50.9142         4.99141 
        2.60758         50.0794         4.91787 
        2.62325         49.6895         4.84591 
        2.63898         49.0206         4.77513 
        2.65468           48.63         4.70592 
        2.67044         48.0002         4.63778 
        2.68618         47.6075         4.57116 
        2.70184         46.7859          4.5061 
        2.71755         46.3889         4.44216 
        2.73329         45.9707         4.37935 
        2.74897         45.5386         4.31797 
        2.76462         44.9656          4.2579 
        2.78034         44.3672         4.19873 
        2.79607         43.7391         4.14062 
        2.81179         43.4328         4.08367 
        2.82749         42.9979         4.02786 
        2.84321         42.5902         3.97303 
        2.85893         42.0072         3.91925 
        2.87462         41.3645         3.86654 
        2.89033         41.0751         3.81476 
        2.90605         40.5331         3.76389 
        2.92176         40.1341         3.71397 
        2.93747         39.7499         3.66497 
        2.95318         39.4656         3.61686 
        2.96891         38.9158         3.56958 
        2.98456         38.5334         3.52336 
        3.00023         38.0813          3.4779 
        3.01596          37.757         3.43309 
        3.03164         37.2434          3.3892 
        3.04738         36.8475         3.34595 
         3.0631         36.6889         3.30347 
        3.07883         36.2151         3.26173 
        3.09456         35.7378         3.22071 
        3.11026          35.316         3.18046 
        3.12596         34.9024         3.14091 
        3.14163         34.6378         3.10212 
        3.15734         34.3569         3.06389 
        3.17308         34.0278         3.02622 
        3.18879         33.5293         2.98928 
        3.20447         33.1567         2.95302 
         3.2202         32.8357         2.91724 
         3.2359         32.5492         2.88212 
        3.25157         32.2259         2.84766 
        3.26729         31.9356         2.81366 
        3.28304         31.5814         2.78015 
        3.29877          31.132         2.74723 
        3.31446         30.9433         2.71492 
        3.33014         30.4999         2.68315 
        3.34585         30.2543         2.65184 
        3.36158         29.8946         2.62099 
        3.37727         29.6647         2.59072 
        3.39294         29.4007         2.56096 
        3.40867         29.1115         2.53156 
        3.42439         28.8148         2.50264 
        3.44008         28.5095         2.47422 
        3.45578         28.2624         2.44623 
        3.47153         28.0153          2.4186 
        3.48724         27.6584         2.39146 
        3.50292         27.4724         2.36479 
        3.51859         27.1194         2.33854 
        3.53431          26.805         2.31261 
        3.55007         26.5514         2.28701 
        3.56577         26.2759         2.26189 
        3.58146         26.0786         2.23717 
        3.59719         25.8268         2.21276 
        3.61292         25.6108         2.18872 
        3.62859         25.3262         2.16512 
        3.64429         25.0096         2.14183 
        3.66003         24.8278         2.11882 
        3.67578         24.5989         2.09614 
        3.69146           24.47         2.07389 
        3.70712         24.0977           2.052 
        3.72284         23.9134         2.03034 
        3.73853         23.6983         2.00904 
        3.75422         23.4414         1.98803 
        3.76993         23.1921          1.9673 
        3.78564         22.9964         1.94688 
        3.80137         22.7724         1.92672 
        3.81707         22.5914         1.90688 
        3.83279         22.3424         1.88731 
        3.84853         22.1854         1.86798 
        3.86424         21.8502         1.84895 
        3.87992         21.6993         1.83022 
        3.89561         21.5787         1.81175 
        3.91134         21.2943          1.7935 
        3.92704         21.0989         1.77552 
        3.94273         20.9397          1.7578 
        3.95845         20.7665         1.74029 
        3.97418         20.5418         1.72302 
        3.98988         20.3459         1.70601 
        4.00554         20.1611         1.68927 
        4.02125         19.9836          1.6727 
        4.03698         19.8105         1.65634 
        4.05268         19.6166         1.64023 
        4.06839         19.4704         1.62432 
         4.0841         19.3048         1.60863 
        4.09983         19.0675         1.59312 
        4.11555         18.9092         1.57783 
        4.13124         18.8099         1.56278 
        4.14693         18.6508         1.54791 
        4.16266         18.4337          1.5332 
        4.17839         18.3144         1.51869 
        4.19408         18.0661          1.5044 
        4.20977         17.9617         1.49028 
        4.22551         17.7671         1.47632 
        4.24123         17.6282         1.46255 
        4.25691         17.4688         1.44899 
        4.27259         17.3221          1.4356 
        4.28831         17.1637         1.42235 
        4.30404         17.0222         1.40925 
        4.31974         16.8983         1.39635 
        4.33543         16.7746         1.38362 
        4.35116         16.5948         1.37102 
        4.36688          16.456         1.35858 
        4.38255         16.2709         1.34633 
        4.39825         16.1571         1.33422 
        4.41398         15.9932         1.32223 
         4.4297         15.9073         1.31039 
        4.44541         15.7198         1.29871 
        4.46111         15.5683         1.28717 
        4.47683         15.4625         1.27577 
        4.49251         15.3934         1.26453 
        4.50819         15.2174         1.25343 
         4.5239          15.102         1.24244 
        4.53962         14.9993         1.23158 
        4.55535          14.852         1.22083 
        4.57106         14.7106         1.21024 
        4.58678          14.581         1.19976 
         4.6025         14.4251         1.18941 
        4.61821         14.3786         1.17918 
        4.63391         14.2179         1.16908 
         4.6496         14.0787         1.15911 
        4.66532         13.9941         1.14923 
        4.68103         13.8833         1.13948 
        4.69673         13.7661         1.12985 
        4.71241         13.6485         1.12034 
        4.72811         13.5334         1.11092 
        4.74384          13.418          1.1016 
        4.75955          13.341          1.0924 
        4.77525         13.1868         1.08331 
        4.79096         13.0817         1.07431 
        4.80669         13.0007         1.06541 
         4.8224         12.8814         1.05662 
        4.83809         12.7942         1.04794 
        4.85379         12.6807         1.03936 
         4.8695         12.5404         1.03086 
        4.88521         12.4648         1.02246 
        4.90093         12.3613         1.01415 
        4.91663         12.2825         1.00594 
        4.93234         12.1884        0.997816 
        4.94807         12.0839        0.989775 
        4.96377         11.9985        0.981837 
        4.97943         11.9296        0.974003 
        4.99514         11.8119        0.966234 
        5.01086         11.7031        0.958544 
        5.02654         11.6163        0.950957 
        5.04227         11.5196         0.94343 
          5.058         11.4265        0.935981 
        5.07371         11.3559        0.928627 
        5.08942         11.2483         0.92135 
        5.10513         11.1889        0.914151 
        5.12084         11.0681        0.907026 
        5.13656         11.0228        0.899978 
        5.15225         10.9086        0.893016 
        5.16796         10.8372        0.886117 
        5.18369         10.7364        0.879284 
         5.1994         10.6767        0.872536 
        5.21509         10.5746        0.865865 
        5.23079          10.498        0.859256 
        5.24649          10.427        0.852721 
        5.26217         10.3389        0.846258 
        5.27788         10.2664        0.839853 
        5.29359         10.1808        0.833513 
        5.30933         10.1152         0.82723 
        5.32504         10.0516        0.821021 
        5.34073         9.95957        0.814884 
        5.35646          9.9009        0.808796 
        5.37218          9.7996         0.80277 
        5.38789         9.73437        0.796815 
        5.40357         9.67967        0.790927 
        5.41929         9.62139        0.785085 
        5.43502         9.54907        0.779302 
         5.4507         9.45046        0.773591 
        5.46639         9.37681        0.767936 
        5.48212         9.31875        0.762324 
        5.49786         9.26949        0.756762 
        5.51353         9.18825        0.751283 
        5.52921         9.11138        0.745853 
        5.54495          9.0499         0.74046 
        5.56066         8.98938        0.735126 
        5.57637         8.92474        0.729846 
        5.59207         8.87634        0.724622 
        5.60778         8.78976        0.719448 
        5.62346         8.71589        0.714331 
        5.63916         8.67618        0.709259 
        5.65487         8.59982        0.704233 
         5.6706         8.52746        0.699251 
        5.68633         8.46587        0.694314 
        5.70203         8.42813        0.689436 
        5.71773         8.36549        0.684605 
        5.73344         8.30365        0.679818 
        5.74916         8.25147        0.675072 
        5.76486         8.18818        0.670378 
        5.78054         8.13497        0.665736 
        5.79626         8.04902        0.661125 
          5.812         7.99798        0.656553 
         5.8277         7.95459        0.652037 
        5.84339         7.88125        0.647564 
        5.85911         7.86014        0.643124 
        5.87484         7.78304        0.638727 
        5.89053         7.73321        0.634379 
        5.90623         7.68532         0.63007 
        5.92195         7.63195        0.625793 
        5.93767         7.55546        0.621559 
        5.95336         7.52954         0.61737 
        5.96905         7.46907        0.613222 
        5.98476         7.42608        0.609106 
        6.00048         7.35146        0.605026 
        6.01617         7.31506         0.60099 
        6.03185         7.27441        0.596995 
        6.04756         7.21862        0.593026 
        6.06331         7.18051        0.589086 
        6.07903         7.13186        0.585189 
        6.09473          7.0677        0.581331 
        6.11044         7.03212        0.577505 
        6.12616         6.98614        0.573713 
        6.14186         6.94357        0.569959 
        6.15755         6.88526        0.566239 
        6.17326         6.84338         0.56255 
        6.18898         6.79959        0.558891 
        6.20467         6.75163        0.555272 
        6.22036         6.70792        0.551685 
         6.2361          6.6589         0.54812 
         6.2518         6.62398        0.544592 
        6.26748          6.5709        0.541103 
        6.28319         6.53546        0.537635 
        6.29893         6.49327        0.534194 
        6.31463         6.44528        0.530789 
        6.33033         6.40574        0.527415 
        6.34604         6.35623        0.524068 
        6.36177         6.33095        0.520747 
        6.37747         6.26373        0.517461 
