# k  (h/Mpc)    Pcb(k)  (Mpc/h)^3    Pcb_linear(k) (Mpc/h)^3   ShotnoiseSubtracted = true
      0.0200456         1514.36         1533.82 
      0.0350414          1166.7         1152.34 
      0.0492313         860.055         858.394 
      0.0637834         708.382          717.01 
      0.0800726         560.904         569.055 
       0.096163         425.975         419.109 
       0.111083         347.329         339.386 
       0.126058         298.449         300.377 
       0.142273         250.978         252.643 
       0.158546           203.5         201.273 
        0.17375         175.974         171.894 
       0.188953         158.132         155.474 
       0.204907         135.019         136.499 
       0.220756         118.315         115.917 
        0.23588         104.153         101.854 
         0.2514         94.5916         92.7082 
       0.267535         86.6163         83.4225 
       0.283568         76.1908         73.5908 
       0.299022          69.362         65.9976 
       0.314451         65.1702         60.4831 
       0.330372         58.4616         55.3332 
       0.346141         53.3235         50.1817 
       0.361624         48.8548         45.7652 
       0.377134         44.7953         42.2205 
       0.392932         43.1421         39.0417 
       0.408854         39.1329         35.9594 
       0.424564         37.3052         33.1964 
       0.440253         34.0923         30.8358 
       0.455999         31.2053         28.7365 
       0.471626         29.3958         26.7904 
        0.48727         28.4396          24.995 
       0.502856         26.6127         23.3944 
       0.518488         24.6972         21.9515 
       0.534347         23.1813         20.6003 
       0.550082         22.2586         19.3586 
       0.565732         21.3401         18.2298 
       0.581496         20.0937         17.1924 
       0.597222         18.9308         16.2365 
       0.612804         17.9428         15.3573 
       0.628434          17.482           14.54 
       0.644267         16.5758         13.7759 
       0.660051         15.7086           13.07 
       0.675724         14.9041         12.4177 
       0.691403         14.4952         11.8095 
       0.707174         13.8407         11.2387 
       0.722871         13.4407         10.7079 
        0.73838         12.6327         10.2171 
       0.754018         12.0453         9.75344 
       0.769845         11.5856          9.3135 
        0.78569         11.2707         8.90034 
       0.801365         10.7883         8.51638 
       0.817031         10.4356         8.15542 
       0.832809         9.98533         7.81319 
       0.848511         9.70563         7.49225 
       0.864097         9.35468         7.19164 
       0.879701         9.15019         6.90733 
       0.895507         8.79795         6.63511 
       0.911279         8.44198         6.37821 
        0.92691          8.2219         6.13711 
       0.942635         7.95238          5.9072 
       0.958396         7.67754         5.68865 
       0.974128         7.49723         5.48161 
       0.989692         7.15188         5.28697 
        1.00528         7.06084         5.10155 
        1.02113         6.83326         4.92215 
        1.03692         6.65647         4.75208 
        1.05264         6.43576         4.59087 
        1.06832         6.28106         4.43742 
        1.08405         6.12075         4.29061 
        1.09979         5.96542         4.15038 
        1.11537         5.80622         4.01783 
        1.13105         5.64907         3.89031 
        1.14679         5.51383         3.76785 
        1.16256         5.35089         3.65045 
        1.17828          5.2727         3.53846 
        1.19395         5.09918         3.43156 
         1.2097         4.95261         3.32855 
        1.22537         4.82084         3.23028 
          1.241          4.7172         3.13629 
        1.25666         4.67754         3.04582 
        1.27241         4.57067         2.95851 
        1.28819         4.39084         2.87449 
        1.30392         4.30176         2.79399 
        1.31957         4.23994         2.71694 
        1.33529         4.11713         2.64253 
        1.35108         4.03151         2.57061 
        1.36674         3.93379          2.5019 
         1.3824         3.89012         2.43577 
        1.39811         3.79064         2.37182 
        1.41389         3.69785         2.30993 
        1.42964         3.64114         2.25036 
        1.44531         3.57196         2.19319 
        1.46101         3.50858         2.13789 
        1.47667         3.43397         2.08466 
        1.49229         3.33209          2.0334 
        1.50793         3.26299         1.98381 
        1.52367          3.2097         1.93556 
        1.53953         3.13624         1.88859 
        1.55526         3.14241         1.84357 
        1.57092         3.05287          1.8002 
        1.58662         3.01958         1.75812 
        1.60235         2.93462         1.71732 
        1.61809         2.88938         1.67779 
        1.63369         2.83788         1.63986 
        1.64941         2.79169         1.60284 
        1.66519         2.75242         1.56683 
        1.68085         2.69417         1.53218 
        1.69652         2.65125         1.49857 
        1.71228          2.6046         1.46579 
        1.72806         2.57005         1.43396 
        1.74368          2.5269          1.4034 
        1.75933         2.49007         1.37367 
        1.77505          2.4438         1.34466 
        1.79081         2.40539         1.31644 
         1.8065          2.3709         1.28916 
        1.82218         2.32266         1.26267 
        1.83797         2.28622         1.23675 
        1.85367         2.25444          1.2117 
        1.86928         2.22621         1.18749 
        1.88497         2.17924         1.16382 
        1.90073         2.16213         1.14071 
        1.91647         2.12078         1.11824 
        1.93218         2.09316         1.09643 
        1.94787         2.06424         1.07523 
        1.96363         2.03745         1.05452 
        1.97935         2.00291         1.03439 
        1.99499         1.97597          1.0149 
        2.01064         1.95121        0.995884 
         2.0264          1.9162        0.977239 
        2.04216         1.89674         0.95908 
        2.05781           1.863        0.941499 
        2.07353         1.85224        0.924297 
        2.08928         1.82017        0.907487 
        2.10499         1.79157        0.891142 
        2.12065         1.77477        0.875248 
        2.13633         1.74899        0.859729 
        2.15211         1.72085        0.844487 
        2.16785         1.70356        0.829658 
        2.18349         1.67629        0.815278 
        2.19916         1.66456        0.801209 
        2.21489         1.64489        0.787426 
        2.23063         1.61143        0.773959 
         2.2463         1.58897        0.760867 
        2.26194         1.57894        0.748112 
        2.27765          1.5477        0.735583 
        2.29341         1.53556         0.72331 
        2.30914          1.5104        0.711342 
        2.32486          1.5044        0.699652 
        2.34061         1.48567        0.688206 
        2.35635         1.46652        0.677026 
        2.37203         1.44791        0.666133 
        2.38768         1.43125        0.655503 
        2.40339         1.41912        0.645067 
        2.41914         1.40146        0.634834 
        2.43483         1.38545        0.624859 
         2.4505         1.36562        0.615116 
        2.46622         1.34805        0.605547 
        2.48195          1.3374        0.596181 
        2.49759         1.31866        0.587064 
        2.51328         1.30684        0.578113 
        2.52906         1.29703        0.569293 
        2.54479         1.27667         0.56069 
        2.56049         1.26544        0.552282 
        2.57618         1.25053        0.544053 
        2.59189         1.24091         0.53598 
        2.60758         1.22445        0.528083 
        2.62325         1.21083        0.520356 
        2.63898         1.19913        0.512756 
        2.65468         1.18055        0.505324 
        2.67044         1.17781        0.498007 
        2.68618         1.16633        0.490853 
        2.70184         1.14977        0.483868 
        2.71755         1.14529        0.477001 
        2.73329         1.12746        0.470257 
        2.74897          1.1165        0.463666 
        2.76462          1.1049        0.457216 
        2.78034         1.10129        0.450861 
        2.79607         1.08631        0.444621 
        2.81179         1.07294        0.438507 
        2.82749         1.06336        0.432514 
        2.84321         1.05514        0.426626 
        2.85893         1.04218         0.42085 
        2.87462         1.03372        0.415191 
        2.89033         1.02549        0.409631 
        2.90605         1.01834        0.404168 
        2.92176           1.007        0.398807 
        2.93747        0.999229        0.393547 
        2.95318        0.986304         0.38838 
        2.96891         0.98396        0.383304 
        2.98456        0.967637        0.378341 
        3.00023        0.960426        0.373458 
        3.01596        0.951922        0.368647 
        3.03164        0.945825        0.363934 
        3.04738        0.936845         0.35929 
         3.0631        0.925373        0.354728 
        3.07883        0.920725        0.350246 
        3.09456        0.911035        0.345841 
        3.11026        0.905263         0.34152 
        3.12596        0.896006        0.337272 
        3.14163         0.89375        0.333107 
        3.15734        0.883149        0.329002 
        3.17308        0.874905        0.324957 
        3.18879        0.871834        0.320991 
        3.20447         0.86263        0.317096 
         3.2202         0.85083        0.313255 
         3.2359        0.847495        0.309483 
        3.25157        0.839427        0.305783 
        3.26729        0.834322        0.302132 
        3.28304        0.828301        0.298534 
        3.29877        0.820612        0.294999 
        3.31446        0.816867        0.291529 
        3.33014        0.804395        0.288118 
        3.34585        0.801484        0.284756 
        3.36158        0.795269        0.281443 
        3.37727        0.791594        0.278193 
        3.39294        0.784291        0.274997 
        3.40867        0.779538         0.27184 
        3.42439        0.774918        0.268734 
        3.44008        0.767113        0.265683 
        3.45578        0.761287        0.262677 
        3.47153        0.757168        0.259711 
        3.48724        0.750101        0.256796 
        3.50292         0.74397        0.253932 
        3.51859        0.743048        0.251113 
        3.53431        0.734737        0.248329 
        3.55007        0.730513         0.24558 
        3.56577        0.726289        0.242883 
        3.58146        0.721946        0.240228 
        3.59719         0.71576        0.237607 
        3.61292        0.708639        0.235025 
        3.62859        0.705876        0.232492 
        3.64429        0.700031        0.229991 
        3.66003        0.695704         0.22752 
        3.67578        0.691088        0.225085 
        3.69146        0.687302        0.222695 
        3.70712        0.683605        0.220345 
        3.72284        0.678475        0.218019 
        3.73853        0.672603        0.215731 
        3.75422        0.669932        0.213476 
        3.76993        0.663512         0.21125 
        3.78564        0.660543        0.209057 
        3.80137        0.657014        0.206892 
        3.81707        0.651451        0.204762 
        3.83279        0.647628         0.20266 
        3.84853        0.642604        0.200584 
        3.86424        0.637899        0.198541 
        3.87992        0.636807         0.19653 
        3.89561        0.631563        0.194547 
        3.91134        0.625588        0.192587 
        3.92704        0.622523        0.190656 
        3.94273        0.618717        0.188754 
        3.95845        0.616651        0.186874 
        3.97418        0.613215        0.185019 
        3.98988        0.608859        0.183192 
        4.00554        0.602487        0.181394 
        4.02125        0.600387        0.179616 
        4.03698        0.595096        0.177858 
        4.05268        0.588811        0.176129 
        4.06839        0.585805         0.17442 
         4.0841         0.57977        0.172735 
        4.09983        0.575902         0.17107 
        4.11555        0.572091        0.169428 
        4.13124        0.567189        0.167812 
        4.14693         0.56457        0.166215 
        4.16266        0.556985        0.164635 
        4.17839        0.553734        0.163077 
        4.19408        0.552605        0.161543 
        4.20977        0.547093        0.160027 
        4.22551        0.544514        0.158528 
        4.24123        0.539659        0.157049 
        4.25691        0.536366        0.155593 
        4.27259        0.532858        0.154155 
        4.28831        0.530042        0.152733 
        4.30404        0.527084        0.151326 
        4.31974        0.523143        0.149941 
        4.33543        0.519536        0.148574 
        4.35116        0.516763        0.147221 
        4.36688        0.512807        0.145885 
        4.38255        0.510502         0.14457 
        4.39825        0.507912        0.143269 
        4.41398        0.504236        0.141981 
         4.4297        0.503289        0.140711 
        4.44541        0.498819        0.139456 
        4.46111         0.49632        0.138217 
        4.47683         0.49522        0.136993 
        4.49251        0.492081        0.135786 
        4.50819        0.490068        0.134594 
         4.5239        0.487171        0.133414 
        4.53962        0.483795        0.132247 
        4.55535        0.483751        0.131094 
        4.57106        0.481946        0.129956 
        4.58678        0.478838        0.128831 
         4.6025        0.477195        0.127719 
        4.61821        0.474791        0.126621 
        4.63391        0.474978        0.125536 
         4.6496        0.472105        0.124465 
        4.66532        0.470159        0.123405 
        4.68103        0.468368        0.122358 
        4.69673        0.465972        0.121323 
        4.71241        0.465411        0.120302 
        4.72811         0.46423        0.119291 
        4.74384        0.462704         0.11829 
        4.75955        0.461546        0.117302 
        4.77525         0.45918        0.116326 
        4.79096        0.458862         0.11536 
        4.80669        0.457362        0.114405 
         4.8224        0.455532        0.113461 
        4.83809        0.453809        0.112529 
        4.85379        0.454567        0.111607 
         4.8695        0.453444        0.110694 
        4.88521        0.453028        0.109792 
        4.90093        0.451365          0.1089 
        4.91663        0.451168        0.108019 
        4.93234        0.449077        0.107146 
        4.94807        0.448823        0.106283 
        4.96377        0.448722         0.10543 
        4.97943        0.447324        0.104589 
        4.99514        0.446315        0.103755 
        5.01086        0.447347        0.102929 
        5.02654        0.446093        0.102114 
        5.04227        0.444734        0.101306 
          5.058        0.445864        0.100506 
        5.07371        0.444416       0.0997164 
        5.08942        0.446383        0.098935 
        5.10513        0.444646        0.098162 
        5.12084         0.44416       0.0973969 
        5.13656        0.444163         0.09664 
        5.15225        0.444519       0.0958925 
        5.16796        0.444438       0.0951516 
        5.18369        0.442766        0.094418 
         5.1994        0.444141       0.0936934 
        5.21509        0.444319        0.092977 
        5.23079        0.443108       0.0922673 
        5.24649        0.444754       0.0915655 
        5.26217        0.443596       0.0908716 
        5.27788        0.445834       0.0901838 
        5.29359        0.445586        0.089503 
        5.30933        0.444645       0.0888283 
        5.32504        0.445712       0.0881617 
        5.34073        0.446308       0.0875026 
        5.35646        0.446059       0.0868489 
        5.37218         0.44738       0.0862018 
        5.38789        0.445733       0.0855623 
        5.40357        0.448028       0.0849301 
        5.41929        0.448239       0.0843028 
        5.43502        0.448455       0.0836818 
         5.4507        0.450045       0.0830685 
        5.46639        0.449072       0.0824613 
        5.48212        0.450388       0.0818587 
        5.49786        0.450961       0.0812615 
        5.51353        0.451648       0.0806731 
        5.52921        0.451841         0.08009 
        5.54495        0.453335       0.0795109 
        5.56066        0.453932       0.0789382 
        5.57637        0.453969       0.0783712 
        5.59207        0.455195       0.0778103 
        5.60778        0.456915       0.0772546 
        5.62346        0.456966       0.0767052 
        5.63916        0.457625       0.0761605 
        5.65487        0.458022       0.0756209 
         5.6706        0.459201       0.0750859 
        5.68633         0.46057       0.0745558 
        5.70203        0.462043       0.0740319 
        5.71773        0.461913       0.0735132 
        5.73344        0.463956       0.0729992 
        5.74916        0.464104       0.0724896 
        5.76486        0.465339       0.0719855 
        5.78054        0.465366        0.071487 
        5.79626        0.466589       0.0709919 
          5.812        0.468747       0.0705009 
         5.8277        0.469339        0.070016 
        5.84339        0.469933       0.0695357 
        5.85911        0.472745        0.069059 
        5.87484        0.472159       0.0685868 
        5.89053        0.474769       0.0681199 
        5.90623        0.476292       0.0676572 
        5.92195        0.475407        0.067198 
        5.93767        0.477341       0.0667433 
        5.95336         0.47781       0.0662935 
        5.96905           0.479       0.0658481 
        5.98476        0.478359       0.0654061 
        6.00048         0.48025        0.064968 
        6.01617        0.482196       0.0645346 
        6.03185        0.483213       0.0641056 
        6.04756        0.483371       0.0636794 
        6.06331        0.486031       0.0632563 
        6.07903        0.486784       0.0628379 
        6.09473        0.487591       0.0624236 
        6.11044        0.487926       0.0620127 
        6.12616        0.489449       0.0616056 
        6.14186        0.488758       0.0612025 
        6.15755        0.492542       0.0608031 
        6.17326        0.492896       0.0604069 
        6.18898        0.493943        0.060014 
        6.20467        0.495165       0.0596254 
        6.22036        0.494546       0.0592402 
         6.2361        0.496445       0.0588574 
         6.2518        0.497363       0.0584785 
        6.26748        0.498567       0.0581039 
        6.28319        0.500287       0.0577315 
        6.29893        0.501951        0.057362 
        6.31463        0.502362       0.0569964 
        6.33033        0.501862       0.0566341 
        6.34604        0.504219       0.0562747 
        6.36177        0.504764       0.0559181 
        6.37747        0.505848       0.0555652 
