# k  (h/Mpc)    Pcb(k)  (Mpc/h)^3    Pcb_linear(k) (Mpc/h)^3   ShotnoiseSubtracted = true
      0.0200456         26045.7         26739.5 
      0.0350414           18996         20089.2 
      0.0492313         14503.7         14964.6 
      0.0637834         12664.3         12499.9 
      0.0800726         9977.37         9920.51 
       0.096163         6979.55         7306.45 
       0.111083         5704.42         5916.61 
       0.126058         5239.87         5236.57 
       0.142273         4521.35          4404.4 
       0.158546         4054.91         3508.85 
        0.17375          3277.8         2996.69 
       0.188953         3214.08         2710.43 
       0.204907          3015.9         2379.63 
       0.220756         2636.51         2020.81 
        0.23588         2378.11         1775.65 
         0.2514         2087.32         1616.21 
       0.267535         2097.97         1454.33 
       0.283568         1903.89         1282.93 
       0.299022         1813.81         1150.56 
       0.314451         1727.35         1054.42 
       0.330372            1579         964.641 
       0.346141         1553.25         874.832 
       0.361624         1492.91         797.839 
       0.377134         1397.05         736.043 
       0.392932            1338         680.626 
       0.408854         1319.43         626.892 
       0.424564         1214.63         578.723 
       0.440253         1189.52         537.571 
       0.455999          1172.3         500.973 
       0.471626         1127.35         467.044 
        0.48727         1085.18         435.745 
       0.502856         1043.38         407.841 
       0.518488         1046.38         382.687 
       0.534347         980.455         359.131 
       0.550082         967.967         337.484 
       0.565732         952.455         317.805 
       0.581496         910.803          299.72 
       0.597222         886.335         283.056 
       0.612804         875.117         267.728 
       0.628434         852.423          253.48 
       0.644267         830.184         240.159 
       0.660051           813.5         227.853 
       0.675724         803.548         216.482 
       0.691403         780.987         205.879 
       0.707174         754.109         195.928 
       0.722871         737.489         186.674 
        0.73838         725.305         178.118 
       0.754018         714.203         170.035 
       0.769845         701.371         162.365 
        0.78569           691.2         155.162 
       0.801365         670.763         148.469 
       0.817031         659.452         142.176 
       0.832809         649.502          136.21 
       0.848511         636.067         130.615 
       0.864097         614.762         125.374 
       0.879701         605.661         120.418 
       0.895507         604.749         115.672 
       0.911279          591.88         111.193 
        0.92691         581.506          106.99 
       0.942635         564.183         102.982 
       0.958396          552.96          99.172 
       0.974128         547.049         95.5626 
       0.989692         541.263         92.1694 
        1.00528         522.397         88.9368 
        1.02113         520.822         85.8093 
        1.03692         509.534         82.8445 
        1.05264         501.384          80.034 
        1.06832         490.281         77.3589 
        1.08405         483.619         74.7994 
        1.09979         476.141         72.3548 
        1.11537         468.715         70.0441 
        1.13105         461.543         67.8209 
        1.14679         449.645         65.6861 
        1.16256         440.455         63.6394 
        1.17828         438.403          61.687 
        1.19395          429.96         59.8234 
         1.2097         417.415         58.0276 
        1.22537         412.188         56.3145 
          1.241         404.539          54.676 
        1.25666         401.498         53.0988 
        1.27241          393.01         51.5767 
        1.28819         383.605         50.1119 
        1.30392         379.256         48.7085 
        1.31957         372.039         47.3653 
        1.33529         369.629          46.068 
        1.35108         360.843         44.8143 
        1.36674          355.06         43.6164 
         1.3824         350.601         42.4635 
        1.39811         343.408         41.3487 
        1.41389         339.525         40.2697 
        1.42964         334.942         39.2312 
        1.44531         331.969         38.2345 
        1.46101         322.661         37.2704 
        1.47667         317.253         36.3426 
        1.49229         314.595         35.4489 
        1.50793         305.502         34.5844 
        1.52367         304.684         33.7432 
        1.53953         296.856         32.9244 
        1.55526         294.712         32.1394 
        1.57092         291.533         31.3834 
        1.58662          286.36         30.6499 
        1.60235         281.427         29.9385 
        1.61809         276.628         29.2494 
        1.63369          272.89         28.5882 
        1.64941         267.455         27.9428 
        1.66519          265.42          27.315 
        1.68085         262.543          26.711 
        1.69652         258.272         26.1251 
        1.71228         251.857         25.5535 
        1.72806         248.388         24.9986 
        1.74368         244.414         24.4658 
        1.75933         242.638         23.9475 
        1.77505         238.937         23.4419 
        1.79081         235.583         22.9499 
         1.8065          230.36         22.4742 
        1.82218         227.854         22.0125 
        1.83797         226.996         21.5606 
        1.85367         222.395         21.1239 
        1.86928         217.949         20.7019 
        1.88497         216.128         20.2892 
        1.90073         212.013         19.8863 
        1.91647         209.964         19.4946 
        1.93218         206.136         19.1144 
        1.94787         203.252         18.7449 
        1.96363         200.357         18.3837 
        1.97935         197.122         18.0328 
        1.99499          194.88          17.693 
        2.01064         191.923         17.3615 
         2.0264         190.291         17.0365 
        2.04216          187.88         16.7199 
        2.05781         185.005         16.4134 
        2.07353         182.004         16.1135 
        2.08928         178.467         15.8205 
        2.10499         177.069         15.5355 
        2.12065          174.96         15.2585 
        2.13633          172.08         14.9879 
        2.15211         169.489         14.7222 
        2.16785         168.234         14.4637 
        2.18349         166.195          14.213 
        2.19916         163.136         13.9677 
        2.21489         161.481         13.7274 
        2.23063         159.382         13.4927 
         2.2463         156.526         13.2644 
        2.26194          154.54         13.0421 
        2.27765         152.554         12.8236 
        2.29341         150.352         12.6097 
        2.30914         148.736          12.401 
        2.32486         147.421         12.1972 
        2.34061         144.637         11.9977 
        2.35635         143.461         11.8028 
        2.37203         141.391         11.6129 
        2.38768         139.413         11.4276 
        2.40339         137.523         11.2456 
        2.41914         136.158         11.0673 
        2.43483         134.237         10.8934 
         2.4505           132.9         10.7235 
        2.46622         131.056         10.5567 
        2.48195         129.379         10.3934 
        2.49759         128.184         10.2345 
        2.51328         126.952         10.0784 
        2.52906         125.003         9.92466 
        2.54479         123.335         9.77468 
        2.56049          121.42         9.62809 
        2.57618         120.459         9.48464 
        2.59189         118.811          9.3439 
        2.60758         117.131         9.20624 
        2.62325         115.598         9.07152 
        2.63898         114.723         8.93903 
        2.65468         113.115         8.80946 
        2.67044          111.56         8.68192 
        2.68618         110.585         8.55719 
        2.70184         109.102         8.43541 
        2.71755         107.978          8.3157 
        2.73329         106.417         8.19814 
        2.74897         105.287         8.08323 
        2.76462         103.874         7.97078 
        2.78034          102.83            7.86 
        2.79607         101.394         7.75122 
        2.81179         100.776         7.64462 
        2.82749         99.6839         7.54014 
        2.84321         97.7877         7.43751 
        2.85893         96.8632         7.33681 
        2.87462         95.9312         7.23816 
        2.89033          94.584         7.14122 
        2.90605         93.5628         7.04598 
        2.92176         92.2527         6.95253 
        2.93747         91.3874         6.86082 
        2.95318         90.9094         6.77075 
        2.96891         89.5942         6.68225 
        2.98456         88.4287         6.59573 
        3.00023         87.6818         6.51061 
        3.01596         86.5615         6.42673 
        3.03164         85.7075         6.34457 
        3.04738          84.865         6.26361 
         3.0631         83.6704         6.18408 
        3.07883         82.6968         6.10594 
        3.09456          81.705         6.02916 
        3.11026         81.3369         5.95382 
        3.12596         80.3808         5.87977 
        3.14163         79.3186         5.80715 
        3.15734          78.489          5.7356 
        3.17308         77.8549         5.66507 
        3.18879         76.8224         5.59593 
        3.20447         76.0041         5.52804 
         3.2202         75.2003         5.46106 
         3.2359         74.4024         5.39532 
        3.25157         73.7936         5.33081 
        3.26729         72.9234         5.26717 
        3.28304         72.2557         5.20443 
        3.29877         71.3388         5.14281 
        3.31446         70.9099         5.08231 
        3.33014         69.9116         5.02284 
        3.34585         69.3193         4.96424 
        3.36158         68.3807         4.90648 
        3.37727          67.752         4.84982 
        3.39294         66.9983         4.79411 
        3.40867         66.4299         4.73907 
        3.42439         65.5345         4.68493 
        3.44008         64.8665         4.63173 
        3.45578         64.1498         4.57933 
        3.47153         63.7468         4.52762 
        3.48724         63.1775          4.4768 
        3.50292         62.5429         4.42688 
        3.51859         61.9154         4.37774 
        3.53431         61.2634         4.32919 
        3.55007         60.6214         4.28127 
        3.56577         59.9019         4.23426 
        3.58146         59.3892         4.18797 
        3.59719         58.8026         4.14227 
        3.61292          58.257         4.09727 
        3.62859         57.6305          4.0531 
        3.64429         56.9781         4.00951 
        3.66003         56.4668         3.96642 
        3.67578         55.7394         3.92398 
        3.69146         55.4315         3.88232 
        3.70712         54.7649         3.84134 
        3.72284         54.3444          3.8008 
        3.73853         53.7979         3.76091 
        3.75422         53.1891         3.72159 
        3.76993         52.8967         3.68279 
        3.78564         52.2043         3.64456 
        3.80137         51.7818         3.60681 
        3.81707         51.2509         3.56967 
        3.83279         50.7425         3.53303 
        3.84853          50.287         3.49684 
        3.86424         49.7442         3.46123 
        3.87992          49.386         3.42617 
        3.89561         48.8618          3.3916 
        3.91134         48.3912         3.35742 
        3.92704         48.1497         3.32376 
        3.94273         47.6749          3.2906 
        3.95845         47.1582         3.25782 
        3.97418         46.6142         3.22549 
        3.98988         46.2443         3.19364 
        4.00554         45.9407          3.1623 
        4.02125         45.3468          3.1313 
        4.03698         44.9283         3.10066 
        4.05268         44.4661          3.0705 
        4.06839         44.1612         3.04072 
         4.0841         43.7225         3.01135 
        4.09983         43.3673         2.98232 
        4.11555         42.8858         2.95369 
        4.13124         42.4424         2.92551 
        4.14693         42.2261         2.89767 
        4.16266         41.8575         2.87014 
        4.17839         41.4536         2.84297 
        4.19408         41.0049         2.81622 
        4.20977         40.6593         2.78981 
        4.22551         40.2961         2.76366 
        4.24123         39.8785         2.73788 
        4.25691         39.6282          2.7125 
        4.27259         39.1566         2.68743 
        4.28831         38.9826         2.66263 
        4.30404         38.6242         2.63812 
        4.31974         38.2929         2.61397 
        4.33543         37.9135         2.59014 
        4.35116         37.5565         2.56654 
        4.36688         37.3102         2.54325 
        4.38255         36.9773         2.52033 
        4.39825          36.669         2.49765 
        4.41398         36.3709          2.4752 
         4.4297         35.9556         2.45305 
        4.44541         35.6669         2.43118 
        4.46111         35.3838         2.40959 
        4.47683         35.0248         2.38824 
        4.49251         34.8333          2.3672 
        4.50819          34.479         2.34642 
         4.5239         34.2831         2.32585 
        4.53962         33.8311         2.30551 
        4.55535         33.6479          2.2854 
        4.57106         33.3548         2.26556 
        4.58678         33.0001         2.24595 
         4.6025         32.8541         2.22656 
        4.61821         32.5415         2.20741 
        4.63391          32.187         2.18851 
         4.6496         31.8936         2.16984 
        4.66532         31.6289         2.15136 
        4.68103         31.4158          2.1331 
        4.69673         31.0937         2.11507 
        4.71241         30.8485         2.09727 
        4.72811          30.694         2.07964 
        4.74384          30.305         2.06219 
        4.75955         30.1334         2.04497 
        4.77525         29.8726         2.02795 
        4.79096         29.5995         2.01111 
        4.80669         29.4277         1.99445 
         4.8224         29.1932           1.978 
        4.83809         28.9171         1.96175 
        4.85379         28.6631         1.94567 
         4.8695         28.4144         1.92976 
        4.88521         28.2073         1.91404 
        4.90093         28.0055         1.89849 
        4.91663         27.7161         1.88312 
        4.93234         27.5304         1.86791 
        4.94807         27.2793         1.85286 
        4.96377         27.0673           1.838 
        4.97943         26.8869         1.82333 
        4.99514         26.6496         1.80879 
        5.01086          26.467         1.79439 
        5.02654         26.2012         1.78019 
        5.04227         26.0048          1.7661 
          5.058         25.8818         1.75215 
        5.07371         25.6068         1.73839 
        5.08942         25.4472         1.72476 
        5.10513         25.2344         1.71129 
        5.12084         25.0469         1.69795 
        5.13656         24.8102         1.68475 
        5.15225          24.644         1.67172 
        5.16796         24.4444         1.65881 
        5.18369         24.2585         1.64602 
         5.1994         24.0831         1.63338 
        5.21509         23.8848          1.6209 
        5.23079         23.6564         1.60852 
        5.24649         23.4603         1.59629 
        5.26217         23.2831         1.58419 
        5.27788         23.1519          1.5722 
        5.29359         22.9212         1.56033 
        5.30933         22.7759         1.54857 
        5.32504         22.5962         1.53695 
        5.34073         22.4043         1.52546 
        5.35646         22.3165         1.51406 
        5.37218         22.1176         1.50278 
        5.38789         21.9168         1.49163 
        5.40357          21.728         1.48061 
        5.41929         21.6248         1.46968 
        5.43502         21.4789         1.45885 
         5.4507         21.2864         1.44816 
        5.46639         21.1334         1.43757 
        5.48212         20.9817         1.42707 
        5.49786         20.8163         1.41666 
        5.51353          20.631          1.4064 
        5.52921         20.4543         1.39623 
        5.54495         20.3652         1.38614 
        5.56066         20.2164         1.37615 
        5.57637         20.0208         1.36627 
        5.59207          19.864         1.35649 
        5.60778         19.7547          1.3468 
        5.62346         19.5618         1.33722 
        5.63916         19.4089         1.32773 
        5.65487         19.3325         1.31832 
         5.6706         19.1659         1.30899 
        5.68633         19.0466         1.29975 
        5.70203         18.8576         1.29062 
        5.71773         18.7132         1.28158 
        5.73344          18.545         1.27262 
        5.74916         18.4668         1.26373 
        5.76486          18.353         1.25495 
        5.78054         18.2018         1.24626 
        5.79626         18.0845         1.23762 
          5.812         17.9081         1.22906 
         5.8277         17.8704         1.22061 
        5.84339         17.7001         1.21224 
        5.85911         17.5362         1.20393 
        5.87484         17.4129         1.19569 
        5.89053         17.3024         1.18756 
        5.90623         17.1879         1.17949 
        5.92195         17.0747         1.17148 
        5.93767         16.9369         1.16356 
        5.95336         16.8681         1.15572 
        5.96905         16.6775         1.14795 
        5.98476         16.5711         1.14024 
        6.00048         16.4593         1.13261 
        6.01617         16.3203         1.12505 
        6.03185         16.2327         1.11757 
        6.04756         16.1007         1.11014 
        6.06331         15.9978         1.10277 
        6.07903         15.8894         1.09547 
        6.09473         15.7572         1.08825 
        6.11044          15.678         1.08109 
        6.12616         15.5488         1.07399 
        6.14186         15.4603         1.06696 
        6.15755         15.3887            1.06 
        6.17326         15.2081         1.05309 
        6.18898         15.1224         1.04624 
        6.20467         15.0175         1.03947 
        6.22036         14.9156         1.03275 
         6.2361         14.8175         1.02608 
         6.2518         14.7019         1.01947 
        6.26748         14.6063         1.01294 
        6.28319         14.5236         1.00645 
        6.29893          14.422         1.00001 
        6.31463         14.3063        0.993636 
        6.33033         14.1861         0.98732 
        6.34604         14.1245        0.981054 
        6.36177         14.0543        0.974837 
        6.37747         13.9413        0.968685 
