# k  (h/Mpc)    Pcb(k)  (Mpc/h)^3    Pcb_linear(k) (Mpc/h)^3   ShotnoiseSubtracted = true
      0.0200456         5261.35         5349.59 
      0.0350414         3941.85          4019.1 
      0.0492313         2984.78         2993.87 
      0.0637834         2539.11         2500.76 
      0.0800726          2012.5         1984.73 
       0.096163         1440.58         1461.75 
       0.111083         1157.64          1183.7 
       0.126058         1057.82         1047.64 
       0.142273         904.271         881.157 
       0.158546         739.738         701.991 
        0.17375         607.514         599.526 
       0.188953         574.001         542.257 
       0.204907         532.942         476.076 
       0.220756         447.673          404.29 
        0.23588         393.727         355.241 
         0.2514         348.853         323.344 
       0.267535         328.648         290.957 
       0.283568         297.096         256.667 
       0.299022         273.624         230.184 
       0.314451           249.9          210.95 
       0.330372         231.836         192.989 
       0.346141         209.166         175.022 
       0.361624         198.109         159.618 
       0.377134         186.666         147.255 
       0.392932         169.676         136.168 
       0.408854          163.02         125.418 
       0.424564         156.209         115.781 
       0.440253         146.052         107.548 
       0.455999          137.73         100.226 
       0.471626         127.318         93.4383 
        0.48727          123.69         87.1764 
       0.502856         117.853          81.594 
       0.518488         114.078         76.5615 
       0.534347         109.274         71.8488 
       0.550082         100.992         67.5181 
       0.565732         96.6878          63.581 
       0.581496         93.1781         59.9628 
       0.597222         90.1912         56.6291 
       0.612804         85.4583         53.5625 
       0.628434         83.5498         50.7119 
       0.644267         80.9158         48.0468 
       0.660051         78.3611          45.585 
       0.675724         75.2226         43.3101 
       0.691403         72.9831         41.1888 
       0.707174         70.6787         39.1979 
       0.722871         68.5928         37.3466 
        0.73838         66.9915         35.6349 
       0.754018         63.7809         34.0176 
       0.769845         62.4214         32.4832 
        0.78569         60.7729         31.0422 
       0.801365         58.6779         29.7031 
       0.817031         57.1647         28.4441 
       0.832809         56.3343         27.2505 
       0.848511          53.532         26.1312 
       0.864097         52.3435         25.0827 
       0.879701         51.6251         24.0911 
       0.895507         50.7848         23.1417 
       0.911279         49.4495         22.2456 
        0.92691         48.1375         21.4047 
       0.942635         46.5252         20.6029 
       0.958396         46.2232         19.8406 
       0.974128         44.9419         19.1185 
       0.989692         44.2021         18.4397 
        1.00528         43.2727          17.793 
        1.02113         41.8976         17.1673 
        1.03692         41.1224         16.5741 
        1.05264         40.5292         16.0118 
        1.06832         39.5888         15.4766 
        1.08405         38.9744         14.9646 
        1.09979         38.2078         14.4755 
        1.11537         37.0154         14.0132 
        1.13105         37.0043         13.5685 
        1.14679         36.4363         13.1414 
        1.16256         35.3822         12.7319 
        1.17828         34.8156         12.3413 
        1.19395         34.1267         11.9684 
         1.2097         33.8392         11.6092 
        1.22537         33.2854         11.2664 
          1.241         32.5812         10.9386 
        1.25666         31.7627         10.6231 
        1.27241         31.5323         10.3186 
        1.28819         30.6582         10.0255 
        1.30392         30.3943         9.74476 
        1.31957         30.1622         9.47603 
        1.33529         29.8249         9.21649 
        1.35108         29.1453         8.96568 
        1.36674         28.6333         8.72602 
         1.3824         28.0633         8.49538 
        1.39811         27.8718         8.27234 
        1.41389         27.5181         8.05648 
        1.42964         27.0397         7.84871 
        1.44531         26.8509         7.64931 
        1.46101         26.1506         7.45643 
        1.47667           25.92          7.2708 
        1.49229         25.7011         7.09201 
        1.50793         25.2877         6.91905 
        1.52367          25.039         6.75076 
        1.53953          24.742         6.58696 
        1.55526         24.2779         6.42991 
        1.57092         23.9815         6.27865 
        1.58662         23.6719         6.13191 
        1.60235         23.3866         5.98959 
        1.61809         23.1116         5.85173 
        1.63369         22.8363         5.71944 
        1.64941           22.38         5.59031 
        1.66519            22.3         5.46471 
        1.68085         21.9426         5.34387 
        1.69652         21.6798         5.22666 
        1.71228         21.4668         5.11231 
        1.72806         21.2052          5.0013 
        1.74368         20.9149         4.89471 
        1.75933         20.6725         4.79101 
        1.77505         20.4623         4.68985 
        1.79081         20.1778         4.59143 
         1.8065         20.0657         4.49626 
        1.82218         19.7232         4.40389 
        1.83797          19.464         4.31347 
        1.85367         19.2767         4.22611 
        1.86928         19.1115         4.14169 
        1.88497         18.8234         4.05912 
        1.90073         18.8035          3.9785 
        1.91647         18.4834         3.90015 
        1.93218         18.3124         3.82408 
        1.94787         18.1698         3.75016 
        1.96363          17.997          3.6779 
        1.97935         17.7793         3.60769 
        1.99499         17.5432         3.53972 
        2.01064         17.3693          3.4734 
         2.0264          17.149         3.40837 
        2.04216         17.0024         3.34504 
        2.05781         16.7611         3.28372 
        2.07353         16.6119         3.22372 
        2.08928         16.4933          3.1651 
        2.10499         16.2721         3.10809 
        2.12065         16.0329         3.05265 
        2.13633         16.0165         2.99853 
        2.15211         15.7611         2.94537 
        2.16785         15.7306         2.89365 
        2.18349         15.5576         2.84349 
        2.19916         15.3297         2.79442 
        2.21489         15.2317         2.74635 
        2.23063          15.047         2.69938 
         2.2463         14.8898         2.65372 
        2.26194         14.7788         2.60923 
        2.27765         14.6591         2.56554 
        2.29341         14.4848         2.52273 
        2.30914         14.2894         2.48099 
        2.32486          14.256         2.44022 
        2.34061         14.0788         2.40029 
        2.35635         13.9249          2.3613 
        2.37203         13.8594         2.32331 
        2.38768         13.6929         2.28624 
        2.40339         13.4912         2.24984 
        2.41914         13.3977         2.21415 
        2.43483         13.3287         2.17936 
         2.4505         13.1882         2.14538 
        2.46622         13.0705           2.112 
        2.48195         12.9569         2.07934 
        2.49759         12.8584         2.04754 
        2.51328         12.6973         2.01632 
        2.52906         12.5748         1.98556 
        2.54479         12.4859         1.95555 
        2.56049         12.4062         1.92622 
        2.57618         12.3203         1.89753 
        2.59189         12.1391         1.86937 
        2.60758         12.0979         1.84183 
        2.62325         12.0074         1.81487 
        2.63898         11.8018         1.78837 
        2.65468         11.7415         1.76245 
        2.67044          11.638         1.73693 
        2.68618         11.5186         1.71198 
        2.70184         11.4319         1.68761 
        2.71755         11.3148         1.66366 
        2.73329         11.2087         1.64014 
        2.74897           11.12         1.61715 
        2.76462         11.1002         1.59466 
        2.78034         10.9019          1.5725 
        2.79607         10.8382         1.55073 
        2.81179         10.7294          1.5294 
        2.82749         10.6894          1.5085 
        2.84321         10.5507         1.48797 
        2.85893         10.4884         1.46782 
        2.87462         10.4113         1.44809 
        2.89033         10.2694         1.42869 
        2.90605          10.198         1.40964 
        2.92176         10.1413         1.39094 
        2.93747         10.0213          1.3726 
        2.95318         9.98689         1.35458 
        2.96891         9.87924         1.33687 
        2.98456         9.79584         1.31956 
        3.00023         9.72006         1.30253 
        3.01596          9.6408         1.28575 
        3.03164         9.58322         1.26931 
        3.04738          9.4906         1.25312 
         3.0631         9.37173         1.23721 
        3.07883         9.32664         1.22157 
        3.09456         9.27245         1.20621 
        3.11026         9.14393         1.19114 
        3.12596         9.12844         1.17632 
        3.14163         9.02747          1.1618 
        3.15734         8.94831         1.14748 
        3.17308         8.90714         1.13337 
        3.18879         8.80332         1.11954 
        3.20447         8.72862         1.10596 
         3.2202         8.66482         1.09256 
         3.2359         8.61299          1.0794 
        3.25157         8.54656          1.0665 
        3.26729         8.47787         1.05376 
        3.28304         8.39445         1.04121 
        3.29877         8.32643         1.02889 
        3.31446         8.28872         1.01678 
        3.33014          8.1818         1.00489 
        3.34585         8.15422         0.99316 
        3.36158         8.07575        0.981605 
        3.37727         8.03262        0.970269 
        3.39294         7.97126        0.959123 
        3.40867          7.8538        0.948112 
        3.42439         7.84046         0.93728 
        3.44008         7.76822        0.926638 
        3.45578         7.71174        0.916154 
        3.47153         7.66841        0.905809 
        3.48724         7.59433        0.895641 
        3.50292         7.54918        0.885654 
        3.51859         7.47578        0.875823 
        3.53431         7.41951        0.866111 
        3.55007           7.388        0.856523 
        3.56577         7.33301        0.847118 
        3.58146         7.26242        0.837858 
        3.59719         7.19911        0.828715 
        3.61292         7.15439        0.819712 
        3.62859         7.08445        0.810876 
        3.64429         7.04124        0.802154 
        3.66003         6.97269        0.793533 
        3.67578         6.94472        0.785042 
        3.69146         6.87508        0.776708 
        3.70712         6.85889        0.768509 
        3.72284          6.7603        0.760399 
        3.73853         6.73832        0.752419 
        3.75422         6.67541        0.744551 
        3.76993         6.64779        0.736789 
        3.78564         6.59116        0.729141 
        3.80137         6.53815        0.721589 
        3.81707         6.47646         0.71416 
        3.83279         6.47313        0.706829 
        3.84853          6.3925        0.699589 
        3.86424         6.33585        0.692465 
        3.87992         6.30146         0.68545 
        3.89561         6.25009        0.678533 
        3.91134         6.20965        0.671696 
        3.92704         6.16386        0.664962 
        3.94273         6.11856        0.658327 
        3.95845         6.07907         0.65177 
        3.97418         6.05147        0.645301 
        3.98988         5.98732        0.638929 
        4.00554         5.94902         0.63266 
        4.02125          5.8917        0.626457 
        4.03698         5.86229        0.620327 
        4.05268         5.82894        0.614294 
        4.06839         5.78711        0.608336 
         4.0841         5.74427         0.60246 
        4.09983         5.70003        0.596652 
        4.11555         5.66075        0.590924 
        4.13124         5.60894        0.585286 
        4.14693         5.56031        0.579717 
        4.16266         5.51265        0.574208 
        4.17839         5.48323        0.568774 
        4.19408         5.43871        0.563422 
        4.20977         5.39838        0.558137 
        4.22551         5.35991        0.552907 
        4.24123         5.31833        0.547749 
        4.25691         5.29182        0.542671 
        4.27259         5.24288        0.537656 
        4.28831          5.2099        0.532694 
        4.30404         5.16754         0.52779 
        4.31974         5.13854        0.522959 
        4.33543         5.09488         0.51819 
        4.35116         5.06184         0.51347 
        4.36688         5.01225         0.50881 
        4.38255         4.97304        0.504226 
        4.39825         4.96095        0.499688 
        4.41398         4.92029        0.495196 
         4.4297         4.89495        0.490765 
        4.44541          4.8433        0.486389 
        4.46111         4.82482        0.482069 
        4.47683         4.76784        0.477799 
        4.49251         4.75076        0.473589 
        4.50819         4.71799        0.469431 
         4.5239         4.68225        0.465317 
        4.53962         4.66093        0.461247 
        4.55535          4.6175        0.457224 
        4.57106         4.58946        0.453254 
        4.58678         4.55561        0.449331 
         4.6025           4.524        0.445453 
        4.61821         4.49459        0.441622 
        4.63391         4.46574        0.437841 
         4.6496         4.42916        0.434105 
        4.66532         4.41095        0.430407 
        4.68103         4.36521        0.426754 
        4.69673         4.34246        0.423147 
        4.71241         4.30598        0.419585 
        4.72811         4.29179        0.416058 
        4.74384         4.26556        0.412568 
        4.75955         4.22679        0.409122 
        4.77525         4.19274        0.405718 
        4.79096         4.16895        0.402348 
        4.80669         4.12842        0.399016 
         4.8224          4.1175        0.395724 
        4.83809         4.08573        0.392473 
        4.85379         4.05575        0.389257 
         4.8695         4.03088        0.386074 
        4.88521         4.00943        0.382928 
        4.90093         3.98644        0.379817 
        4.91663         3.94958        0.376743 
        4.93234         3.93262        0.373699 
        4.94807         3.90607        0.370688 
        4.96377          3.8737        0.367715 
        4.97943         3.84829        0.364781 
        4.99514         3.82218        0.361871 
        5.01086         3.80289        0.358991 
        5.02654         3.77592         0.35615 
        5.04227          3.7513        0.353331 
          5.058         3.72958        0.350541 
        5.07371         3.70298        0.347787 
        5.08942         3.68329        0.345062 
        5.10513         3.65849        0.342365 
        5.12084         3.63438        0.339697 
        5.13656         3.61764        0.337057 
        5.15225         3.59754         0.33445 
        5.16796         3.56421        0.331866 
        5.18369         3.54351        0.329307 
         5.1994         3.52016         0.32678 
        5.21509         3.49998        0.324281 
        5.23079         3.47458        0.321806 
        5.24649         3.45641        0.319359 
        5.26217         3.43334        0.316938 
        5.27788         3.40466        0.314539 
        5.29359         3.38057        0.312165 
        5.30933         3.37034        0.309812 
        5.32504         3.34766        0.307487 
        5.34073         3.32576        0.305188 
        5.35646         3.30916        0.302908 
        5.37218         3.28505        0.300651 
        5.38789         3.26698        0.298421 
        5.40357         3.25234        0.296216 
        5.41929         3.21963        0.294028 
        5.43502         3.20562        0.291862 
         5.4507         3.18893        0.289723 
        5.46639         3.16568        0.287605 
        5.48212         3.15001        0.285504 
        5.49786         3.13367         0.28342 
        5.51353          3.1105        0.281368 
        5.52921         3.09121        0.279335 
        5.54495         3.07226        0.277315 
        5.56066         3.05102        0.275317 
        5.57637          3.0406         0.27334 
        5.59207         3.02235        0.271383 
        5.60778         3.00481        0.269445 
        5.62346         2.98062        0.267529 
        5.63916         2.96329         0.26563 
        5.65487         2.94674        0.263747 
         5.6706         2.93176        0.261881 
        5.68633         2.91461        0.260033 
        5.70203         2.90141        0.258206 
        5.71773         2.88012        0.256396 
        5.73344         2.86294        0.254603 
        5.74916         2.84674        0.252826 
        5.76486         2.83092        0.251068 
        5.78054         2.81137         0.24933 
        5.79626         2.79928        0.247603 
          5.812         2.78357         0.24589 
         5.8277         2.77009        0.244199 
        5.84339         2.74789        0.242524 
        5.85911         2.73718        0.240861 
        5.87484         2.72396        0.239214 
        5.89053         2.69767        0.237586 
        5.90623         2.68682        0.235972 
        5.92195         2.67566         0.23437 
        5.93767         2.65709        0.232784 
        5.95336         2.64126        0.231216 
        5.96905         2.62838        0.229662 
        5.98476         2.61754        0.228121 
        6.00048         2.59958        0.226593 
        6.01617         2.58506        0.225081 
        6.03185          2.5702        0.223585 
        6.04756          2.5523        0.222099 
        6.06331         2.53991        0.220623 
        6.07903         2.52487        0.219163 
        6.09473         2.51674        0.217718 
        6.11044         2.49624        0.216285 
        6.12616         2.48798        0.214865 
        6.14186         2.46629         0.21346 
        6.15755         2.45645        0.212066 
        6.17326         2.44652        0.210685 
        6.18898         2.43148        0.209314 
        6.20467         2.42008        0.207959 
        6.22036         2.40572        0.206615 
         6.2361         2.39114         0.20528 
         6.2518         2.38267        0.203959 
        6.26748         2.36649        0.202652 
        6.28319         2.35367        0.201353 
        6.29893          2.3448        0.200065 
        6.31463         2.32988         0.19879 
        6.33033         2.31575        0.197526 
        6.34604         2.30388        0.196273 
        6.36177         2.29559        0.195029 
        6.37747         2.28207        0.193798 
