# k  (h/Mpc)    Pcb(k)  (Mpc/h)^3    Pcb_linear(k) (Mpc/h)^3   ShotnoiseSubtracted = true
      0.0200456          7886.4          7997.5 
      0.0350414         6139.84         6008.45 
      0.0492313          4446.1         4475.76 
      0.0637834          3625.6         3738.57 
      0.0800726         2861.66         2967.12 
       0.096163         2244.35         2185.28 
       0.111083         1845.73         1769.59 
       0.126058         1547.52          1566.2 
       0.142273         1319.18         1317.31 
       0.158546         1087.46         1049.46 
        0.17375         953.906         896.277 
       0.188953         874.507          810.66 
       0.204907         742.563         711.722 
       0.220756         664.667         604.403 
        0.23588         591.228         531.076 
         0.2514         531.083          483.39 
       0.267535         509.917         434.974 
       0.283568         444.907          383.71 
       0.299022         421.721         344.119 
       0.314451         417.337         315.365 
       0.330372         360.508         288.513 
       0.346141         334.109         261.653 
       0.361624         317.136         238.625 
       0.377134          292.75         220.142 
       0.392932         285.438         203.568 
       0.408854         269.979         187.496 
       0.424564         259.006          173.09 
       0.440253         233.927         160.781 
       0.455999         221.956         149.835 
       0.471626          218.24         139.688 
        0.48727         209.297         130.326 
       0.502856         191.109         121.981 
       0.518488         189.991         114.458 
       0.534347         177.244         107.412 
       0.550082         173.243         100.938 
       0.565732         170.462         95.0519 
       0.581496         158.043         89.6429 
       0.597222         154.603         84.6591 
       0.612804         149.815         80.0746 
       0.628434         145.262          75.813 
       0.644267         138.156         71.8288 
       0.660051         134.113         68.1484 
       0.675724          132.57         64.7474 
       0.691403         129.135         61.5762 
       0.707174          124.77         58.5998 
       0.722871         122.549         55.8322 
        0.73838           119.9         53.2733 
       0.754018         112.559         50.8555 
       0.769845         112.072         48.5616 
        0.78569         108.978         46.4074 
       0.801365         105.737         44.4053 
       0.817031         102.309         42.5232 
       0.832809         100.545         40.7388 
       0.848511         98.2289         39.0654 
       0.864097         96.5315          37.498 
       0.879701         94.8528         36.0156 
       0.895507         91.3037         34.5962 
       0.911279         89.9954         33.2567 
        0.92691         87.3243         31.9995 
       0.942635         85.5576         30.8008 
       0.958396         85.0512         29.6613 
       0.974128         83.0694         28.5817 
       0.989692         81.2633         27.5669 
        1.00528         79.7202            26.6 
        1.02113         77.8246         25.6646 
        1.03692         77.6304         24.7779 
        1.05264         76.1949         23.9373 
        1.06832         73.6996         23.1372 
        1.08405         73.0022         22.3717 
        1.09979         72.4144         21.6405 
        1.11537         70.4015         20.9494 
        1.13105         69.0412         20.2845 
        1.14679         68.1391          19.646 
        1.16256          66.887         19.0338 
        1.17828         66.1977         18.4499 
        1.19395         64.3702         17.8925 
         1.2097         64.5805         17.3554 
        1.22537         62.9541          16.843 
          1.241         62.3973          16.353 
        1.25666         60.5446         15.8813 
        1.27241         60.4359          15.426 
        1.28819         59.5347         14.9879 
        1.30392         58.4387         14.5682 
        1.31957         58.0842         14.1664 
        1.33529          57.103         13.7784 
        1.35108         56.2281         13.4035 
        1.36674         55.4606         13.0452 
         1.3824         54.6122         12.7004 
        1.39811         53.7108         12.3669 
        1.41389         52.8804         12.0442 
        1.42964         52.4667         11.7336 
        1.44531         51.4777         11.4355 
        1.46101          51.096         11.1472 
        1.47667         50.3284         10.8697 
        1.49229         49.6281         10.6024 
        1.50793          49.085         10.3438 
        1.52367         48.4728         10.0922 
        1.53953         47.8948         9.84733 
        1.55526         47.1912         9.61255 
        1.57092         46.7192         9.38642 
        1.58662         46.0618         9.16705 
        1.60235         45.4814         8.95429 
        1.61809         44.7954         8.74819 
        1.63369          44.249         8.55042 
        1.64941         43.7661         8.35737 
        1.66519         42.9929          8.1696 
        1.68085         42.6558         7.98895 
        1.69652         41.8742         7.81373 
        1.71228          41.726         7.64277 
        1.72806          40.982         7.47681 
        1.74368         40.5267         7.31746 
        1.75933         40.2275         7.16244 
        1.77505          39.892          7.0112 
        1.79081         39.2886         6.86407 
         1.8065         38.6239          6.7218 
        1.82218         38.0307         6.58369 
        1.83797         37.7828         6.44853 
        1.85367         37.2741         6.31792 
        1.86928         37.2657         6.19172 
        1.88497          36.374         6.06828 
        1.90073         36.0894         5.94776 
        1.91647         35.8909         5.83063 
        1.93218         35.7183         5.71691 
        1.94787         35.1347         5.60639 
        1.96363         34.4792         5.49836 
        1.97935         34.2857          5.3934 
        1.99499         33.9389         5.29179 
        2.01064         33.4223         5.19265 
         2.0264         33.1131         5.09543 
        2.04216         32.8736         5.00075 
        2.05781         32.4313         4.90908 
        2.07353         32.0573         4.81938 
        2.08928         31.8311         4.73174 
        2.10499         31.5257         4.64651 
        2.12065         31.1034         4.56364 
        2.13633         30.8731         4.48272 
        2.15211         30.2925         4.40325 
        2.16785          30.041         4.32593 
        2.18349         29.7338         4.25095 
        2.19916         29.4272         4.17759 
        2.21489         29.1495         4.10573 
        2.23063          28.959         4.03551 
         2.2463         28.6526         3.96725 
        2.26194         28.2465         3.90074 
        2.27765          27.957         3.83541 
        2.29341         27.6623         3.77142 
        2.30914         27.3787         3.70901 
        2.32486         27.0828         3.64806 
        2.34061         26.8608         3.58838 
        2.35635         26.5326         3.53009 
        2.37203         26.3135         3.47329 
        2.38768         26.0998         3.41787 
        2.40339         25.9087         3.36345 
        2.41914         25.5716         3.31009 
        2.43483         25.4448         3.25808 
         2.4505         24.9723         3.20728 
        2.46622         24.7195         3.15739 
        2.48195         24.5123         3.10855 
        2.49759         24.1538         3.06101 
        2.51328         24.0336         3.01435 
        2.52906         23.8503         2.96836 
        2.54479         23.5636          2.9235 
        2.56049         23.4846         2.87966 
        2.57618         23.2061         2.83675 
        2.59189          22.817         2.79466 
        2.60758         22.7158         2.75348 
        2.62325         22.4216         2.71319 
        2.63898         22.2746         2.67356 
        2.65468         22.0599         2.63481 
        2.67044         21.7875         2.59667 
        2.68618         21.5433         2.55936 
        2.70184          21.334         2.52294 
        2.71755          21.175         2.48714 
        2.73329         20.9179         2.45197 
        2.74897         20.8002          2.4176 
        2.76462         20.6309         2.38397 
        2.78034         20.3077         2.35084 
        2.79607         20.1313          2.3183 
        2.81179         19.9669         2.28642 
        2.82749         19.7826         2.25517 
        2.84321         19.6339         2.22448 
        2.85893         19.3574         2.19436 
        2.87462         19.2382         2.16485 
        2.89033         19.0821         2.13586 
        2.90605         18.8237         2.10738 
        2.92176         18.5954         2.07943 
        2.93747         18.4914           2.052 
        2.95318          18.364         2.02506 
        2.96891         18.1045         1.99859 
        2.98456         18.0514         1.97271 
        3.00023         17.7623         1.94725 
        3.01596         17.6005         1.92216 
        3.03164         17.4452         1.89759 
        3.04738         17.2966         1.87338 
         3.0631         17.1671         1.84959 
        3.07883         16.9946         1.82622 
        3.09456         16.8575         1.80325 
        3.11026         16.6982         1.78072 
        3.12596         16.5046         1.75857 
        3.14163         16.3743         1.73686 
        3.15734         16.2311         1.71545 
        3.17308         16.1255         1.69436 
        3.18879         15.8554         1.67368 
        3.20447         15.8003         1.65337 
         3.2202         15.6349         1.63334 
         3.2359          15.513         1.61368 
        3.25157         15.3932         1.59439 
        3.26729         15.2195         1.57535 
        3.28304         15.1428         1.55659 
        3.29877         15.0622         1.53816 
        3.31446         14.8611         1.52006 
        3.33014         14.7131         1.50228 
        3.34585         14.5954         1.48475 
        3.36158         14.4542         1.46747 
        3.37727         14.2995         1.45053 
        3.39294         14.1911         1.43386 
        3.40867         14.0638          1.4174 
        3.42439         13.9563         1.40121 
        3.44008         13.8291          1.3853 
        3.45578         13.6858         1.36963 
        3.47153         13.5838         1.35416 
        3.48724           13.49         1.33896 
        3.50292         13.3885         1.32403 
        3.51859         13.2514         1.30933 
        3.53431         13.1059         1.29481 
        3.55007         13.0003         1.28048 
        3.56577         12.9099         1.26642 
        3.58146         12.7778         1.25258 
        3.59719         12.6693         1.23891 
        3.61292         12.5692         1.22545 
        3.62859          12.445         1.21224 
        3.64429         12.3458          1.1992 
        3.66003         12.2412         1.18631 
        3.67578         12.1486         1.17362 
        3.69146         12.0683         1.16116 
        3.70712         11.9128          1.1489 
        3.72284         11.8322         1.13678 
        3.73853         11.7352         1.12485 
        3.75422         11.6076         1.11309 
        3.76993         11.5075         1.10148 
        3.78564          11.438         1.09005 
        3.80137         11.3236         1.07876 
        3.81707         11.2389         1.06765 
        3.83279          11.168         1.05669 
        3.84853         11.0387         1.04587 
        3.86424         10.9515         1.03522 
        3.87992         10.8769         1.02473 
        3.89561         10.7824         1.01439 
        3.91134         10.6949         1.00417 
        3.92704          10.602        0.994101 
        3.94273         10.5185        0.984182 
        3.95845         10.4139        0.974379 
        3.97418         10.3263        0.964708 
        3.98988         10.2775        0.955182 
        4.00554         10.1689         0.94581 
        4.02125         10.0808        0.936537 
        4.03698         10.0033        0.927374 
        4.05268         9.94196        0.918354 
        4.06839         9.82279        0.909447 
         4.0841         9.75669        0.900662 
        4.09983          9.6833         0.89198 
        4.11555          9.5869        0.883416 
        4.13124         9.51368        0.874988 
        4.14693         9.41389        0.866662 
        4.16266         9.36157        0.858426 
        4.17839          9.2703        0.850302 
        4.19408         9.21568        0.842301 
        4.20977         9.10411          0.8344 
        4.22551         9.05412        0.826581 
        4.24123         8.99605         0.81887 
        4.25691         8.90525        0.811279 
        4.27259         8.83096        0.803782 
        4.28831         8.74575        0.796364 
        4.30404         8.72325        0.789033 
        4.31974         8.61089         0.78181 
        4.33543         8.57164        0.774681 
        4.35116         8.46905        0.767624 
        4.36688         8.41918        0.760658 
        4.38255         8.36012        0.753804 
        4.39825          8.2622         0.74702 
        4.41398         8.20473        0.740306 
         4.4297         8.14627        0.733681 
        4.44541         8.09049        0.727139 
        4.46111         8.01371        0.720681 
        4.47683         7.98034        0.714297 
        4.49251         7.88958        0.708003 
        4.50819         7.83998        0.701787 
         4.5239         7.77262        0.695637 
        4.53962          7.7015        0.689552 
        4.55535         7.65578        0.683537 
        4.57106         7.59015        0.677603 
        4.58678         7.55385        0.671738 
         4.6025         7.47216        0.665941 
        4.61821         7.41142        0.660213 
        4.63391         7.36472         0.65456 
         4.6496         7.30468        0.648976 
        4.66532         7.25482        0.643448 
        4.68103         7.18359        0.637987 
        4.69673          7.1413        0.632594 
        4.71241         7.07084        0.627269 
        4.72811         7.01219        0.621997 
        4.74384          7.0014        0.616778 
        4.75955         6.93717        0.611627 
        4.77525         6.88564        0.606538 
        4.79096         6.84167        0.601501 
        4.80669          6.7645        0.596518 
         4.8224         6.72127        0.591597 
        4.83809         6.68257        0.586737 
        4.85379         6.62273        0.581929 
         4.8695         6.60317        0.577171 
        4.88521         6.51482        0.572468 
        4.90093         6.47716        0.567816 
        4.91663         6.43677        0.563221 
        4.93234         6.38239        0.558671 
        4.94807         6.32797        0.554169 
        4.96377         6.29097        0.549724 
        4.97943         6.22287        0.545338 
        4.99514         6.19133        0.540988 
        5.01086         6.15561        0.536682 
        5.02654         6.10812        0.532435 
        5.04227         6.06821         0.52822 
          5.058         6.00283         0.52405 
        5.07371         6.00045        0.519932 
        5.08942         5.93554        0.515858 
        5.10513         5.89378        0.511827 
        5.12084         5.84467        0.507838 
        5.13656         5.79761        0.503892 
        5.15225         5.75003        0.499994 
        5.16796         5.71797        0.496131 
        5.18369         5.68005        0.492306 
         5.1994          5.6353        0.488527 
        5.21509         5.59789        0.484792 
        5.23079         5.56811        0.481092 
        5.24649          5.5068        0.477433 
        5.26217         5.49319        0.473814 
        5.27788         5.43456        0.470228 
        5.29359         5.41417        0.466679 
        5.30933          5.3651        0.463161 
        5.32504         5.32757        0.459685 
        5.34073         5.29501        0.456248 
        5.35646         5.25311         0.45284 
        5.37218         5.22005        0.449466 
        5.38789         5.18284        0.446131 
        5.40357         5.13432        0.442835 
        5.41929          5.0993        0.439564 
        5.43502         5.07003        0.436326 
         5.4507         5.04285        0.433128 
        5.46639         4.99876        0.429962 
        5.48212         4.98083         0.42682 
        5.49786         4.93779        0.423706 
        5.51353          4.9094        0.420638 
        5.52921         4.86633        0.417598 
        5.54495         4.83508        0.414579 
        5.56066          4.7967        0.411592 
        5.57637         4.76909        0.408636 
        5.59207         4.73407        0.405711 
        5.60778         4.70173        0.402814 
        5.62346         4.66952        0.399949 
        5.63916         4.63936        0.397109 
        5.65487         4.60584        0.394296 
         5.6706         4.58534        0.391506 
        5.68633         4.54854        0.388742 
        5.70203          4.5142        0.386011 
        5.71773            4.49        0.383306 
        5.73344         4.45234        0.380626 
        5.74916         4.43231        0.377969 
        5.76486          4.3986         0.37534 
        5.78054         4.37525        0.372741 
        5.79626         4.33472        0.370159 
          5.812         4.31293          0.3676 
         5.8277          4.2869        0.365071 
        5.84339         4.25787        0.362567 
        5.85911         4.22944        0.360081 
        5.87484         4.19244        0.357619 
        5.89053         4.17894        0.355185 
        5.90623         4.14722        0.352772 
        5.92195         4.12828        0.350378 
        5.93767         4.09027        0.348007 
        5.95336         4.07496        0.345662 
        5.96905         4.04768        0.343339 
        5.98476         4.02286        0.341035 
        6.00048         3.99146         0.33875 
        6.01617         3.96038         0.33649 
        6.03185          3.9389        0.334253 
        6.04756         3.91342        0.332032 
        6.06331         3.89138        0.329825 
        6.07903         3.86792        0.327643 
        6.09473         3.84159        0.325483 
        6.11044         3.80843        0.323341 
        6.12616         3.80236        0.321218 
        6.14186         3.76998        0.319117 
        6.15755         3.74541        0.317034 
        6.17326         3.72687        0.314968 
        6.18898         3.69025         0.31292 
        6.20467          3.6718        0.310893 
        6.22036          3.6525        0.308885 
         6.2361         3.63329        0.306889 
         6.2518          3.6103        0.304913 
        6.26748         3.58321         0.30296 
        6.28319         3.56612        0.301018 
        6.29893         3.54652        0.299092 
        6.31463         3.52273        0.297186 
        6.33033         3.50191        0.295296 
        6.34604         3.48075        0.293422 
        6.36177         3.46235        0.291563 
        6.37747         3.45024        0.289723 
