# k  (h/Mpc)    Pcb(k)  (Mpc/h)^3    Pcb_linear(k) (Mpc/h)^3   ShotnoiseSubtracted = true
      0.0200456         11056.4         11295.6 
      0.0350414         8020.97         8274.54 
      0.0492313         6011.18         6073.84 
      0.0637834         5288.25         5216.02 
      0.0800726         4243.68         4205.14 
       0.096163         2952.37         3027.48 
       0.111083         2369.44         2443.37 
       0.126058         2230.18         2224.27 
       0.142273         1933.24         1894.82 
       0.158546         1613.28          1486.7 
        0.17375         1305.69         1267.37 
       0.188953         1273.65         1168.97 
       0.204907         1200.75         1038.93 
       0.220756         1021.58         876.167 
        0.23588         903.632         767.987 
         0.2514         794.558         706.998 
       0.267535         777.417         643.018 
       0.283568          706.94         566.783 
       0.299022           660.2         507.618 
       0.314451         622.791         468.168 
       0.330372         576.178         431.674 
       0.346141         525.735         392.366 
       0.361624         506.352         357.969 
       0.377134         472.419         331.468 
       0.392932         449.528          308.17 
       0.408854         432.725          284.81 
       0.424564         411.888         263.336 
       0.440253         398.892         245.282 
       0.455999         376.136         229.479 
       0.471626          351.58         214.633 
        0.48727         342.793         200.704 
       0.502856         331.708         188.294 
       0.518488         328.252         177.214 
       0.534347         308.918         166.793 
       0.550082         291.407          157.13 
       0.565732         288.354         148.309 
       0.581496          273.77         140.228 
       0.597222         267.596         132.771 
       0.612804          258.41         125.882 
       0.628434         249.832          119.45 
       0.644267         242.009         113.432 
       0.660051         239.047         107.869 
       0.675724         234.567         102.717 
       0.691403         228.018         97.9007 
       0.707174          218.59         93.3693 
       0.722871         216.852         89.1462 
        0.73838          212.51          85.233 
       0.754018         206.395         81.5282 
       0.769845         200.441         78.0063 
        0.78569         198.507         74.6926 
       0.801365         192.997         71.6074 
       0.817031         186.884         68.7021 
       0.832809         184.217          65.943 
       0.848511         179.872         63.3511 
       0.864097         177.209         60.9192 
       0.879701         173.281         58.6153 
       0.895507           168.9         56.4058 
       0.911279         165.715          54.317 
        0.92691         164.536         52.3535 
       0.942635         160.912         50.4782 
       0.958396          160.54         48.6925 
       0.974128         155.846         46.9981 
       0.989692         152.177         45.4026 
        1.00528         149.659         43.8802 
        1.02113         148.858          42.405 
        1.03692         143.297         41.0044 
        1.05264         142.081         39.6746 
        1.06832         139.209          38.407 
        1.08405          137.44         37.1924 
        1.09979         136.802         36.0306 
        1.11537         132.358         34.9309 
        1.13105         132.008         33.8713 
        1.14679         130.945         32.8525 
        1.16256         128.834         31.8743 
        1.17828         125.866         30.9399 
        1.19395         124.429         30.0468 
         1.2097         122.093         29.1851 
        1.22537         121.648         28.3619 
          1.241          118.98         27.5736 
        1.25666          116.85         26.8138 
        1.27241         115.348         26.0796 
        1.28819         113.797         25.3722 
        1.30392         112.528         24.6935 
        1.31957         110.928         24.0431 
        1.33529         108.801         23.4142 
        1.35108         107.559         22.8057 
        1.36674         106.521         22.2236 
         1.3824          104.54         21.6626 
        1.39811         103.629         21.1195 
        1.41389         102.054         20.5933 
        1.42964         100.794         20.0862 
        1.44531          98.456          19.599 
        1.46101         97.6441         19.1271 
        1.47667         97.0341         18.6725 
        1.49229         95.1493         18.2341 
        1.50793         94.4167         17.8096 
        1.52367         93.2902          17.396 
        1.53953         91.8256          16.993 
        1.55526         90.9399         16.6063 
        1.57092         90.4192         16.2333 
        1.58662         88.5168         15.8712 
        1.60235         87.9563         15.5195 
        1.61809         86.6479         15.1785 
        1.63369          85.439          14.851 
        1.64941         84.7234         14.5309 
        1.66519         83.0907         14.2193 
        1.68085         82.3893         13.9192 
        1.69652         80.8399         13.6278 
        1.71228          80.514         13.3432 
        1.72806         79.5138         13.0667 
        1.74368         78.6268         12.8009 
        1.75933         77.6089         12.5421 
        1.77505          76.923         12.2893 
        1.79081         75.6238         12.0432 
         1.8065         75.1298          11.805 
        1.82218         73.8958         11.5735 
        1.83797          73.366         11.3468 
        1.85367          72.374         11.1275 
        1.86928         72.0273         10.9154 
        1.88497         70.6938         10.7077 
        1.90073         69.7703         10.5048 
        1.91647         69.4022         10.3074 
        1.93218         68.3495         10.1156 
        1.94787         67.5701         9.92899 
        1.96363         66.6862         9.74645 
        1.97935         66.3547         9.56894 
        1.99499         65.2764         9.39693 
        2.01064         65.0076         9.22897 
         2.0264         63.5597         9.06413 
        2.04216         63.0969         8.90345 
        2.05781         62.3933         8.74774 
        2.07353           61.65         8.59526 
        2.08928         60.9094         8.44614 
        2.10499         60.5838         8.30101 
        2.12065         59.8499         8.15979 
        2.13633         59.4075         8.02177 
        2.15211         59.0141         7.88611 
        2.16785          57.927         7.75401 
        2.18349         57.5256         7.62581 
        2.19916         56.8747         7.50029 
        2.21489          56.386         7.37722 
        2.23063         55.6392         7.25686 
         2.2463         55.1441         7.13978 
        2.26194         54.1322         7.02561 
        2.27765         53.6702         6.91339 
        2.29341         53.1665         6.80337 
        2.30914         52.4444           6.696 
        2.32486         51.7483         6.59105 
        2.34061         51.3719          6.4882 
        2.35635         50.8327         6.38768 
        2.37203         50.1904         6.28966 
        2.38768         49.7799         6.19394 
        2.40339         49.3331         6.09989 
        2.41914         48.9577          6.0076 
        2.43483         48.2694         5.91758 
         2.4505         47.7521         5.82958 
        2.46622         47.3526         5.74309 
        2.48195         46.8583         5.65838 
        2.49759         46.2321         5.57586 
        2.51328         45.6336         5.49479 
        2.52906         45.4072         5.41484 
        2.54479         44.6872          5.3368 
        2.56049         44.2032         5.26048 
        2.57618         43.8306         5.18574 
        2.59189         43.3256         5.11236 
        2.60758         43.0594         5.04053 
        2.62325         42.5119          4.9702 
        2.63898         42.1202         4.90098 
        2.65468         41.5311         4.83324 
        2.67044         41.0805         4.76651 
        2.68618         40.7955         4.70121 
        2.70184         40.3605         4.63742 
        2.71755         40.1432         4.57467 
        2.73329         39.4949           4.513 
        2.74897         39.1101         4.45268 
        2.76462         38.5822         4.39362 
        2.78034         38.4296         4.33539 
        2.79607         37.9202         4.27818 
        2.81179         37.6229         4.22208 
        2.82749         37.2501         4.16707 
        2.84321         36.8293         4.11298 
        2.85893         36.4015         4.05989 
        2.87462         36.0087         4.00784 
        2.89033         35.7653         3.95667 
        2.90605         35.4509         3.90636 
        2.92176         35.1945         3.85696 
        2.93747         34.7766         3.80845 
        2.95318         34.3048         3.76078 
        2.96891          34.033         3.71392 
        2.98456         33.6487         3.66807 
        3.00023         33.3336         3.62294 
        3.01596         32.9823         3.57844 
        3.03164          32.819         3.53483 
        3.04738         32.5564         3.49182 
         3.0631         32.1492         3.44956 
        3.07883         31.8052           3.408 
        3.09456         31.5064         3.36715 
        3.11026         31.1897         3.32703 
        3.12596         30.9603         3.28759 
        3.14163         30.5735         3.24888 
        3.15734         30.3131         3.21072 
        3.17308         29.9774         3.17308 
        3.18879         29.7225         3.13616 
        3.20447         29.4521         3.09989 
         3.2202          29.139         3.06409 
         3.2359         28.8477         3.02892 
        3.25157         28.7686          2.9944 
        3.26729         28.4512         2.96032 
        3.28304         28.0579         2.92671 
        3.29877         27.7655         2.89368 
        3.31446         27.5677         2.86123 
        3.33014         27.3167         2.82931 
        3.34585         27.1255         2.79785 
        3.36158         26.7841         2.76681 
        3.37727         26.5217         2.73636 
        3.39294         26.3795         2.70639 
        3.40867         26.1285         2.67678 
        3.42439         25.8202         2.64763 
        3.44008         25.5973         2.61897 
        3.45578         25.4537         2.59073 
        3.47153         25.0585         2.56284 
        3.48724         24.8513         2.53542 
        3.50292         24.7016         2.50847 
        3.51859         24.4394         2.48193 
        3.53431         24.2156          2.4557 
        3.55007         23.9766         2.42979 
        3.56577         23.7599         2.40436 
        3.58146         23.6366          2.3793 
        3.59719          23.293         2.35456 
        3.61292         23.1046         2.33018 
        3.62859         22.8819         2.30623 
        3.64429         22.6937         2.28259 
        3.66003         22.5375         2.25921 
        3.67578         22.2685         2.23617 
        3.69146         22.1002         2.21354 
        3.70712          21.849         2.19127 
        3.72284         21.7917         2.16923 
        3.73853         21.4828         2.14753 
        3.75422         21.2913         2.12613 
        3.76993         21.1639           2.105 
        3.78564         20.9174         2.08418 
        3.80137         20.7721          2.0636 
        3.81707         20.5633         2.04335 
        3.83279         20.4283         2.02336 
        3.84853         20.2001         2.00361 
        3.86424         20.0396         1.98416 
        3.87992         19.8761         1.96501 
        3.89561         19.6555         1.94611 
        3.91134         19.5235         1.92742 
        3.92704         19.3861           1.909 
        3.94273         19.1843         1.89085 
        3.95845         18.9941          1.8729 
        3.97418         18.8751         1.85519 
        3.98988         18.6798         1.83773 
        4.00554         18.5325         1.82054 
        4.02125         18.3685         1.80353 
        4.03698         18.2406         1.78671 
        4.05268         18.0286         1.77015 
        4.06839         17.8902         1.75379 
         4.0841         17.7563         1.73765 
        4.09983         17.5586         1.72168 
        4.11555         17.4552         1.70593 
        4.13124         17.3397         1.69042 
        4.14693         17.1277         1.67509 
        4.16266         16.9993         1.65992 
        4.17839         16.8644         1.64495 
        4.19408         16.6663          1.6302 
        4.20977          16.606         1.61563 
        4.22551         16.4612          1.6012 
        4.24123         16.3221         1.58696 
        4.25691          16.201         1.57294 
        4.27259         16.0241         1.55909 
        4.28831         15.8483         1.54538 
        4.30404         15.7954         1.53182 
        4.31974         15.6211         1.51846 
        4.33543         15.5079         1.50527 
        4.35116          15.387          1.4922 
        4.36688         15.2908         1.47929 
        4.38255         15.1404         1.46659 
        4.39825         15.0029         1.45401 
        4.41398         14.9235         1.44156 
         4.4297         14.7437         1.42927 
        4.44541         14.6508         1.41712 
        4.46111         14.5081         1.40513 
        4.47683         14.4212         1.39327 
        4.49251         14.3109         1.38157 
        4.50819          14.177         1.37001 
         4.5239         14.0842         1.35857 
        4.53962         13.9465         1.34725 
        4.55535         13.8378         1.33605 
        4.57106          13.729           1.325 
        4.58678         13.6133         1.31407 
         4.6025         13.4966         1.30326 
        4.61821         13.4114         1.29258 
        4.63391         13.3029         1.28204 
         4.6496         13.1935         1.27161 
        4.66532         13.0779         1.26129 
        4.68103         12.9592         1.25109 
        4.69673         12.8931         1.24102 
        4.71241         12.7658         1.23106 
        4.72811         12.6672          1.2212 
        4.74384         12.5845         1.21144 
        4.75955         12.4796          1.2018 
        4.77525         12.3711         1.19227 
        4.79096         12.3022         1.18284 
        4.80669         12.2023          1.1735 
         4.8224         12.0836         1.16428 
        4.83809         12.0009         1.15516 
        4.85379         11.9218         1.14614 
         4.8695         11.8394         1.13721 
        4.88521         11.7287         1.12838 
        4.90093         11.6427         1.11965 
        4.91663         11.5622         1.11101 
        4.93234         11.4633         1.10246 
        4.94807         11.3937           1.094 
        4.96377         11.2791         1.08564 
        4.97943         11.1888         1.07738 
        4.99514         11.1231         1.06919 
        5.01086         11.0613         1.06109 
        5.02654         10.9779         1.05308 
        5.04227         10.8786         1.04514 
          5.058          10.781         1.03728 
        5.07371         10.7252         1.02951 
        5.08942         10.6361         1.02183 
        5.10513         10.5588         1.01422 
        5.12084         10.4711         1.00669 
        5.13656         10.4067        0.999235 
        5.15225         10.3085         0.99187 
        5.16796         10.2521        0.984569 
        5.18369         10.1795        0.977336 
         5.1994         10.0766         0.97019 
        5.21509         10.0139        0.963122 
        5.23079         9.94992        0.956117 
        5.24649         9.88134        0.949189 
        5.26217         9.80726        0.942335 
        5.27788         9.72599        0.935539 
        5.29359         9.66991        0.928811 
        5.30933         9.55902         0.92214 
        5.32504         9.51959        0.915546 
        5.34073         9.46651        0.909025 
        5.35646         9.37278        0.902555 
        5.37218         9.31443        0.896148 
        5.38789         9.25626        0.889814 
        5.40357         9.19826        0.883549 
        5.41929         9.12817        0.877332 
        5.43502           9.035        0.871174 
         5.4507         8.98599        0.865091 
        5.46639         8.92729        0.859066 
        5.48212         8.86463        0.853085 
        5.49786         8.81146        0.847155 
        5.51353         8.74155        0.841311 
        5.52921         8.68278        0.835517 
        5.54495         8.61772        0.829762 
        5.56066          8.5574        0.824067 
        5.57637         8.49053        0.818428 
        5.59207          8.4505        0.812847 
        5.60778         8.37841        0.807316 
        5.62346         8.32199        0.801846 
        5.63916         8.26055        0.796422 
        5.65487         8.21149        0.791045 
         5.6706         8.13924        0.785713 
        5.68633         8.08048        0.780428 
        5.70203         8.05099        0.775204 
        5.71773         7.97733        0.770029 
        5.73344         7.91574        0.764899 
        5.74916         7.87893        0.759812 
        5.76486         7.83916        0.754778 
        5.78054          7.7644        0.749799 
        5.79626          7.7049        0.744851 
          5.812         7.65383        0.739943 
         5.8277         7.60855        0.735095 
        5.84339         7.54847         0.73029 
        5.85911         7.50754         0.72552 
        5.87484         7.46376        0.720794 
        5.89053         7.41796        0.716119 
        5.90623         7.35652        0.711485 
        5.92195         7.30287        0.706884 
        5.93767         7.26134        0.702327 
        5.95336         7.21124        0.697818 
        5.96905          7.1586        0.693351 
        5.98476         7.11215        0.688917 
        6.00048         7.07517        0.684521 
        6.01617         7.02447         0.68017 
        6.03185         6.96596        0.675863 
        6.04756         6.92772        0.671583 
        6.06331         6.87632        0.667331 
        6.07903         6.83169        0.663126 
        6.09473         6.79483        0.658961 
        6.11044          6.7471        0.654828 
        6.12616         6.71329        0.650733 
        6.14186         6.66725        0.646676 
        6.15755         6.62763        0.642655 
        6.17326         6.57248        0.638666 
        6.18898         6.51555        0.634709 
        6.20467         6.48696        0.630793 
        6.22036          6.4467        0.626911 
         6.2361         6.39465        0.623051 
         6.2518         6.36287        0.619231 
        6.26748         6.32688        0.615452 
        6.28319         6.28027        0.611694 
        6.29893         6.23476        0.607964 
        6.31463         6.20577        0.604273 
        6.33033          6.1624        0.600613 
        6.34604         6.12801        0.596982 
        6.36177         6.09287        0.593378 
        6.37747         6.04977         0.58981 
