# k  (h/Mpc)    Pcb(k)  (Mpc/h)^3    Pcb_linear(k) (Mpc/h)^3   ShotnoiseSubtracted = true
      0.0200456         13847.1         14165.3 
      0.0350414         10007.5         10376.7 
      0.0492313         7509.47         7616.93 
      0.0637834         6629.09         6541.17 
      0.0800726         5313.97         5273.47 
       0.096163         3685.75         3796.62 
       0.111083         2964.16         3064.12 
       0.126058         2790.47         2789.36 
       0.142273         2420.51         2376.21 
       0.158546         2048.87          1864.4 
        0.17375         1653.03         1589.35 
       0.188953         1619.68         1465.95 
       0.204907         1528.13         1302.87 
       0.220756         1309.52         1098.76 
        0.23588         1162.08         963.097 
         0.2514         1018.24         886.614 
       0.267535         1006.77         806.379 
       0.283568         915.718         710.777 
       0.299022         859.595          636.58 
       0.314451          817.06         587.109 
       0.330372         754.727         541.342 
       0.346141         697.255         492.048 
       0.361624          671.76         448.913 
       0.377134         625.343         415.679 
       0.392932         601.158         386.462 
       0.408854         580.795         357.167 
       0.424564         548.278         330.238 
       0.440253         536.246         307.596 
       0.455999         507.013         287.779 
       0.471626         479.029         269.161 
        0.48727         465.354         251.693 
       0.502856         451.738         236.131 
       0.518488         447.773         222.236 
       0.534347         419.098         209.167 
       0.550082         399.757         197.049 
       0.565732         399.245         185.987 
       0.581496         376.935         175.853 
       0.597222         370.709         166.502 
       0.612804          359.36         157.863 
       0.628434         346.559         149.797 
       0.644267         336.859         142.249 
       0.660051         330.212         135.274 
       0.675724         325.826         128.813 
       0.691403          316.31         122.773 
       0.707174         304.899          117.09 
       0.722871         301.619         111.794 
        0.73838         297.013         106.887 
       0.754018         288.737         102.241 
       0.769845         279.262         97.8242 
        0.78569          279.33         93.6685 
       0.801365         270.261         89.7996 
       0.817031         262.395         86.1562 
       0.832809         259.685         82.6961 
       0.848511         253.006         79.4457 
       0.864097         249.877          76.396 
       0.879701         245.479         73.5068 
       0.895507          239.47         70.7359 
       0.911279         232.602         68.1165 
        0.92691         232.811         65.6542 
       0.942635         227.352         63.3024 
       0.958396          225.49          61.063 
       0.974128         220.386         58.9381 
       0.989692         215.489         56.9373 
        1.00528         212.945         55.0282 
        1.02113         211.453         53.1782 
        1.03692         205.418         51.4217 
        1.05264         201.523         49.7541 
        1.06832         198.141         48.1644 
        1.08405         195.076         46.6413 
        1.09979          193.75         45.1843 
        1.11537         188.423         43.8052 
        1.13105          186.19         42.4765 
        1.14679         186.005         41.1988 
        1.16256         182.559         39.9721 
        1.17828          178.72         38.8003 
        1.19395         176.372         37.6803 
         1.2097         175.249         36.5997 
        1.22537         171.667         35.5674 
          1.241         169.669         34.5788 
        1.25666         166.822          33.626 
        1.27241         164.069         32.7052 
        1.28819         162.424         31.8181 
        1.30392         160.258          30.967 
        1.31957         158.994         30.1514 
        1.33529         154.894         29.3627 
        1.35108          153.88         28.5996 
        1.36674         152.578         27.8695 
         1.3824         149.403         27.1661 
        1.39811         149.283          26.485 
        1.41389         146.123         25.8251 
        1.42964         143.279         25.1892 
        1.44531         141.084         24.5782 
        1.46101         139.834         23.9865 
        1.47667         137.726         23.4163 
        1.49229         136.275         22.8666 
        1.50793         135.077         22.3342 
        1.52367         133.445         21.8155 
        1.53953         130.824         21.3102 
        1.55526         129.517         20.8252 
        1.57092         128.025         20.3575 
        1.58662         125.924         19.9033 
        1.60235          125.22         19.4623 
        1.61809          123.04         19.0347 
        1.63369         121.788         18.6239 
        1.64941         120.598         18.2226 
        1.66519         118.458         17.8318 
        1.68085         117.665         17.4554 
        1.69652         114.613           17.09 
        1.71228         115.057         16.7331 
        1.72806         113.212         16.3863 
        1.74368         112.013          16.053 
        1.75933         110.355         15.7284 
        1.77505          109.12         15.4115 
        1.79081         107.699         15.1028 
         1.8065         106.548         14.8041 
        1.82218         104.526         14.5138 
        1.83797         103.328         14.2295 
        1.85367         102.297         13.9544 
        1.86928         101.644         13.6884 
        1.88497         99.5267         13.4281 
        1.90073         99.2439         13.1736 
        1.91647         97.5625          12.926 
        1.93218         96.5531         12.6855 
        1.94787         95.5339         12.4515 
        1.96363         94.1114         12.2226 
        1.97935         93.0319              12 
        1.99499         92.0725         11.7843 
        2.01064         91.0388         11.5736 
         2.0264          89.431         11.3669 
        2.04216          88.557         11.1654 
        2.05781         87.7066         10.9701 
        2.07353         86.1565         10.7789 
        2.08928         85.0605         10.5919 
        2.10499         84.3798         10.4099 
        2.12065         83.9244         10.2328 
        2.13633         82.6962         10.0597 
        2.15211         81.6806         9.88961 
        2.16785         80.7372         9.72395 
        2.18349         79.6922         9.56318 
        2.19916         78.8857         9.40577 
        2.21489         77.9834         9.25143 
        2.23063         77.2132          9.1005 
         2.2463         76.2862         8.95367 
        2.26194         75.7051          8.8105 
        2.27765         74.6506         8.66977 
        2.29341         73.7349         8.53179 
        2.30914          72.635         8.39715 
        2.32486         71.8212         8.26553 
        2.34061         71.0784         8.13656 
        2.35635         70.5743          8.0105 
        2.37203         69.2875         7.88758 
        2.38768         68.7979         7.76753 
        2.40339         67.7847         7.64959 
        2.41914         67.3546         7.53386 
        2.43483         66.9086         7.42096 
         2.4505         65.9123         7.31061 
        2.46622         65.2192         7.20215 
        2.48195         64.4232         7.09592 
        2.49759         63.4396         6.99242 
        2.51328         63.0237         6.89076 
        2.52906         62.4739          6.7905 
        2.54479         61.6523         6.69264 
        2.56049         60.8986         6.59693 
        2.57618         60.4163          6.5032 
        2.59189         59.7118         6.41118 
        2.60758         59.2658          6.3211 
        2.62325         58.5196          6.2329 
        2.63898         57.9487         6.14609 
        2.65468         57.3392         6.06114 
        2.67044         56.5091         5.97746 
        2.68618         56.3057         5.89558 
        2.70184         55.3296         5.81557 
        2.71755          55.258         5.73688 
        2.73329         54.1237         5.65954 
        2.74897           53.68          5.5839 
        2.76462         53.2199         5.50983 
        2.78034         52.7052         5.43682 
        2.79607         51.8895         5.36507 
        2.81179         51.4889         5.29472 
        2.82749         50.7408         5.22573 
        2.84321         50.4609          5.1579 
        2.85893         49.7908         5.09132 
        2.87462         49.1698         5.02605 
        2.89033         48.7818         4.96187 
        2.90605         48.1535         4.89878 
        2.92176         47.8011         4.83683 
        2.93747         47.3167           4.776 
        2.95318         46.7837         4.71622 
        2.96891         46.0412         4.65745 
        2.98456         45.9396         4.59996 
        3.00023         45.3865         4.54336 
        3.01596         45.0306         4.48756 
        3.03164          44.338         4.43286 
        3.04738         44.1278         4.37893 
         3.0631         43.5284         4.32593 
        3.07883         43.1651         4.27382 
        3.09456         42.7433         4.22258 
        3.11026         42.1239         4.17228 
        3.12596         41.8835         4.12281 
        3.14163         41.4118         4.07427 
        3.15734         40.7953         4.02641 
        3.17308         40.6604         3.97921 
        3.18879         40.3048         3.93291 
        3.20447         39.6973         3.88743 
         3.2202         39.2874         3.84253 
         3.2359         38.9542         3.79843 
        3.25157         38.5111         3.75514 
        3.26729           38.29          3.7124 
        3.28304         37.8078         3.67025 
        3.29877         37.5169         3.62883 
        3.31446         37.2187         3.58814 
        3.33014         36.8292         3.54811 
        3.34585         36.4205         3.50865 
        3.36158         36.1437         3.46974 
        3.37727         35.7546         3.43154 
        3.39294         35.3776         3.39397 
        3.40867         35.0507         3.35682 
        3.42439         34.6739         3.32027 
        3.44008          34.588         3.28433 
        3.45578         33.9963         3.24891 
        3.47153         33.7766         3.21394 
        3.48724         33.3715         3.17956 
        3.50292         33.1119         3.14576 
        3.51859          32.746         3.11248 
        3.53431         32.5334         3.07958 
        3.55007          32.227         3.04708 
        3.56577         31.9334         3.01519 
        3.58146         31.6917         2.98378 
        3.59719          31.277         2.95274 
        3.61292         31.0184         2.92217 
        3.62859         30.7306         2.89214 
        3.64429         30.3684         2.86249 
        3.66003         30.1919         2.83317 
        3.67578         29.9023         2.80428 
        3.69146         29.6388          2.7759 
        3.70712          29.361         2.74797 
        3.72284         29.1773         2.72033 
        3.73853         28.8521         2.69312 
        3.75422         28.5684         2.66628 
        3.76993          28.443         2.63979 
        3.78564         28.1397         2.61367 
        3.80137         27.9166         2.58787 
        3.81707         27.5984         2.56248 
        3.83279         27.3503         2.53741 
        3.84853         27.0069         2.51264 
        3.86424         26.7781         2.48825 
        3.87992          26.564         2.46423 
        3.89561         26.3032         2.44053 
        3.91134         26.1241         2.41709 
        3.92704         25.9033           2.394 
        3.94273         25.5989         2.37123 
        3.95845         25.4154         2.34872 
        3.97418         25.2259          2.3265 
        3.98988         24.9173         2.30461 
        4.00554          24.745         2.28306 
        4.02125         24.5947         2.26173 
        4.03698         24.2806         2.24064 
        4.05268          24.122         2.21987 
        4.06839         23.8816         2.19935 
         4.0841         23.7184          2.1791 
        4.09983         23.5325         2.15908 
        4.11555         23.2977         2.13933 
        4.13124         23.0484         2.11988 
        4.14693         22.8421         2.10065 
        4.16266         22.6252         2.08163 
        4.17839         22.4449         2.06286 
        4.19408         22.2543         2.04436 
        4.20977         22.1772         2.02608 
        4.22551         21.9087         2.00799 
        4.24123          21.724         1.99014 
        4.25691         21.5407         1.97256 
        4.27259         21.3645         1.95519 
        4.28831         21.1766         1.93799 
        4.30404         20.9866         1.92099 
        4.31974         20.8021         1.90423 
        4.33543         20.6562         1.88769 
        4.35116         20.5377          1.8713 
        4.36688         20.3258         1.85512 
        4.38255         20.1501         1.83919 
        4.39825         20.0151         1.82341 
        4.41398         19.8046          1.8078 
         4.4297         19.6433         1.79238 
        4.44541         19.5094         1.77715 
        4.46111         19.3237         1.76211 
        4.47683         19.1738         1.74724 
        4.49251         19.0543         1.73257 
        4.50819         18.8566         1.71807 
         4.5239         18.7476         1.70372 
        4.53962          18.533         1.68952 
        4.55535          18.424         1.67548 
        4.57106         18.2362         1.66162 
        4.58678         18.1537         1.64791 
         4.6025         17.9762         1.63436 
        4.61821         17.8464         1.62097 
        4.63391         17.7055         1.60774 
         4.6496         17.5194         1.59467 
        4.66532         17.3677         1.58173 
        4.68103         17.2535         1.56894 
        4.69673         17.1731          1.5563 
        4.71241         16.9907         1.54382 
        4.72811         16.8389         1.53145 
        4.74384         16.7237         1.51921 
        4.75955         16.5897         1.50712 
        4.77525         16.4711         1.49517 
        4.79096         16.3174         1.48334 
        4.80669         16.2249         1.47163 
         4.8224         16.0469         1.46007 
        4.83809         15.9134         1.44864 
        4.85379         15.8008         1.43732 
         4.8695          15.747         1.42613 
        4.88521         15.5599         1.41505 
        4.90093         15.4837          1.4041 
        4.91663         15.3615         1.39327 
        4.93234         15.1826         1.38255 
        4.94807         15.1119         1.37193 
        4.96377         14.9699         1.36145 
        4.97943         14.8686          1.3511 
        4.99514         14.7266         1.34083 
        5.01086         14.6427         1.33066 
        5.02654         14.5252         1.32062 
        5.04227         14.4025         1.31066 
          5.058         14.3169          1.3008 
        5.07371         14.2143         1.29107 
        5.08942         14.0946         1.28143 
        5.10513         13.9873         1.27189 
        5.12084         13.8783         1.26244 
        5.13656         13.7617         1.25309 
        5.15225         13.6823         1.24386 
        5.16796          13.578          1.2347 
        5.18369         13.4474         1.22563 
         5.1994         13.3821         1.21667 
        5.21509         13.2657         1.20781 
        5.23079         13.1717         1.19902 
        5.24649         13.0803         1.19033 
        5.26217         12.9707         1.18174 
        5.27788         12.8695         1.17322 
        5.29359         12.8149         1.16478 
        5.30933         12.7063         1.15641 
        5.32504         12.6081         1.14814 
        5.34073         12.5215         1.13997 
        5.35646          12.426         1.13185 
        5.37218         12.3339         1.12382 
        5.38789         12.2592         1.11587 
        5.40357         12.1721         1.10802 
        5.41929         12.0655         1.10022 
        5.43502         12.0163          1.0925 
         5.4507         11.8856         1.08487 
        5.46639         11.8074         1.07732 
        5.48212         11.7276         1.06982 
        5.49786         11.6545         1.06238 
        5.51353         11.5572         1.05505 
        5.52921         11.4755         1.04778 
        5.54495          11.388         1.04057 
        5.56066         11.2979         1.03343 
        5.57637         11.2183         1.02635 
        5.59207         11.1687         1.01935 
        5.60778         11.0734         1.01242 
        5.62346         11.0183         1.00556 
        5.63916         10.9219        0.998756 
        5.65487         10.8489        0.992014 
         5.6706         10.7822        0.985327 
        5.68633         10.6995        0.978699 
        5.70203         10.6164        0.972148 
        5.71773         10.5465        0.965658 
        5.73344         10.4672        0.959225 
        5.74916         10.3787        0.952845 
        5.76486         10.3299        0.946533 
        5.78054         10.2577        0.940288 
        5.79626         10.1781        0.934083 
          5.812         10.1079        0.927929 
         5.8277         10.0374        0.921848 
        5.84339         9.99065        0.915823 
        5.85911          9.9012        0.909841 
        5.87484         9.83683        0.903914 
        5.89053         9.77198        0.898053 
        5.90623         9.69324        0.892241 
        5.92195         9.63767        0.886471 
        5.93767         9.57788        0.880756 
        5.95336          9.5236        0.875102 
        5.96905         9.43942          0.8695 
        5.98476         9.39156         0.86394 
        6.00048          9.3135        0.858427 
        6.01617         9.26616         0.85297 
        6.03185         9.19971        0.847569 
        6.04756         9.12305        0.842201 
        6.06331         9.07953        0.836869 
        6.07903         9.01288        0.831595 
        6.09473         8.95537        0.826372 
        6.11044         8.89367         0.82119 
        6.12616         8.83356        0.816054 
        6.14186         8.76579        0.810967 
        6.15755         8.71361        0.805925 
        6.17326         8.66386        0.800922 
        6.18898         8.61128        0.795959 
        6.20467         8.56376        0.791049 
        6.22036         8.47698         0.78618 
         6.2361         8.43763         0.78134 
         6.2518         8.38492        0.776549 
        6.26748         8.31906         0.77181 
        6.28319         8.26836        0.767097 
        6.29893         8.21055         0.76242 
        6.31463         8.17475        0.757791 
        6.33033         8.12114        0.753202 
        6.34604         8.07076        0.748648 
        6.36177         8.00636        0.744128 
        6.37747         7.95862        0.739654 
