# k  (h/Mpc)    Pcb(k)  (Mpc/h)^3    Pcb_linear(k) (Mpc/h)^3   ShotnoiseSubtracted = true
      0.0200456         9413.29         9569.35 
      0.0350414         7179.12            7010 
      0.0492313         5104.97         5145.61 
      0.0637834         4261.22         4418.89 
      0.0800726         3410.44         3562.49 
       0.096163         2638.17         2564.81 
       0.111083         2164.52         2069.97 
       0.126058            1848         1884.35 
       0.142273         1595.51         1605.25 
       0.158546         1304.14         1259.49 
        0.17375         1146.22         1073.68 
       0.188953         1067.01         990.323 
       0.204907         914.022         880.153 
       0.220756         817.798         742.268 
        0.23588         728.301          650.62 
         0.2514         657.161         598.952 
       0.267535         636.879         544.749 
       0.283568         556.731         480.165 
       0.299022         529.951         430.042 
       0.314451         531.038         396.621 
       0.330372          458.78         365.704 
       0.346141         426.444         332.403 
       0.361624         407.039         303.263 
       0.377134         378.162         280.812 
       0.392932         369.134         261.074 
       0.408854         350.805         241.285 
       0.424564         338.084         223.092 
       0.440253         305.807         207.797 
       0.455999         292.226         194.409 
       0.471626         290.645         181.832 
        0.48727         277.711         170.031 
       0.502856         254.362         159.519 
       0.518488         254.854         150.131 
       0.534347         237.223         141.303 
       0.550082         232.054         133.117 
       0.565732         229.806         125.644 
       0.581496         215.265         118.798 
       0.597222         210.432         112.481 
       0.612804         204.646         106.644 
       0.628434         197.946         101.195 
       0.644267         189.122         96.0965 
       0.660051         184.769         91.3843 
       0.675724         183.107         87.0196 
       0.691403          178.38         82.9391 
       0.707174         172.585         79.1003 
       0.722871         169.895         75.5226 
        0.73838         167.729         72.2074 
       0.754018         157.796         69.0688 
       0.769845         157.579         66.0851 
        0.78569         153.625         63.2778 
       0.801365         149.249         60.6641 
       0.817031         145.087         58.2028 
       0.832809         142.832         55.8654 
       0.848511         139.585         53.6695 
       0.864097         137.342         51.6093 
       0.879701         135.437         49.6575 
       0.895507         131.228         47.7856 
       0.911279         128.665         46.0161 
        0.92691          125.82         44.3527 
       0.942635         123.459         42.7639 
       0.958396         122.044         41.2511 
       0.974128         119.408         39.8156 
       0.989692         117.094          38.464 
        1.00528         115.324         37.1743 
        1.02113         112.312         35.9245 
        1.03692          112.08         34.7379 
        1.05264          110.59         33.6114 
        1.06832         106.993         32.5375 
        1.08405         106.335         31.5085 
        1.09979         105.447         30.5243 
        1.11537         102.749         29.5926 
        1.13105         101.424          28.695 
        1.14679         99.6884         27.8318 
        1.16256         97.8411         27.0031 
        1.17828         96.8352         26.2115 
        1.19395         94.2604         25.4549 
         1.2097         94.3303         24.7249 
        1.22537         92.1156         24.0275 
          1.241         91.8167         23.3597 
        1.25666         88.7665          22.716 
        1.27241         88.3743          22.094 
        1.28819         87.6704         21.4947 
        1.30392         85.8493         20.9197 
        1.31957         85.2043         20.3688 
        1.33529         84.0352          19.836 
        1.35108         83.2969         19.3204 
        1.36674         82.0867         18.8273 
         1.3824         81.1073         18.3521 
        1.39811         79.3568          17.892 
        1.41389         78.3388         17.4462 
        1.42964         77.5104         17.0166 
        1.44531         76.7628         16.6038 
        1.46101         75.9273         16.2041 
        1.47667         74.8113         15.8189 
        1.49229         73.9695         15.4475 
        1.50793         73.0536         15.0878 
        1.52367         72.5246         14.7375 
        1.53953         71.1816         14.3961 
        1.55526         70.2336         14.0684 
        1.57092         70.0511         13.7525 
        1.58662         68.9241         13.4457 
        1.60235         67.9865         13.1478 
        1.61809         66.9624         12.8589 
        1.63369         66.1717         12.5814 
        1.64941         65.8549         12.3103 
        1.66519         64.3997         12.0463 
        1.68085         64.1644          11.792 
        1.69652         62.6746         11.5451 
        1.71228         62.6096         11.3041 
        1.72806         61.7412         11.0698 
        1.74368          60.907         10.8446 
        1.75933         60.5177         10.6253 
        1.77505         59.9396         10.4112 
        1.79081         59.0407         10.2027 
         1.8065         58.4736         10.0009 
        1.82218         56.9603         9.80481 
        1.83797          56.712         9.61272 
        1.85367         56.3256         9.42692 
        1.86928         55.9166         9.24723 
        1.88497         54.7834         9.07132 
        1.90073         54.1462         8.89941 
        1.91647         53.9475         8.73218 
        1.93218         53.6701         8.56967 
        1.94787         52.7072          8.4116 
        1.96363         51.7948         8.25696 
        1.97935         51.5183         8.10658 
        1.99499         50.8802         7.96086 
        2.01064         50.3353         7.81857 
         2.0264         50.0143         7.67891 
        2.04216         49.2722         7.54279 
        2.05781         48.6574         7.41088 
        2.07353         47.9796          7.2817 
        2.08928         47.8992         7.15537 
        2.10499         47.4361         7.03242 
        2.12065         46.7662         6.91278 
        2.13633         46.4932         6.79586 
        2.15211         45.6879         6.68092 
        2.16785         45.0662         6.56901 
        2.18349         44.6166         6.46041 
        2.19916         44.2055         6.35407 
        2.21489         43.9038          6.2498 
        2.23063         43.3662         6.14784 
         2.2463         43.0823         6.04865 
        2.26194         42.3808         5.95193 
        2.27765         41.9497         5.85686 
        2.29341         41.5313         5.76365 
        2.30914         41.1678          5.6727 
        2.32486         40.5021         5.58378 
        2.34061         40.3069         5.49665 
        2.35635         39.8815         5.41149 
        2.37203         39.5566         5.32845 
        2.38768         39.1837         5.24736 
        2.40339         38.8834         5.16768 
        2.41914         38.4204          5.0895 
        2.43483          38.052         5.01323 
         2.4505         37.6697         4.93868 
        2.46622         37.2352         4.86541 
        2.48195         36.9819         4.79365 
        2.49759         36.3913         4.72373 
        2.51328          36.098         4.65505 
        2.52906           35.88         4.58732 
        2.54479         35.4944         4.52121 
        2.56049         35.2785         4.45656 
        2.57618         34.7678         4.39324 
        2.59189         34.3658         4.33107 
        2.60758         34.1435         4.27022 
        2.62325         33.7734         4.21063 
        2.63898         33.6234         4.15199 
        2.65468         33.0995         4.09461 
        2.67044         32.8357         4.03807 
        2.68618         32.5514         3.98276 
        2.70184         32.1511         3.92871 
        2.71755         31.9331         3.87555 
        2.73329         31.5279          3.8233 
        2.74897         31.2538         3.77221 
        2.76462         31.0015         3.72217 
        2.78034         30.6401         3.67284 
        2.79607         30.3762         3.62437 
        2.81179         30.1438         3.57685 
        2.82749         29.8062         3.53024 
        2.84321         29.5479         3.48442 
        2.85893         29.3258         3.43944 
        2.87462         29.0256         3.39535 
        2.89033          28.769         3.35199 
        2.90605         28.4135         3.30937 
        2.92176         28.1773         3.26752 
        2.93747         27.9164         3.22643 
        2.95318         27.7877         3.18604 
        2.96891         27.4573         3.14634 
        2.98456         27.1808          3.1075 
        3.00023         26.8561         3.06927 
        3.01596         26.5329         3.03157 
        3.03164         26.3872         2.99462 
        3.04738         26.2027         2.95819 
         3.0631         25.9442         2.92238 
        3.07883         25.6107         2.88718 
        3.09456         25.4355         2.85257 
        3.11026          25.104         2.81858 
        3.12596         24.8446         2.78517 
        3.14163         24.6213         2.75237 
        3.15734         24.4668         2.72004 
        3.17308         24.2719         2.68816 
        3.18879         24.0427         2.65688 
        3.20447          23.838         2.62615 
         3.2202         23.5359         2.59582 
         3.2359         23.3798         2.56603 
        3.25157         23.1397         2.53679 
        3.26729         22.9963         2.50791 
        3.28304         22.7784         2.47944 
        3.29877         22.5347         2.45145 
        3.31446         22.3282         2.42397 
        3.33014         22.0888         2.39693 
        3.34585         22.0147         2.37027 
        3.36158         21.7213         2.34398 
        3.37727         21.5591         2.31818 
        3.39294         21.3982         2.29279 
        3.40867         21.2023          2.2677 
        3.42439         20.9669         2.24301 
        3.44008         20.7772         2.21873 
        3.45578         20.5859          2.1948 
        3.47153         20.4003         2.17118 
        3.48724          20.251         2.14795 
        3.50292         20.0996         2.12512 
        3.51859         19.8836         2.10263 
        3.53431         19.7141         2.08041 
        3.55007         19.5035         2.05846 
        3.56577         19.4034         2.03691 
        3.58146         19.1849         2.01569 
        3.59719         19.0623         1.99472 
        3.61292         18.8774         1.97407 
        3.62859         18.6482         1.95379 
        3.64429         18.5282         1.93376 
        3.66003          18.406         1.91395 
        3.67578         18.2839         1.89443 
        3.69146         18.0251         1.87526 
        3.70712          17.912         1.85639 
        3.72284         17.7268         1.83772 
        3.73853         17.6534         1.81934 
        3.75422         17.4036         1.80121 
        3.76993         17.2836         1.78331 
        3.78564         17.1502         1.76567 
        3.80137         17.0118         1.74824 
        3.81707         16.8063         1.73108 
        3.83279         16.7471         1.71415 
        3.84853         16.5538         1.69741 
        3.86424         16.3624         1.68094 
        3.87992         16.2986         1.66471 
        3.89561         16.1537          1.6487 
        3.91134          16.019         1.63287 
        3.92704         15.8683         1.61726 
        3.94273         15.7471         1.60188 
        3.95845         15.6129         1.58668 
        3.97418         15.4233         1.57167 
        3.98988          15.345         1.55688 
        4.00554         15.2187         1.54232 
        4.02125         15.0765         1.52791 
        4.03698         14.9871         1.51366 
        4.05268          14.838         1.49963 
        4.06839         14.6874         1.48577 
         4.0841          14.598         1.47209 
        4.09983         14.4407         1.45857 
        4.11555         14.3169         1.44522 
        4.13124         14.2081         1.43208 
        4.14693         14.1026          1.4191 
        4.16266          13.986         1.40625 
        4.17839         13.8656         1.39356 
        4.19408         13.7811         1.38107 
        4.20977         13.6333         1.36872 
        4.22551         13.5457          1.3565 
        4.24123         13.4305         1.34444 
        4.25691         13.3222         1.33256 
        4.27259         13.2031         1.32083 
        4.28831         13.1356         1.30921 
        4.30404           13.02         1.29772 
        4.31974         12.8856          1.2864 
        4.33543         12.7535         1.27523 
        4.35116         12.7038         1.26416 
        4.36688         12.5436         1.25322 
        4.38255         12.4546         1.24246 
        4.39825         12.3742         1.23181 
        4.41398         12.2736         1.22126 
         4.4297         12.1829         1.21084 
        4.44541         12.1037         1.20055 
        4.46111         11.9769         1.19039 
        4.47683         11.8612         1.18035 
        4.49251         11.7825         1.17044 
        4.50819         11.6901         1.16064 
         4.5239         11.6356         1.15095 
        4.53962         11.4976         1.14136 
        4.55535         11.4418         1.13187 
        4.57106         11.3391         1.12251 
        4.58678         11.2745         1.11325 
         4.6025         11.1725         1.10409 
        4.61821         11.0922         1.09505 
        4.63391          10.984         1.08611 
         4.6496         10.9013         1.07728 
        4.66532          10.823         1.06854 
        4.68103         10.7201          1.0599 
        4.69673         10.6468         1.05136 
        4.71241         10.5442         1.04293 
        4.72811         10.4913         1.03457 
        4.74384         10.4152          1.0263 
        4.75955         10.3234         1.01814 
        4.77525         10.2447         1.01006 
        4.79096         10.1793         1.00207 
        4.80669         10.0864        0.994161 
         4.8224         10.0092        0.986347 
        4.83809         9.93256        0.978626 
        4.85379         9.86834        0.970985 
         4.8695         9.78062         0.96342 
        4.88521         9.70824         0.95594 
        4.90093         9.64729        0.948539 
        4.91663         9.56627        0.941224 
        4.93234         9.49646        0.933979 
        4.94807         9.43505        0.926808 
        4.96377         9.37146        0.919725 
        4.97943         9.28403        0.912733 
        4.99514         9.21563        0.905796 
        5.01086         9.14967        0.898927 
        5.02654         9.06794        0.892148 
        5.04227         8.99647         0.88542 
          5.058         8.93829        0.878759 
        5.07371         8.90056         0.87218 
        5.08942         8.79744        0.865669 
        5.10513         8.74213        0.859224 
        5.12084         8.67902        0.852843 
        5.13656          8.6311        0.846528 
        5.15225         8.53691        0.840289 
        5.16796         8.49626        0.834104 
        5.18369         8.43554        0.827976 
         5.1994         8.37987        0.821922 
        5.21509         8.31648        0.815934 
        5.23079         8.23078            0.81 
        5.24649         8.19504         0.80413 
        5.26217         8.14289        0.798324 
        5.27788         8.06677        0.792567 
        5.29359         8.02029        0.786867 
        5.30933          7.9388        0.781215 
        5.32504         7.90203        0.775629 
        5.34073         7.84469        0.770104 
        5.35646         7.79102        0.764623 
        5.37218         7.74138        0.759195 
        5.38789         7.67053        0.753829 
        5.40357         7.61172        0.748522 
        5.41929         7.58443        0.743255 
        5.43502         7.51913        0.738038 
         5.4507         7.46979        0.732885 
        5.46639         7.40823        0.727781 
        5.48212         7.35036        0.722714 
        5.49786          7.3099         0.71769 
        5.51353         7.25882        0.712739 
        5.52921         7.20663         0.70783 
        5.54495         7.15382        0.702954 
        5.56066         7.10743         0.69813 
        5.57637         7.06134        0.693353 
        5.59207         6.99999        0.688625 
        5.60778         6.96812        0.683939 
        5.62346         6.91094        0.679305 
        5.63916         6.87095         0.67471 
        5.65487         6.82374        0.670155 
         5.6706         6.77449        0.665637 
        5.68633         6.72918         0.66116 
        5.70203         6.69562        0.656735 
        5.71773         6.62753         0.65235 
        5.73344         6.58159        0.648004 
        5.74916         6.54676        0.643695 
        5.76486         6.50841         0.63943 
        5.78054         6.45811        0.635212 
        5.79626         6.41196         0.63102 
          5.812         6.36367        0.626862 
         5.8277         6.32796        0.622755 
        5.84339         6.27656        0.618685 
        5.85911         6.24227        0.614643 
        5.87484         6.20001        0.610639 
        5.89053         6.15155        0.606679 
        5.90623         6.12661        0.602753 
        5.92195         6.08495        0.598856 
        5.93767         6.03764        0.594995 
        5.95336         6.00271        0.591175 
        5.96905         5.94928        0.587391 
        5.98476         5.91918        0.583635 
        6.00048         5.87627         0.57991 
        6.01617         5.84152        0.576224 
        6.03185         5.80882        0.572575 
        6.04756         5.77703        0.568949 
        6.06331         5.72652        0.565347 
        6.07903         5.67608        0.561784 
        6.09473         5.64903        0.558256 
        6.11044         5.61806        0.554755 
        6.12616         5.57226        0.551285 
        6.14186         5.53969        0.547849 
        6.15755         5.50618        0.544442 
        6.17326         5.47744        0.541063 
        6.18898         5.44017         0.53771 
        6.20467         5.40591        0.534393 
        6.22036         5.36142        0.531104 
         6.2361         5.33338        0.527834 
         6.2518         5.30269        0.524598 
        6.26748         5.27115        0.521396 
        6.28319         5.23785        0.518212 
        6.29893         5.19813        0.515053 
        6.31463         5.16032        0.511925 
        6.33033         5.13806        0.508825 
        6.34604          5.0994        0.505749 
        6.36177          5.0684        0.502696 
        6.37747         5.04136        0.499673 
