# k  (h/Mpc)    Pcb(k)  (Mpc/h)^3    Pcb_linear(k) (Mpc/h)^3   ShotnoiseSubtracted = true
      0.0200456         2273.12         2307.11 
      0.0350414         1715.94         1690.07 
      0.0492313         1242.85         1240.58 
      0.0637834         1047.68         1065.37 
      0.0800726         841.922         858.895 
       0.096163         630.638          618.36 
       0.111083         513.376         499.057 
       0.126058         449.903         454.306 
       0.142273         383.361         387.016 
       0.158546         308.147         303.657 
        0.17375         266.681         258.859 
       0.188953         243.998         238.761 
       0.204907         209.892           212.2 
       0.220756         184.045         178.956 
        0.23588         161.964         156.861 
         0.2514          148.16         144.404 
       0.267535         137.876         131.336 
       0.283568         121.152         115.765 
       0.299022         111.059          103.68 
       0.314451         105.456          95.623 
       0.330372         94.6064          88.169 
       0.346141         86.7602         80.1403 
       0.361624         80.0242         73.1149 
       0.377134         73.4452         67.7021 
       0.392932         71.3871         62.9435 
       0.408854         65.4182         58.1722 
       0.424564         62.5658         53.7862 
       0.440253         57.2724         50.0986 
       0.455999         52.5844         46.8709 
       0.471626         49.9294         43.8386 
        0.48727         48.6026         40.9935 
       0.502856          45.427          38.459 
       0.518488         42.6648         36.1958 
       0.534347         40.2532         34.0672 
       0.550082         38.7763         32.0936 
       0.565732         37.3816         30.2919 
       0.581496         35.2155         28.6414 
       0.597222         33.3557         27.1184 
       0.612804         31.8962         25.7113 
       0.628434         31.2968         24.3975 
       0.644267         29.6659         23.1683 
       0.660051         28.2592         22.0322 
       0.675724          26.985         20.9799 
       0.691403         26.4821         19.9961 
       0.707174         25.4429         19.0706 
       0.722871         24.6485          18.208 
        0.73838         23.3602         17.4088 
       0.754018         22.2679         16.6521 
       0.769845         21.6853         15.9327 
        0.78569         21.0474         15.2559 
       0.801365         20.2929         14.6257 
       0.817031         19.6176         14.0324 
       0.832809          19.011         13.4688 
       0.848511         18.4694         12.9394 
       0.864097         17.8687         12.4427 
       0.879701         17.5838         11.9721 
       0.895507         16.9559         11.5208 
       0.911279         16.2828         11.0942 
        0.92691         15.9667         10.6932 
       0.942635         15.5913         10.3101 
       0.958396         15.0523         9.94539 
       0.974128         14.7192         9.59931 
       0.989692         14.0921         9.27344 
        1.00528         14.0055          8.9625 
        1.02113         13.5546         8.66119 
        1.03692         13.2522         8.37511 
        1.05264         12.9378          8.1035 
        1.06832          12.666         7.84459 
        1.08405          12.358         7.59652 
        1.09979         12.0637         7.35922 
        1.11537         11.7841          7.1346 
        1.13105         11.5639         6.91819 
        1.14679         11.3212         6.71009 
        1.16256         11.0493         6.51029 
        1.17828          10.852         6.31944 
        1.19395         10.6326         6.13703 
         1.2097         10.3054         5.96102 
        1.22537         10.1315         5.79289 
          1.241         9.88718         5.63188 
        1.25666         9.86655         5.47669 
        1.27241         9.64879         5.32674 
        1.28819           9.275         5.18224 
        1.30392         9.20381         5.04362 
        1.31957         9.02547         4.91078 
        1.33529         8.89281         4.78233 
        1.35108          8.7037         4.65804 
        1.36674          8.5086         4.53914 
         1.3824         8.42189         4.42457 
        1.39811         8.26356         4.31365 
        1.41389         8.07747         4.20616 
        1.42964         7.98556         4.10259 
        1.44531         7.83755         4.00307 
        1.46101         7.74996          3.9067 
        1.47667         7.58802         3.81384 
        1.49229         7.41448          3.7243 
        1.50793         7.31896         3.63759 
        1.52367         7.18836         3.55312 
        1.53953         7.06215         3.47081 
        1.55526         7.02575         3.39181 
        1.57092          6.8775         3.31564 
        1.58662         6.78756         3.24167 
        1.60235         6.68805         3.16985 
        1.61809          6.5935          3.1002 
        1.63369         6.47214          3.0333 
        1.64941         6.37924         2.96793 
        1.66519         6.30182         2.90428 
        1.68085          6.2002         2.84298 
        1.69652          6.1381         2.78346 
        1.71228         6.06258         2.72534 
        1.72806         5.95885         2.66886 
        1.74368         5.90231         2.61457 
        1.75933         5.81546          2.5617 
        1.77505         5.70378         2.51008 
        1.79081          5.6749         2.45981 
         1.8065         5.60354         2.41115 
        1.82218         5.51357         2.36388 
        1.83797         5.42432         2.31757 
        1.85367         5.35253         2.27277 
        1.86928         5.33156         2.22945 
        1.88497         5.21358         2.18704 
        1.90073         5.17189         2.14559 
        1.91647         5.10308         2.10528 
        1.93218         5.04153          2.0661 
        1.94787         4.98679         2.02799 
        1.96363         4.93484          1.9907 
        1.97935         4.87628         1.95445 
        1.99499         4.82162         1.91932 
        2.01064         4.77654         1.88501 
         2.0264          4.7034         1.85134 
        2.04216          4.6548         1.81852 
        2.05781         4.59768         1.78672 
        2.07353         4.57242         1.75557 
        2.08928         4.49013         1.72512 
        2.10499          4.4471         1.69547 
        2.12065         4.45017         1.66663 
        2.13633         4.37515         1.63844 
        2.15211         4.30593         1.61073 
        2.16785          4.2657         1.58375 
        2.18349         4.23522         1.55757 
        2.19916         4.19667         1.53193 
        2.21489         4.14693         1.50679 
        2.23063         4.09069         1.48221 
         2.2463         4.05223         1.45829 
        2.26194         4.00716         1.43498 
        2.27765         3.93749         1.41205 
        2.29341         3.91451         1.38958 
        2.30914         3.87593         1.36765 
        2.32486         3.86063         1.34622 
        2.34061         3.81844         1.32521 
        2.35635         3.78368         1.30468 
        2.37203         3.75964         1.28466 
        2.38768         3.72884         1.26511 
        2.40339         3.66752          1.2459 
        2.41914         3.63278         1.22705 
        2.43483             3.6         1.20866 
         2.4505         3.57976         1.19069 
        2.46622         3.53678         1.17302 
        2.48195         3.51558         1.15572 
        2.49759         3.47674         1.13886 
        2.51328          3.4474         1.12231 
        2.52906         3.41861         1.10598 
        2.54479         3.38439         1.09004 
        2.56049         3.35489         1.07445 
        2.57618         3.32744         1.05918 
        2.59189          3.3206         1.04419 
        2.60758         3.27996         1.02952 
        2.62325         3.23427         1.01516 
        2.63898         3.20288         1.00102 
        2.65468         3.17971        0.987185 
        2.67044         3.17643        0.973555 
        2.68618          3.1408        0.960219 
        2.70184         3.11556        0.947189 
        2.71755         3.08219        0.934372 
        2.73329         3.05101        0.921775 
        2.74897         3.03334        0.909456 
        2.76462         3.00136        0.897392 
        2.78034         2.99762          0.8855 
        2.79607          2.9611        0.873815 
        2.81179         2.93914        0.862357 
        2.82749         2.91237         0.85112 
        2.84321         2.89519        0.840073 
        2.85893         2.86396        0.829229 
        2.87462         2.85631        0.818598 
        2.89033         2.82882        0.808146 
        2.90605         2.81518         0.79787 
        2.92176         2.78734         0.78778 
        2.93747         2.76159        0.777873 
        2.95318         2.74439        0.768136 
        2.96891         2.73485        0.758564 
        2.98456          2.7136          0.7492 
        3.00023         2.69109        0.739982 
        3.01596         2.66065        0.730893 
        3.03164         2.64379        0.721985 
        3.04738         2.63164        0.713202 
         3.0631         2.61078        0.704569 
        3.07883         2.59406        0.696081 
        3.09456         2.56738        0.687737 
        3.11026         2.55901        0.679544 
        3.12596         2.53505        0.671487 
        3.14163         2.52586        0.663581 
        3.15734         2.50344        0.655786 
        3.17308         2.49307        0.648099 
        3.18879         2.47466        0.640558 
        3.20447         2.44504        0.633149 
         3.2202         2.44955        0.625837 
         3.2359          2.4222        0.618655 
        3.25157         2.40182        0.611604 
        3.26729         2.38781        0.604643 
        3.28304         2.37166        0.597778 
        3.29877         2.35314        0.591031 
        3.31446         2.34354        0.584403 
        3.33014         2.31954        0.577885 
        3.34585         2.31315        0.571457 
        3.36158         2.29329        0.565119 
        3.37727         2.28555        0.558899 
        3.39294         2.26733        0.552779 
        3.40867          2.2589        0.546729 
        3.42439          2.2419        0.540775 
        3.44008         2.22594        0.534923 
        3.45578         2.21054        0.529154 
        3.47153         2.19814        0.523458 
        3.48724         2.18252        0.517857 
        3.50292          2.1641        0.512353 
        3.51859         2.16487        0.506932 
        3.53431         2.14001        0.501574 
        3.55007         2.13605        0.496282 
        3.56577         2.11854        0.491087 
        3.58146         2.11295        0.485971 
        3.59719         2.09277        0.480916 
        3.61292          2.0836        0.475936 
        3.62859         2.06655        0.471046 
        3.64429         2.05733        0.466217 
        3.66003         2.04471        0.461441 
        3.67578         2.03236        0.456735 
        3.69146         2.01734        0.452114 
        3.70712          2.0044        0.447565 
        3.72284         1.99415        0.443063 
        3.73853         1.98799        0.438632 
        3.75422         1.97107         0.43426 
        3.76993         1.96113        0.429945 
        3.78564         1.94679        0.425691 
        3.80137         1.93774        0.421489 
        3.81707         1.92541        0.417353 
        3.83279         1.92198         0.41327 
        3.84853         1.90809        0.409236 
        3.86424         1.89083        0.405264 
        3.87992         1.88504        0.401351 
        3.89561         1.86726        0.397491 
        3.91134         1.86533        0.393674 
        3.92704         1.85244        0.389913 
        3.94273         1.84417        0.386204 
        3.95845         1.82818        0.382539 
        3.97418         1.82484         0.37892 
        3.98988         1.81354        0.375354 
        4.00554         1.79918        0.371844 
        4.02125         1.79217         0.36837 
        4.03698         1.77782        0.364935 
        4.05268         1.76723        0.361552 
        4.06839         1.75354         0.35821 
         4.0841         1.73982        0.354912 
        4.09983         1.72993        0.351652 
        4.11555         1.72169        0.348435 
        4.13124         1.70737        0.345267 
        4.14693         1.69984        0.342136 
        4.16266         1.69165        0.339037 
        4.17839         1.67864        0.335979 
        4.19408         1.67198        0.332967 
        4.20977         1.66132         0.32999 
        4.22551         1.65506        0.327043 
        4.24123         1.63953        0.324136 
        4.25691         1.62728        0.321273 
        4.27259         1.61896        0.318443 
        4.28831         1.61561        0.315643 
        4.30404         1.60212        0.312873 
        4.31974         1.59062        0.310144 
        4.33543         1.58641        0.307449 
        4.35116         1.57543         0.30478 
        4.36688         1.56399        0.302145 
        4.38255         1.55657         0.29955 
        4.39825          1.5515        0.296981 
        4.41398         1.54036        0.294438 
         4.4297         1.53211        0.291927 
        4.44541         1.52487        0.289446 
        4.46111         1.51152        0.286997 
        4.47683         1.50932        0.284574 
        4.49251         1.50132        0.282185 
        4.50819          1.4931        0.279824 
         4.5239          1.4854        0.277487 
        4.53962         1.47521        0.275174 
        4.55535         1.47101        0.272887 
        4.57106         1.45884         0.27063 
        4.58678         1.45819        0.268398 
         4.6025         1.44758         0.26619 
        4.61821         1.44447        0.264009 
        4.63391         1.43542        0.261855 
         4.6496         1.42714        0.259726 
        4.66532         1.42121        0.257618 
        4.68103         1.41587        0.255534 
        4.69673         1.41044        0.253476 
        4.71241         1.40138        0.251443 
        4.72811         1.39741        0.249429 
        4.74384         1.39214        0.247435 
        4.75955          1.3865        0.245466 
        4.77525         1.37524         0.24352 
        4.79096         1.37068        0.241593 
        4.80669         1.36897        0.239686 
         4.8224         1.35924        0.237802 
        4.83809         1.35399        0.235941 
        4.85379         1.34814        0.234099 
         4.8695         1.34139        0.232275 
        4.88521         1.33897        0.230471 
        4.90093         1.33172        0.228687 
        4.91663         1.32569        0.226923 
        4.93234         1.32188        0.225177 
        4.94807         1.31541        0.223448 
        4.96377         1.31095         0.22174 
        4.97943         1.30752        0.220054 
        4.99514         1.30223        0.218382 
        5.01086         1.29273        0.216726 
        5.02654         1.28907        0.215092 
        5.04227         1.28416        0.213469 
          5.058         1.28017        0.211863 
        5.07371         1.27306        0.210277 
        5.08942         1.27069        0.208707 
        5.10513         1.26989        0.207154 
        5.12084         1.26057        0.205615 
        5.13656         1.25394        0.204093 
        5.15225         1.24907        0.202589 
        5.16796         1.24578        0.201097 
        5.18369         1.23995         0.19962 
         5.1994         1.24032         0.19816 
        5.21509         1.23188        0.196717 
        5.23079         1.23013        0.195286 
        5.24649         1.22371        0.193871 
        5.26217         1.22134        0.192471 
        5.27788         1.21329        0.191083 
        5.29359         1.21141        0.189709 
        5.30933          1.2078        0.188346 
        5.32504         1.20122        0.186999 
        5.34073         1.19895        0.185667 
        5.35646         1.19619        0.184346 
        5.37218         1.19079        0.183037 
        5.38789         1.18923        0.181744 
        5.40357         1.18464        0.180464 
        5.41929         1.18185        0.179194 
        5.43502         1.17696        0.177937 
         5.4507         1.16938        0.176694 
        5.46639         1.16762        0.175463 
        5.48212         1.16277        0.174242 
        5.49786         1.16121        0.173031 
        5.51353         1.15942        0.171837 
        5.52921         1.15315        0.170654 
        5.54495         1.14918        0.169478 
        5.56066         1.14719        0.168315 
        5.57637         1.14567        0.167163 
        5.59207         1.14087        0.166023 
        5.60778         1.13802        0.164894 
        5.62346         1.13456        0.163776 
        5.63916         1.13132        0.162668 
        5.65487         1.12513         0.16157 
         5.6706         1.12411        0.160481 
        5.68633         1.11884        0.159402 
        5.70203          1.1188        0.158335 
        5.71773         1.11371        0.157278 
        5.73344         1.10868         0.15623 
        5.74916         1.10699        0.155191 
        5.76486          1.1027        0.154163 
        5.78054         1.09874        0.153146 
        5.79626          1.0988        0.152135 
          5.812         1.09406        0.151133 
         5.8277         1.09053        0.150142 
        5.84339          1.0903        0.149161 
        5.85911         1.08676        0.148187 
        5.87484         1.08485        0.147221 
        5.89053         1.07882        0.146267 
        5.90623          1.0783         0.14532 
        5.92195         1.07328         0.14438 
        5.93767         1.06983         0.14345 
        5.95336         1.06739        0.142529 
        5.96905         1.06393        0.141616 
        5.98476         1.06256        0.140711 
        6.00048         1.06036        0.139813 
        6.01617         1.05821        0.138924 
        6.03185         1.05318        0.138044 
        6.04756         1.05303         0.13717 
        6.06331         1.04723        0.136302 
        6.07903         1.04755        0.135443 
        6.09473         1.04504        0.134592 
        6.11044         1.03947        0.133748 
        6.12616         1.03768        0.132912 
        6.14186         1.03445        0.132083 
        6.15755         1.03291        0.131262 
        6.17326         1.02891        0.130447 
        6.18898         1.02582        0.129639 
        6.20467         1.02539        0.128839 
        6.22036         1.02086        0.128046 
         6.2361         1.01835        0.127258 
         6.2518         1.01699        0.126477 
        6.26748         1.01414        0.125705 
        6.28319         1.01111        0.124938 
        6.29893         1.01028        0.124176 
        6.31463         1.00476        0.123422 
        6.33033         1.00668        0.122675 
        6.34604           1.004        0.121933 
        6.36177        0.999024        0.121197 
        6.37747        0.997119        0.120468 
