# k  (h/Mpc)    Pcb(k)  (Mpc/h)^3    Pcb_linear(k) (Mpc/h)^3   ShotnoiseSubtracted = true
      0.0200456         17124.6         17445.4 
      0.0350414         13142.9         12779.5 
      0.0492313         9209.64         9380.69 
      0.0637834         7649.76         8055.83 
      0.0800726         6099.73         6494.58 
       0.096163         4819.62         4675.76 
       0.111083         3964.09         3773.65 
       0.126058         3342.18         3435.26 
       0.142273         2923.18         2926.44 
       0.158546         2397.08         2296.11 
        0.17375          2139.3         1957.37 
       0.188953         2025.37          1805.4 
       0.204907         1745.59         1604.56 
       0.220756         1574.36         1353.19 
        0.23588         1408.62         1186.11 
         0.2514         1275.22         1091.92 
       0.267535         1239.01         993.103 
       0.283568         1097.31         875.363 
       0.299022         1051.11         783.985 
       0.314451         1087.47         723.058 
       0.330372         950.423         666.695 
       0.346141         877.709         605.985 
       0.361624         843.858         552.862 
       0.377134         804.381         511.933 
       0.392932         775.455          475.95 
       0.408854         740.839         439.872 
       0.424564         722.877         406.707 
       0.440253          665.57         378.823 
       0.455999          638.04         354.417 
       0.471626         650.689         331.488 
        0.48727         615.713         309.975 
       0.502856         579.454         290.809 
       0.518488         573.185         273.696 
       0.534347         541.042         257.601 
       0.550082         519.606         242.678 
       0.565732         515.908         229.054 
       0.581496         504.224         216.573 
       0.597222         490.457         205.057 
       0.612804         480.356         194.417 
       0.628434         461.245         184.483 
       0.644267          445.94         175.188 
       0.660051         440.161         166.598 
       0.675724         433.337         158.641 
       0.691403          423.24         151.202 
       0.707174         408.258         144.203 
       0.722871         401.928         137.681 
        0.73838         396.991         131.637 
       0.754018         383.858         125.915 
       0.769845         381.002         120.476 
        0.78569         373.685         115.358 
       0.801365         362.245         110.593 
       0.817031         358.071         106.106 
       0.832809         353.068         101.845 
       0.848511         345.081         97.8419 
       0.864097         337.312         94.0861 
       0.879701         334.766         90.5279 
       0.895507         324.949         87.1154 
       0.911279         318.072         83.8894 
        0.92691         315.722         80.8569 
       0.942635         313.541         77.9605 
       0.958396         303.787         75.2026 
       0.974128         300.729         72.5857 
       0.989692         289.782         70.1216 
        1.00528         289.562         67.7704 
        1.02113         285.325          65.492 
        1.03692         279.252         63.3288 
        1.05264         275.226         61.2751 
        1.06832         274.022         59.3173 
        1.08405         267.362         57.4415 
        1.09979         264.985         55.6471 
        1.11537         258.996         53.9487 
        1.13105         255.026         52.3123 
        1.14679         252.919         50.7387 
        1.16256          249.93         49.2279 
        1.17828          246.62         47.7848 
        1.19395         240.194         46.4055 
         1.2097         240.075         45.0746 
        1.22537          237.48         43.8033 
          1.241         231.475         42.5858 
        1.25666         229.119         41.4123 
        1.27241         224.955         40.2784 
        1.28819         222.366         39.1858 
        1.30392         219.257         38.1376 
        1.31957         214.337         37.1332 
        1.33529         211.622         36.1618 
        1.35108         210.467          35.222 
        1.36674         206.044          34.323 
         1.3824         204.406         33.4566 
        1.39811         201.747         32.6179 
        1.41389         197.524         31.8051 
        1.42964         195.465          31.022 
        1.44531         193.245         30.2694 
        1.46101         189.733         29.5407 
        1.47667         188.156         28.8386 
        1.49229          185.53         28.1615 
        1.50793         182.564         27.5058 
        1.52367         180.938         26.8671 
        1.53953         176.914         26.2447 
        1.55526         176.487         25.6474 
        1.57092         174.486         25.0714 
        1.58662          170.17         24.5121 
        1.60235         168.737          23.969 
        1.61809         166.098         23.4423 
        1.63369         164.193         22.9365 
        1.64941         162.886         22.4422 
        1.66519         160.326         21.9609 
        1.68085         157.893         21.4974 
        1.69652         155.992         21.0473 
        1.71228         154.516         20.6078 
        1.72806         152.821         20.1807 
        1.74368         150.787         19.7702 
        1.75933         149.379         19.3705 
        1.77505          146.84         18.9801 
        1.79081         144.632            18.6 
         1.8065         142.643         18.2321 
        1.82218         140.866         17.8746 
        1.83797         140.411         17.5244 
        1.85367         137.909         17.1857 
        1.86928         136.801         16.8581 
        1.88497           134.9         16.5374 
        1.90073         133.717          16.224 
        1.91647         131.583         15.9192 
        1.93218         130.283         15.6229 
        1.94787         128.179         15.3347 
        1.96363         127.367         15.0528 
        1.97935         125.813         14.7787 
        1.99499          124.91          14.513 
        2.01064         122.123         14.2536 
         2.0264         121.438          13.999 
        2.04216         119.052         13.7508 
        2.05781         118.351         13.5104 
        2.07353         116.584         13.2749 
        2.08928         115.173         13.0446 
        2.10499         113.997         12.8204 
        2.12065         113.416         12.6023 
        2.13633         112.171         12.3891 
        2.15211         110.263         12.1796 
        2.16785         108.748         11.9756 
        2.18349         107.241         11.7776 
        2.19916         106.155         11.5837 
        2.21489         105.353         11.3937 
        2.23063         103.746         11.2078 
         2.2463         102.817          11.027 
        2.26194         101.441         10.8506 
        2.27765         100.346         10.6773 
        2.29341          99.384         10.5074 
        2.30914         98.2021         10.3416 
        2.32486         96.5191         10.1795 
        2.34061         95.8789         10.0206 
        2.35635         94.5421         9.86539 
        2.37203         93.3268         9.71401 
        2.38768         92.5045         9.56617 
        2.40339         91.8649         9.42091 
        2.41914         90.2337         9.27838 
        2.43483         89.4981         9.13935 
         2.4505         88.4155         9.00344 
        2.46622         87.6635         8.86986 
        2.48195         86.4416         8.73903 
        2.49759         85.4016         8.61158 
        2.51328         84.5834         8.48637 
        2.52906         83.0175          8.3629 
        2.54479         82.4168         8.24238 
        2.56049         81.6018          8.1245 
        2.57618         80.5367         8.00907 
        2.59189         80.0259         7.89573 
        2.60758         78.8024         7.78481 
        2.62325         78.1714         7.67617 
        2.63898         77.1862         7.56927 
        2.65468         76.4446         7.46465 
        2.67044         75.5597         7.36159 
        2.68618         74.8286         7.26074 
        2.70184         73.7495         7.16222 
        2.71755         72.9586          7.0653 
        2.73329          72.141         6.97005 
        2.74897         71.5873          6.8769 
        2.76462         71.0115         6.78568 
        2.78034         70.1601         6.69576 
        2.79607         69.3566          6.6074 
        2.81179         68.5367         6.52076 
        2.82749         67.9009         6.43579 
        2.84321         67.3309         6.35226 
        2.85893         66.5399         6.27026 
        2.87462         65.7833         6.18987 
        2.89033         64.9538         6.11084 
        2.90605         64.4632         6.03313 
        2.92176         63.7359         5.95684 
        2.93747         62.9103         5.88193 
        2.95318         62.4371          5.8083 
        2.96891         61.7039         5.73592 
        2.98456         60.9938         5.66511 
        3.00023         60.3116         5.59541 
        3.01596         59.8506         5.52669 
        3.03164         59.3614         5.45933 
        3.04738         58.6579         5.39291 
         3.0631         57.8585         5.32764 
        3.07883         57.3884         5.26346 
        3.09456          56.596         5.20036 
        3.11026         56.0427          5.1384 
        3.12596         55.6988         5.07748 
        3.14163         54.9331          5.0177 
        3.15734         54.4076         4.95876 
        3.17308         53.9394         4.90063 
        3.18879         53.4199         4.84361 
        3.20447         52.9183         4.78759 
         3.2202           52.29          4.7323 
         3.2359          51.844         4.67799 
        3.25157         51.3536         4.62467 
        3.26729         50.7981         4.57204 
        3.28304         50.3821         4.52013 
        3.29877         49.6482         4.46911 
        3.31446         49.3524           4.419 
        3.33014         48.7967         4.36971 
        3.34585         48.3288         4.32111 
        3.36158         47.7905         4.27318 
        3.37727         47.3759         4.22614 
        3.39294         46.8943         4.17986 
        3.40867         46.5488         4.13412 
        3.42439          45.948          4.0891 
        3.44008         45.5813         4.04485 
        3.45578         45.0302         4.00122 
        3.47153         44.6829         3.95816 
        3.48724           44.18         3.91581 
        3.50292         43.7399         3.87419 
        3.51859         43.5059          3.8332 
        3.53431         43.0383         3.79268 
        3.55007         42.5184         3.75266 
        3.56577         42.3439         3.71338 
        3.58146         41.7894         3.67469 
        3.59719         41.3486         3.63647 
        3.61292         41.0031         3.59882 
        3.62859         40.6719         3.56184 
        3.64429         40.4084         3.52532 
        3.66003         39.8934         3.48921 
        3.67578         39.6298         3.45363 
        3.69146         39.2206         3.41868 
        3.70712         38.8153         3.38429 
        3.72284         38.4128         3.35025 
        3.73853         38.1372         3.31674 
        3.75422         37.8266         3.28368 
        3.76993         37.4886         3.25105 
        3.78564         37.0959         3.21889 
        3.80137         36.8165         3.18711 
        3.81707         36.4369         3.15584 
        3.83279         36.1004         3.12496 
        3.84853         35.7743         3.09446 
        3.86424         35.4721         3.06442 
        3.87992         35.0782         3.03484 
        3.89561         34.9527         3.00565 
        3.91134         34.5158         2.97679 
        3.92704         34.1768         2.94834 
        3.94273         33.9046         2.92031 
        3.95845         33.6662         2.89259 
        3.97418         33.2397         2.86522 
        3.98988         32.9055         2.83826 
        4.00554         32.6016         2.81172 
        4.02125         32.4531         2.78545 
        4.03698         32.1747         2.75947 
        4.05268          31.903         2.73389 
        4.06839         31.4997         2.70863 
         4.0841          31.401         2.68369 
        4.09983         30.9564         2.65904 
        4.11555         30.7236         2.63471 
        4.13124         30.6101         2.61075 
        4.14693         30.2328         2.58708 
        4.16266         30.0106         2.56365 
        4.17839         29.8323         2.54053 
        4.19408         29.4466         2.51775 
        4.20977         29.2395         2.49524 
        4.22551         29.0909         2.47296 
        4.24123         28.8059         2.45097 
        4.25691         28.4921         2.42932 
        4.27259         28.2901         2.40792 
        4.28831          28.052         2.38675 
        4.30404         27.8256         2.36581 
        4.31974          27.529         2.34517 
        4.33543         27.3817         2.32479 
        4.35116          27.079         2.30461 
        4.36688         26.9316         2.28468 
        4.38255         26.6744         2.26507 
        4.39825          26.435         2.24564 
        4.41398         26.2491         2.22641 
         4.4297         26.0075         2.20742 
        4.44541         25.6926         2.18866 
        4.46111         25.5932         2.17014 
        4.47683           25.32         2.15182 
        4.49251          25.111         2.13376 
        4.50819         24.9362          2.1159 
         4.5239         24.6979         2.09823 
        4.53962         24.5704         2.08075 
        4.55535         24.3094         2.06345 
        4.57106         24.1732         2.04638 
        4.58678         23.9701          2.0295 
         4.6025         23.7235         2.01281 
        4.61821         23.5451         1.99632 
        4.63391          23.409         1.98003 
         4.6496         23.2448         1.96393 
        4.66532         23.0076         1.94799 
        4.68103         22.7921         1.93224 
        4.69673         22.6635         1.91667 
        4.71241         22.5183          1.9013 
        4.72811         22.2878         1.88607 
        4.74384         22.1317           1.871 
        4.75955         21.9496         1.85611 
        4.77525         21.8106         1.84139 
        4.79096         21.5948         1.82682 
        4.80669         21.4125          1.8124 
         4.8224         21.2428         1.79815 
        4.83809         21.1106         1.78408 
        4.85379         20.9301         1.77015 
         4.8695         20.7448         1.75636 
        4.88521         20.6189         1.74272 
        4.90093         20.4979         1.72923 
        4.91663         20.2753         1.71589 
        4.93234         20.1152         1.70269 
        4.94807         20.0251         1.68961 
        4.96377         19.8433          1.6767 
        4.97943         19.6951         1.66395 
        4.99514         19.5312         1.65131 
        5.01086         19.3995         1.63878 
        5.02654         19.2708         1.62643 
        5.04227         19.0555         1.61416 
          5.058         18.9591         1.60202 
        5.07371         18.7863         1.59002 
        5.08942         18.6644         1.57815 
        5.10513         18.5597          1.5664 
        5.12084         18.3829         1.55477 
        5.13656         18.2676         1.54326 
        5.15225         18.1254         1.53188 
        5.16796         17.9552         1.52061 
        5.18369         17.8447         1.50944 
         5.1994         17.7662          1.4984 
        5.21509         17.5968         1.48748 
        5.23079         17.4705         1.47667 
        5.24649         17.3456         1.46597 
        5.26217         17.2191         1.45538 
        5.27788         17.0715         1.44488 
        5.29359          16.954         1.43449 
        5.30933         16.8329         1.42419 
        5.32504         16.7129         1.41401 
        5.34073         16.5765         1.40393 
        5.35646         16.4788         1.39394 
        5.37218         16.3289         1.38405 
        5.38789         16.1997         1.37426 
        5.40357         16.1274         1.36459 
        5.41929         16.0063         1.35499 
        5.43502         15.8682         1.34548 
         5.4507         15.7766         1.33608 
        5.46639         15.6247         1.32678 
        5.48212         15.5182         1.31754 
        5.49786         15.4343         1.30838 
        5.51353         15.2823         1.29935 
        5.52921         15.2158         1.29041 
        5.54495          15.127         1.28152 
        5.56066          14.987         1.27272 
        5.57637         14.8865         1.26401 
        5.59207         14.7704         1.25539 
        5.60778         14.6718         1.24685 
        5.62346         14.5639          1.2384 
        5.63916         14.4804         1.23003 
        5.65487         14.3904         1.22172 
         5.6706         14.2774         1.21349 
        5.68633         14.1675         1.20533 
        5.70203         14.0525         1.19726 
        5.71773         13.9861         1.18926 
        5.73344         13.8588         1.18134 
        5.74916          13.817         1.17348 
        5.76486         13.6727         1.16571 
        5.78054         13.5876         1.15802 
        5.79626         13.5151         1.15038 
          5.812         13.3882          1.1428 
         5.8277         13.2992         1.13531 
        5.84339         13.2279         1.12789 
        5.85911         13.1257         1.12052 
        5.87484         13.0327         1.11322 
        5.89053         12.9449           1.106 
        5.90623         12.8529         1.09885 
        5.92195           12.75         1.09174 
        5.93767         12.6998          1.0847 
        5.95336         12.5824         1.07774 
        5.96905         12.4987         1.07084 
        5.98476         12.4411         1.06399 
        6.00048         12.3496          1.0572 
        6.01617         12.2525         1.05048 
        6.03185         12.1734         1.04383 
        6.04756         12.0727         1.03722 
        6.06331         12.0136         1.03065 
        6.07903         11.9393         1.02416 
        6.09473         11.8521         1.01773 
        6.11044         11.7595         1.01134 
        6.12616         11.7071         1.00502 
        6.14186         11.5993        0.998753 
        6.15755         11.5403        0.992543 
        6.17326         11.4677        0.986382 
        6.18898         11.3889         0.98027 
        6.20467         11.3176        0.974222 
        6.22036         11.2359        0.968227 
         6.2361         11.1743        0.962266 
         6.2518          11.103        0.956365 
        6.26748         11.0301        0.950528 
        6.28319          10.956        0.944724 
        6.29893         10.8894        0.938964 
        6.31463         10.8229        0.933263 
        6.33033          10.769        0.927611 
        6.34604          10.664        0.922003 
        6.36177         10.5992        0.916437 
        6.37747         10.5426        0.910927 
