# k  (h/Mpc)    Pcb(k)  (Mpc/h)^3    Pcb_linear(k) (Mpc/h)^3   ShotnoiseSubtracted = true
      0.0200456         9975.36         10142.3 
      0.0350414         7612.01         7429.68 
      0.0492313         5406.41         5453.68 
      0.0637834         4510.67         4683.44 
      0.0800726         3609.05         3775.78 
       0.096163         2796.88         2718.36 
       0.111083         2295.45          2193.9 
       0.126058         1957.31         1997.17 
       0.142273          1691.6         1701.35 
       0.158546         1383.44          1334.9 
        0.17375         1217.23         1137.96 
       0.188953         1134.63         1049.61 
       0.204907         972.363         932.847 
       0.220756         870.603         786.707 
        0.23588         775.771         689.572 
         0.2514         699.796         634.811 
       0.267535         679.001         577.363 
       0.283568         593.862         508.912 
       0.299022         565.974         455.788 
       0.314451         569.013         420.367 
       0.330372         491.284         387.598 
       0.346141         456.672         352.303 
       0.361624         436.388         321.419 
       0.377134         406.371         297.624 
       0.392932         396.355         276.705 
       0.408854         376.954          255.73 
       0.424564         363.687         236.449 
       0.440253          329.12         220.237 
       0.455999         314.979         206.048 
       0.471626         314.261         192.718 
        0.48727         299.816         180.211 
       0.502856         274.842         169.069 
       0.518488         275.772          159.12 
       0.534347          256.52         149.762 
       0.550082         250.694         141.086 
       0.565732         248.675         133.166 
       0.581496         233.822          125.91 
       0.597222         228.361         119.215 
       0.612804         222.247         113.029 
       0.628434         214.683         107.254 
       0.644267         205.322          101.85 
       0.660051         201.001         96.8554 
       0.675724         199.225         92.2293 
       0.691403         193.949         87.9046 
       0.707174         187.653         83.8359 
       0.722871         184.826         80.0441 
        0.73838         182.815         76.5304 
       0.754018          172.22         73.2039 
       0.769845          172.04         70.0416 
        0.78569         167.784         67.0662 
       0.801365         163.108          64.296 
       0.817031         158.713         61.6874 
       0.832809         156.315           59.21 
       0.848511         152.759         56.8827 
       0.864097          150.15         54.6991 
       0.879701          148.31         52.6305 
       0.895507         143.999         50.6465 
       0.911279          140.84         48.7711 
        0.92691         138.125          47.008 
       0.942635         135.636         45.3241 
       0.958396         133.801         43.7208 
       0.974128         130.954         42.1994 
       0.989692           128.3         40.7668 
        1.00528         126.561         39.3999 
        1.02113         123.266         38.0753 
        1.03692         122.848         36.8177 
        1.05264         121.275         35.6237 
        1.06832         117.612         34.4855 
        1.08405         116.703         33.3949 
        1.09979         115.817         32.3517 
        1.11537         112.882         31.3643 
        1.13105         111.613         30.4129 
        1.14679         109.593         29.4981 
        1.16256          107.61         28.6198 
        1.17828         106.465         27.7808 
        1.19395         103.658         26.9789 
         1.2097         103.598         26.2052 
        1.22537         101.157          25.466 
          1.241         100.875         24.7582 
        1.25666         97.5875          24.076 
        1.27241         96.8866         23.4168 
        1.28819         96.2319         22.7816 
        1.30392          94.266         22.1722 
        1.31957         93.3586         21.5882 
        1.33529         92.1725         21.0235 
        1.35108          91.512         20.4771 
        1.36674         90.0229         19.9544 
         1.3824         89.1953         19.4508 
        1.39811         87.0643         18.9631 
        1.41389         86.0675         18.4906 
        1.42964         84.9666         18.0353 
        1.44531         84.2794         17.5978 
        1.46101         83.3329         17.1742 
        1.47667         82.1619          16.766 
        1.49229          81.306         16.3723 
        1.50793         80.1854         15.9911 
        1.52367         79.6445         15.6198 
        1.53953         78.1661          15.258 
        1.55526         77.0689         14.9107 
        1.57092         76.9655         14.5758 
        1.58662         75.7411         14.2506 
        1.60235          74.641         13.9349 
        1.61809         73.5871         13.6287 
        1.63369         72.6647         13.3346 
        1.64941         72.4657         13.0473 
        1.66519         70.7847         12.7675 
        1.68085         70.4655          12.498 
        1.69652         68.8647         12.2363 
        1.71228         68.6813         11.9808 
        1.72806         67.9231         11.7325 
        1.74368         66.9229         11.4939 
        1.75933         66.4777         11.2615 
        1.77505          65.798         11.0345 
        1.79081         64.7916         10.8135 
         1.8065         64.3526         10.5996 
        1.82218         62.5645         10.3918 
        1.83797         62.3586         10.1882 
        1.85367         61.8595          9.9913 
        1.86928         61.3654         9.80086 
        1.88497         60.2208         9.61441 
        1.90073          59.473         9.43221 
        1.91647         59.1897         9.25497 
        1.93218         58.8168         9.08273 
        1.94787         57.8262          8.9152 
        1.96363         56.8608         8.75129 
        1.97935         56.4948         8.59192 
        1.99499         55.8717         8.43747 
        2.01064         55.2722         8.28666 
         2.0264         54.8738         8.13864 
        2.04216         54.0032         7.99437 
        2.05781         53.3531         7.85456 
        2.07353         52.6039         7.71765 
        2.08928         52.4169         7.58376 
        2.10499         51.9564         7.45345 
        2.12065         51.2817         7.32664 
        2.13633         50.9146         7.20272 
        2.15211          50.095          7.0809 
        2.16785         49.3681         6.96229 
        2.18349         48.8406         6.84719 
        2.19916         48.3825         6.73448 
        2.21489         48.0847         6.62397 
        2.23063         47.3683         6.51591 
         2.2463         47.0683         6.41078 
        2.26194         46.4338         6.30827 
        2.27765         45.8835         6.20751 
        2.29341         45.3215         6.10872 
        2.30914         44.9756         6.01231 
        2.32486         44.2574         5.91808 
        2.34061         44.0196         5.82573 
        2.35635         43.4781         5.73547 
        2.37203         43.1363         5.64746 
        2.38768         42.7495         5.56151 
        2.40339         42.3752         5.47706 
        2.41914         41.8941          5.3942 
        2.43483         41.3154         5.31337 
         2.4505         41.0537         5.23435 
        2.46622         40.5771          5.1567 
        2.48195          40.257         5.08064 
        2.49759         39.6535         5.00654 
        2.51328         39.2775         4.93375 
        2.52906         38.9947         4.86196 
        2.54479         38.6168          4.7919 
        2.56049         38.3085         4.72337 
        2.57618         37.7995         4.65626 
        2.59189         37.3347         4.59037 
        2.60758         37.0367         4.52588 
        2.62325         36.7652         4.46272 
        2.63898         36.4632         4.40057 
        2.65468         35.9402         4.33975 
        2.67044         35.6215         4.27983 
        2.68618         35.3764          4.2212 
        2.70184         34.9026         4.16392 
        2.71755         34.6324         4.10757 
        2.73329         34.1881          4.0522 
        2.74897         33.8594         3.99804 
        2.76462         33.5596         3.94501 
        2.78034          33.264         3.89273 
        2.79607          32.893         3.84136 
        2.81179         32.6804         3.79099 
        2.82749          32.278         3.74159 
        2.84321         31.9823         3.69303 
        2.85893         31.7511         3.64536 
        2.87462         31.4338         3.59862 
        2.89033         31.0803         3.55267 
        2.90605         30.8262          3.5075 
        2.92176         30.5639         3.46315 
        2.93747         30.1956         3.41959 
        2.95318         30.0393         3.37679 
        2.96891         29.7068         3.33471 
        2.98456         29.3497         3.29354 
        3.00023         29.0461         3.25302 
        3.01596         28.7257         3.21307 
        3.03164         28.5281         3.17391 
        3.04738         28.3063         3.13529 
         3.0631         28.0445         3.09734 
        3.07883         27.6667         3.06003 
        3.09456         27.4861         3.02335 
        3.11026         27.1158         2.98733 
        3.12596         26.8273         2.95191 
        3.14163         26.6076         2.91716 
        3.15734         26.4223         2.88289 
        3.17308         26.1781          2.8491 
        3.18879         25.9351         2.81595 
        3.20447         25.6754         2.78338 
         3.2202         25.3951         2.75123 
         3.2359         25.2444         2.71966 
        3.25157         24.9621         2.68866 
        3.26729          24.811         2.65806 
        3.28304         24.5401         2.62788 
        3.29877         24.2663         2.59822 
        3.31446         24.0689         2.56909 
        3.33014         23.8009         2.54043 
        3.34585         23.6923         2.51217 
        3.36158         23.3983         2.48431 
        3.37727         23.2172         2.45696 
        3.39294         23.0315         2.43006 
        3.40867         22.8145         2.40347 
        3.42439         22.6111         2.37729 
        3.44008         22.3761         2.35156 
        3.45578         22.1914          2.3262 
        3.47153         21.9306         2.30117 
        3.48724         21.8146         2.27654 
        3.50292         21.6005         2.25235 
        3.51859         21.3992         2.22852 
        3.53431         21.2523         2.20496 
        3.55007         20.9952          2.1817 
        3.56577          20.852         2.15886 
        3.58146         20.6329         2.13637 
        3.59719         20.5208         2.11415 
        3.61292         20.2914         2.09225 
        3.62859         20.0434         2.07076 
        3.64429         19.8955         2.04953 
        3.66003         19.7933         2.02853 
        3.67578         19.6448         2.00785 
        3.69146         19.3507         1.98753 
        3.70712         19.2318         1.96753 
        3.72284         19.0696         1.94774 
        3.73853         18.9558         1.92826 
        3.75422         18.7224         1.90904 
        3.76993         18.5816         1.89008 
        3.78564         18.4252         1.87138 
        3.80137         18.2742          1.8529 
        3.81707         18.0867         1.83472 
        3.83279         17.9378         1.81677 
        3.84853         17.7661         1.79903 
        3.86424         17.5692         1.78157 
        3.87992         17.4964         1.76437 
        3.89561         17.3149          1.7474 
        3.91134          17.189         1.73062 
        3.92704         17.0474         1.71409 
        3.94273         16.8981         1.69779 
        3.95845         16.7156         1.68167 
        3.97418         16.5556         1.66576 
        3.98988         16.4434         1.65009 
        4.00554         16.3445         1.63466 
        4.02125         16.1517         1.61938 
        4.03698         16.0553         1.60428 
        4.05268         15.9147         1.58941 
        4.06839         15.7458         1.57472 
         4.0841         15.6512         1.56022 
        4.09983         15.4598         1.54589 
        4.11555         15.3523         1.53175 
        4.13124         15.2579         1.51782 
        4.14693         15.0829         1.50406 
        4.16266         15.0015         1.49044 
        4.17839         14.8536         1.47699 
        4.19408         14.7468         1.46375 
        4.20977         14.6123         1.45066 
        4.22551         14.4967         1.43771 
        4.24123         14.3824         1.42493 
        4.25691         14.2654         1.41234 
        4.27259         14.1257          1.3999 
        4.28831         14.0619         1.38759 
        4.30404         13.9584         1.37542 
        4.31974          13.808         1.36342 
        4.33543          13.653         1.35157 
        4.35116         13.5922         1.33984 
        4.36688         13.4311         1.32825 
        4.38255         13.3443         1.31685 
        4.39825         13.2495         1.30555 
        4.41398         13.1335         1.29437 
         4.4297         13.0344         1.28333 
        4.44541         12.9297         1.27243 
        4.46111         12.8277         1.26166 
        4.47683         12.6988         1.25101 
        4.49251         12.5944         1.24051 
        4.50819          12.501         1.23013 
         4.5239          12.447         1.21986 
        4.53962         12.3185         1.20969 
        4.55535         12.2239         1.19963 
        4.57106         12.1613         1.18971 
        4.58678         12.0529          1.1799 
         4.6025           11.95          1.1702 
        4.61821         11.8511          1.1606 
        4.63391         11.7588         1.15114 
         4.6496         11.6615         1.14178 
        4.66532         11.5794         1.13251 
        4.68103          11.465         1.12335 
        4.69673         11.3833          1.1143 
        4.71241         11.2789         1.10537 
        4.72811         11.2289         1.09651 
        4.74384         11.1306         1.08775 
        4.75955         11.0336         1.07909 
        4.77525         10.9345         1.07054 
        4.79096          10.885         1.06206 
        4.80669         10.7841         1.05368 
         4.8224         10.6886          1.0454 
        4.83809         10.6138         1.03722 
        4.85379          10.535         1.02912 
         4.8695         10.4525          1.0211 
        4.88521         10.3607         1.01317 
        4.90093         10.2994         1.00533 
        4.91663         10.2107        0.997574 
        4.93234         10.1439        0.989896 
        4.94807         10.0671        0.982295 
        4.96377         10.0021        0.974788 
        4.97943         9.91673        0.967377 
        4.99514         9.82678        0.960025 
        5.01086         9.78312        0.952745 
        5.02654         9.68804         0.94556 
        5.04227         9.60547        0.938429 
          5.058          9.5409        0.931369 
        5.07371         9.49715        0.924397 
        5.08942         9.39793        0.917495 
        5.10513         9.32772        0.910665 
        5.12084         9.27578        0.903901 
        5.13656          9.2156        0.897209 
        5.15225         9.11588        0.890596 
        5.16796         9.05713        0.884041 
        5.18369         8.99565        0.877546 
         5.1994         8.93456        0.871129 
        5.21509         8.87321        0.864783 
        5.23079         8.79128        0.858494 
        5.24649         8.74615        0.852273 
        5.26217         8.68081        0.846119 
        5.27788         8.61229        0.840017 
        5.29359         8.55223        0.833976 
        5.30933         8.47688        0.827985 
        5.32504         8.43167        0.822065 
        5.34073         8.37033         0.81621 
        5.35646         8.30513          0.8104 
        5.37218         8.24572        0.804647 
        5.38789         8.17841         0.79896 
        5.40357         8.12289        0.793335 
        5.41929         8.08243        0.787752 
        5.43502         8.02224        0.782224 
         5.4507         7.97116        0.776762 
        5.46639         7.91095        0.771352 
        5.48212         7.84753        0.765982 
        5.49786         7.79891        0.760657 
        5.51353         7.74753         0.75541 
        5.52921          7.6832        0.750208 
        5.54495         7.62115         0.74504 
        5.56066         7.59179        0.739927 
        5.57637         7.53585        0.734863 
        5.59207         7.47975        0.729852 
        5.60778         7.42172        0.724886 
        5.62346          7.3572        0.719974 
        5.63916         7.31819        0.715104 
        5.65487         7.27257        0.710276 
         5.6706         7.22688        0.705488 
        5.68633         7.17001        0.700744 
        5.70203         7.13589        0.696053 
        5.71773         7.06939        0.691406 
        5.73344         7.02212          0.6868 
        5.74916         6.97862        0.682232 
        5.76486          6.9297        0.677712 
        5.78054         6.88669        0.673241 
        5.79626         6.84063        0.668799 
          5.812         6.77791        0.664392 
         5.8277         6.74207        0.660038 
        5.84339         6.69586        0.655725 
        5.85911         6.64917        0.651441 
        5.87484         6.61439        0.647198 
        5.89053         6.55577        0.643001 
        5.90623         6.52102         0.63884 
        5.92195         6.48533        0.634708 
        5.93767         6.44794        0.630617 
        5.95336          6.3956        0.626568 
        5.96905         6.34449        0.622557 
        5.98476          6.3039        0.618576 
        6.00048         6.26753        0.614629 
        6.01617         6.22565        0.610722 
        6.03185         6.18835        0.606854 
        6.04756         6.15825        0.603011 
        6.06331         6.10832        0.599194 
        6.07903         6.05006        0.595418 
        6.09473         6.02639        0.591678 
        6.11044         5.99548        0.587968 
        6.12616          5.9433         0.58429 
        6.14186         5.90139        0.580648 
        6.15755          5.8664        0.577038 
        6.17326         5.83719        0.573456 
        6.18898         5.79173        0.569903 
        6.20467         5.76758        0.566387 
        6.22036         5.71576        0.562901 
         6.2361         5.68429        0.559435 
         6.2518         5.64366        0.556005 
        6.26748         5.62259        0.552611 
        6.28319         5.57824        0.549237 
        6.29893         5.55155        0.545889 
        6.31463         5.50125        0.542574 
        6.33033         5.46789        0.539288 
        6.34604          5.4447        0.536028 
        6.36177         5.39731        0.532791 
        6.37747         5.37137        0.529588 
