# k  (h/Mpc)    Pcb(k)  (Mpc/h)^3    Pcb_linear(k) (Mpc/h)^3   ShotnoiseSubtracted = true
      0.0200456         14.4321         14.6494 
      0.0350414         10.7844         10.7314 
      0.0492313         7.91539         7.87727 
      0.0637834         6.74674         6.76475 
      0.0800726         5.43133         5.45372 
       0.096163         3.95863         3.92639 
       0.111083         3.19551         3.16886 
       0.126058         2.87646          2.8847 
       0.142273         2.44903         2.45743 
       0.158546          1.9371         1.92812 
        0.17375         1.65206         1.64367 
       0.188953          1.5142         1.51606 
       0.204907         1.34087          1.3474 
       0.220756         1.13856         1.13632 
        0.23588        0.997794        0.996016 
         0.2514        0.916721        0.916919 
       0.267535        0.833103        0.833941 
       0.283568        0.735983        0.735071 
       0.299022        0.659271        0.658339 
       0.314451        0.608825        0.607176 
       0.330372        0.559986        0.559846 
       0.346141        0.509508        0.508866 
       0.361624        0.464688        0.464257 
       0.377134        0.429785        0.429887 
       0.392932        0.401398        0.399671 
       0.408854        0.369422        0.369376 
       0.424564        0.342724        0.341526 
       0.440253        0.318647         0.31811 
       0.455999        0.297402        0.297615 
       0.471626        0.278229        0.278361 
        0.48727        0.260953        0.260296 
       0.502856        0.244954        0.244202 
       0.518488        0.229643        0.229832 
       0.534347        0.215819        0.216316 
       0.550082        0.204181        0.203784 
       0.565732        0.193331        0.192344 
       0.581496        0.182196        0.181864 
       0.597222        0.172403        0.172194 
       0.612804        0.163526        0.163259 
       0.628434        0.154999        0.154917 
       0.644267        0.147456        0.147111 
       0.660051        0.140331        0.139898 
       0.675724        0.133428        0.133216 
       0.691403        0.127052        0.126969 
       0.707174        0.121277        0.121092 
       0.722871        0.116212        0.115615 
        0.73838        0.110646         0.11054 
       0.754018        0.105792        0.105735 
       0.769845        0.101092        0.101168 
        0.78569       0.0970322       0.0968701 
       0.801365       0.0931553       0.0928689 
       0.817031       0.0893372       0.0891011 
       0.832809       0.0856955       0.0855227 
       0.848511       0.0823524       0.0821611 
       0.864097       0.0793395       0.0790072 
       0.879701       0.0764334       0.0760193 
       0.895507       0.0732481       0.0731537 
       0.911279       0.0707013       0.0704447 
        0.92691       0.0682893       0.0678982 
       0.942635       0.0656348        0.065466 
       0.958396       0.0634265       0.0631501 
       0.974128       0.0612057       0.0609526 
       0.989692       0.0591254       0.0588834 
        1.00528       0.0570436        0.056909 
        1.02113       0.0553426       0.0549958 
        1.03692       0.0535018       0.0531793 
        1.05264       0.0517115       0.0514547 
        1.06832       0.0500657       0.0498107 
        1.08405       0.0484743       0.0482355 
        1.09979       0.0470395       0.0467287 
        1.11537       0.0454345       0.0453025 
        1.13105       0.0440729       0.0439284 
        1.14679       0.0427698        0.042607 
        1.16256       0.0416238       0.0413383 
        1.17828       0.0404102       0.0401265 
        1.19395       0.0392258       0.0389682 
         1.2097       0.0380891       0.0378506 
        1.22537       0.0369677       0.0367831 
          1.241       0.0359501       0.0357607 
        1.25666       0.0350226       0.0347753 
        1.27241       0.0340347       0.0338231 
        1.28819       0.0330927       0.0329056 
        1.30392       0.0322819       0.0320254 
        1.31957       0.0313863       0.0311819 
        1.33529       0.0306462       0.0303663 
        1.35108       0.0297555       0.0295771 
        1.36674       0.0291098       0.0288221 
         1.3824       0.0282745       0.0280946 
        1.39811       0.0275683       0.0273903 
        1.41389       0.0269654       0.0267078 
        1.42964       0.0262388       0.0260502 
        1.44531       0.0256301       0.0254183 
        1.46101       0.0249988       0.0248063 
        1.47667       0.0244338       0.0242167 
        1.49229        0.023872       0.0236482 
        1.50793       0.0233209       0.0230975 
        1.52367       0.0227861       0.0225612 
        1.53953       0.0222122       0.0220386 
        1.55526       0.0217213        0.021537 
        1.57092       0.0212998       0.0210533 
        1.58662       0.0207915       0.0205836 
        1.60235       0.0203151       0.0201275 
        1.61809        0.019901       0.0196853 
        1.63369        0.019471       0.0192605 
        1.64941       0.0190322       0.0188454 
        1.66519       0.0186429       0.0184413 
        1.68085       0.0182523        0.018052 
        1.69652       0.0178874       0.0176741 
        1.71228       0.0174743       0.0173051 
        1.72806       0.0171772       0.0169464 
        1.74368       0.0168072       0.0166017 
        1.75933       0.0164652        0.016266 
        1.77505       0.0161589       0.0159382 
        1.79081       0.0158176        0.015619 
         1.8065       0.0155245       0.0153101 
        1.82218       0.0152004       0.0150099 
        1.83797       0.0149076       0.0147158 
        1.85367       0.0146204       0.0144314 
        1.86928       0.0143143       0.0141563 
        1.88497       0.0140685        0.013887 
        1.90073       0.0137779       0.0136239 
        1.91647       0.0135877       0.0133678 
        1.93218       0.0133446       0.0131191 
        1.94787       0.0130656       0.0128771 
        1.96363       0.0128172       0.0126403 
        1.97935       0.0125922       0.0124101 
        1.99499       0.0123798       0.0121871 
        2.01064        0.012137       0.0119692 
         2.0264       0.0119365       0.0117554 
        2.04216       0.0117459        0.011547 
        2.05781       0.0115205       0.0113451 
        2.07353       0.0113354       0.0111474 
        2.08928       0.0111334        0.010954 
        2.10499        0.010972       0.0107657 
        2.12065        0.010768       0.0105826 
        2.13633         0.01059       0.0104036 
        2.15211       0.0104104       0.0102276 
        2.16785       0.0102081       0.0100563 
        2.18349       0.0100704      0.00989005 
        2.19916      0.00989529      0.00972726 
        2.21489      0.00973451      0.00956764 
        2.23063      0.00959621      0.00941156 
         2.2463      0.00944739      0.00925971 
        2.26194      0.00929918      0.00911164 
        2.27765      0.00915182       0.0089661 
        2.29341      0.00899006      0.00882341 
        2.30914      0.00885581      0.00868417 
        2.32486      0.00871297      0.00854805 
        2.34061      0.00857871      0.00841467 
        2.35635       0.0084593       0.0082843 
        2.37203      0.00834734      0.00815718 
        2.38768      0.00823429      0.00803303 
        2.40339      0.00808846      0.00791105 
        2.41914      0.00797045      0.00779136 
        2.43483      0.00787124      0.00767461 
         2.4505      0.00773686      0.00756048 
        2.46622      0.00762249      0.00744832 
        2.48195      0.00750928      0.00733846 
        2.49759      0.00741329      0.00723143 
        2.51328      0.00728953      0.00712629 
        2.52906      0.00719168       0.0070226 
        2.54479      0.00709402       0.0069214 
        2.56049      0.00698214      0.00682241 
        2.57618      0.00689327      0.00672548 
        2.59189      0.00679123      0.00663031 
        2.60758      0.00671764      0.00653716 
        2.62325      0.00660588      0.00644594 
        2.63898      0.00653035      0.00635616 
        2.65468       0.0064283      0.00626831 
        2.67044      0.00634346      0.00618177 
        2.68618      0.00625184      0.00609709 
        2.70184      0.00619566      0.00601435 
        2.71755      0.00610018      0.00593297 
        2.73329      0.00603357      0.00585299 
        2.74897      0.00593544      0.00577476 
        2.76462      0.00586053      0.00569816 
        2.78034      0.00579245      0.00562265 
        2.79607       0.0057146      0.00554845 
        2.81179      0.00564064      0.00547569 
        2.82749      0.00557089      0.00540434 
        2.84321       0.0054979       0.0053342 
        2.85893      0.00543196      0.00526535 
        2.87462      0.00536393      0.00519784 
        2.89033      0.00529562      0.00513147 
        2.90605      0.00522195      0.00506622 
        2.92176      0.00516445      0.00500216 
        2.93747      0.00510657      0.00493925 
        2.95318      0.00503396      0.00487742 
        2.96891      0.00496818      0.00481664 
        2.98456      0.00491191      0.00475718 
        3.00023      0.00487129      0.00469866 
        3.01596       0.0048011      0.00464094 
        3.03164      0.00474127      0.00458438 
        3.04738      0.00469115      0.00452861 
         3.0631      0.00462806      0.00447379 
        3.07883       0.0045836       0.0044199 
        3.09456      0.00452558      0.00436691 
        3.11026      0.00446543      0.00431489 
        3.12596      0.00442801      0.00426373 
        3.14163      0.00437472      0.00421353 
        3.15734      0.00433321      0.00416403 
        3.17308      0.00428188      0.00411522 
        3.18879       0.0042179      0.00406734 
        3.20447      0.00418756       0.0040203 
         3.2202      0.00413049      0.00397387 
         3.2359      0.00408921      0.00392826 
        3.25157      0.00404132      0.00388349 
        3.26729      0.00399173      0.00383929 
        3.28304      0.00395757       0.0037957 
        3.29877      0.00391132      0.00375286 
        3.31446      0.00386637      0.00371078 
        3.33014      0.00382412      0.00366939 
        3.34585      0.00379417      0.00362858 
        3.36158      0.00375069      0.00358833 
        3.37727      0.00370618      0.00354883 
        3.39294      0.00366468      0.00350997 
        3.40867      0.00362939      0.00347156 
        3.42439      0.00359182      0.00343375 
        3.44008      0.00355322      0.00339659 
        3.45578      0.00351967      0.00335996 
        3.47153      0.00347926       0.0033238 
        3.48724      0.00344295      0.00328823 
        3.50292      0.00341212      0.00325328 
        3.51859      0.00339199      0.00321886 
        3.53431      0.00334623      0.00318484 
        3.55007      0.00330791      0.00315123 
        3.56577      0.00327425      0.00311825 
        3.58146      0.00324808      0.00308576 
        3.59719      0.00321751      0.00305367 
        3.61292       0.0031847      0.00302205 
        3.62859      0.00314728        0.002991 
        3.64429      0.00312673      0.00296033 
        3.66003      0.00309763      0.00293001 
        3.67578       0.0030634      0.00290013 
        3.69146      0.00304072      0.00287078 
        3.70712      0.00300215       0.0028419 
        3.72284      0.00297729      0.00281331 
        3.73853      0.00294195      0.00278517 
        3.75422      0.00292258      0.00275742 
        3.76993      0.00289858      0.00273002 
        3.78564       0.0028747      0.00270301 
        3.80137      0.00284419      0.00267632 
        3.81707      0.00281471      0.00265006 
        3.83279      0.00278538      0.00262414 
        3.84853      0.00276689      0.00259852 
        3.86424      0.00274234       0.0025733 
        3.87992      0.00271822      0.00254846 
        3.89561      0.00269561      0.00252394 
        3.91134      0.00267028      0.00249971 
        3.92704      0.00265304      0.00247582 
        3.94273      0.00262592      0.00245228 
        3.95845      0.00261056        0.002429 
        3.97418      0.00258365      0.00240602 
        3.98988      0.00255697      0.00238338 
        4.00554       0.0025381      0.00236109 
        4.02125      0.00251054      0.00233903 
        4.03698       0.0024733      0.00231722 
        4.05268      0.00245505      0.00229574 
        4.06839       0.0024346      0.00227452 
         4.0841      0.00241437      0.00225358 
        4.09983      0.00239773      0.00223288 
        4.11555      0.00236919      0.00221245 
        4.13124      0.00235956      0.00219233 
        4.14693      0.00233731      0.00217246 
        4.16266      0.00232288      0.00215278 
        4.17839      0.00230829      0.00213336 
        4.19408      0.00228609      0.00211423 
        4.20977      0.00226711      0.00209533 
        4.22551      0.00225286      0.00207662 
        4.24123      0.00224303      0.00205816 
        4.25691      0.00223162      0.00203998 
        4.27259       0.0022151      0.00202201 
        4.28831      0.00220309      0.00200423 
        4.30404       0.0021836      0.00198665 
        4.31974      0.00218011      0.00196932 
        4.33543       0.0021652      0.00195221 
        4.35116      0.00215208      0.00193526 
        4.36688      0.00214346      0.00191852 
        4.38255      0.00213217      0.00190205 
        4.39825      0.00212561      0.00188574 
        4.41398      0.00211838      0.00186959 
         4.4297      0.00210272      0.00185364 
        4.44541      0.00209957      0.00183789 
        4.46111      0.00209307      0.00182234 
        4.47683      0.00208368      0.00180696 
        4.49251       0.0020784      0.00179179 
        4.50819      0.00207104      0.00177679 
         4.5239      0.00206828      0.00176196 
        4.53962      0.00206586      0.00174727 
        4.55535       0.0020596      0.00173275 
        4.57106      0.00206171      0.00171841 
        4.58678      0.00205553      0.00170424 
         4.6025      0.00205606      0.00169023 
        4.61821      0.00204968      0.00167637 
        4.63391      0.00205471       0.0016627 
         4.6496      0.00204564      0.00164918 
        4.66532      0.00205445      0.00163579 
        4.68103      0.00205112      0.00162256 
        4.69673      0.00205377       0.0016095 
        4.71241      0.00206183      0.00159659 
        4.72811        0.002058       0.0015838 
        4.74384      0.00205955      0.00157114 
        4.75955      0.00207404      0.00155864 
        4.77525      0.00208089      0.00154628 
        4.79096      0.00208491      0.00153404 
        4.80669      0.00208757      0.00152193 
         4.8224      0.00209631      0.00150997 
        4.83809      0.00209823      0.00149815 
        4.85379      0.00211289      0.00148645 
         4.8695      0.00212366      0.00147487 
        4.88521      0.00213902      0.00146342 
        4.90093      0.00214102      0.00145209 
        4.91663      0.00216233      0.00144089 
        4.93234      0.00216965       0.0014298 
        4.94807      0.00218134      0.00141882 
        4.96377      0.00218903      0.00140798 
        4.97943      0.00221477      0.00139728 
        4.99514      0.00221783      0.00138666 
        5.01086      0.00224684      0.00137614 
        5.02654       0.0022648      0.00136576 
        5.04227      0.00227963      0.00135546 
          5.058      0.00230039      0.00134527 
        5.07371      0.00231711       0.0013352 
        5.08942      0.00235208      0.00132523 
        5.10513      0.00236446      0.00131536 
        5.12084      0.00239355      0.00130559 
        5.13656      0.00241641      0.00129593 
        5.15225      0.00243863      0.00128637 
        5.16796      0.00247511      0.00127691 
        5.18369       0.0024858      0.00126752 
         5.1994      0.00252773      0.00125826 
        5.21509      0.00254396      0.00124909 
        5.23079      0.00257782      0.00124001 
        5.24649      0.00261445      0.00123102 
        5.26217      0.00265464      0.00122213 
        5.27788      0.00268289      0.00121332 
        5.29359      0.00271022      0.00120459 
        5.30933      0.00275275      0.00119594 
        5.32504      0.00278648      0.00118739 
        5.34073       0.0028271      0.00117893 
        5.35646      0.00287005      0.00117054 
        5.37218      0.00290965      0.00116223 
        5.38789      0.00295721      0.00115402 
        5.40357      0.00298237      0.00114589 
        5.41929       0.0030449      0.00113783 
        5.43502      0.00308931      0.00112984 
         5.4507       0.0031434      0.00112195 
        5.46639      0.00317273      0.00111414 
        5.48212      0.00323025      0.00110638 
        5.49786      0.00330568      0.00109869 
        5.51353      0.00335284      0.00109111 
        5.52921      0.00338867       0.0010836 
        5.54495      0.00348132      0.00107613 
        5.56066       0.0035311      0.00106875 
        5.57637      0.00359592      0.00106143 
        5.59207      0.00365229       0.0010542 
        5.60778      0.00370631      0.00104702 
        5.62346      0.00377614      0.00103993 
        5.63916      0.00386193      0.00103289 
        5.65487       0.0039378      0.00102592 
         5.6706      0.00400069      0.00101901 
        5.68633      0.00407181      0.00101215 
        5.70203      0.00416786      0.00100538 
        5.71773       0.0042142     0.000998664 
        5.73344       0.0043109     0.000992011 
        5.74916      0.00443688     0.000985414 
        5.76486      0.00449717     0.000978885 
        5.78054      0.00457601     0.000972427 
        5.79626      0.00467734      0.00096601 
          5.812      0.00480869     0.000959646 
         5.8277      0.00487142     0.000953357 
        5.84339      0.00497244     0.000947126 
        5.85911      0.00511251      0.00094094 
        5.87484      0.00519969      0.00093481 
        5.89053       0.0053386     0.000928748 
        5.90623      0.00544073     0.000922738 
        5.92195      0.00556957     0.000916771 
        5.93767      0.00571003     0.000910861 
        5.95336        0.005822     0.000905013 
        5.96905      0.00597774      0.00089922 
        5.98476      0.00610893     0.000893469 
        6.00048      0.00626048     0.000887768 
        6.01617      0.00640361     0.000882125 
        6.03185      0.00652228     0.000876539 
        6.04756      0.00668316     0.000870988 
        6.06331      0.00683832     0.000865474 
        6.07903      0.00701006     0.000860019 
        6.09473      0.00720177     0.000854618 
        6.11044      0.00738857     0.000849259 
        6.12616      0.00754932     0.000843947 
        6.14186      0.00770947     0.000838686 
        6.15755      0.00792248     0.000833471 
        6.17326      0.00808844     0.000828297 
        6.18898      0.00831269     0.000823166 
        6.20467      0.00857283     0.000818087 
        6.22036      0.00870758     0.000813052 
         6.2361      0.00890976     0.000808046 
         6.2518      0.00919741     0.000803092 
        6.26748      0.00939282      0.00079819 
        6.28319      0.00964851     0.000793316 
        6.29893      0.00992259      0.00078848 
        6.31463       0.0101747     0.000783692 
        6.33033       0.0104029     0.000778946 
        6.34604       0.0106956     0.000774237 
        6.36177       0.0109359     0.000769562 
        6.37747       0.0113437     0.000764936 
