# k  (h/Mpc)    Pcb(k)  (Mpc/h)^3    Pcb_linear(k) (Mpc/h)^3   ShotnoiseSubtracted = true
      0.0200456         19101.3         19469.7 
      0.0350414         14679.3         14262.4 
      0.0492313         10251.8         10469.2 
      0.0637834         8508.46          8990.6 
      0.0800726         6778.49          7248.2 
       0.096163          5380.6         5218.32 
       0.111083         4426.32         4211.53 
       0.126058         3724.63         3833.87 
       0.142273         3267.09         3266.01 
       0.158546         2679.42         2562.55 
        0.17375         2401.03          2184.5 
       0.188953         2282.12          2014.9 
       0.204907         1969.46         1790.75 
       0.220756         1779.77         1510.21 
        0.23588          1593.2         1323.74 
         0.2514         1446.12         1218.62 
       0.267535         1402.25         1108.34 
       0.283568         1247.39         976.937 
       0.299022         1194.61         874.957 
       0.314451         1241.27          806.96 
       0.330372         1093.12         744.056 
       0.346141         1007.59         676.302 
       0.361624         969.146         617.014 
       0.377134         927.524         571.337 
       0.392932         891.354         531.178 
       0.408854         853.063         490.914 
       0.424564         834.467           453.9 
       0.440253         772.486          422.78 
       0.455999         740.185         395.542 
       0.471626         755.548         369.952 
        0.48727         714.686         345.943 
       0.502856         679.156         324.554 
       0.518488         666.524         305.455 
       0.534347         634.224         287.492 
       0.550082         607.103         270.837 
       0.565732         601.753         255.633 
       0.581496         590.066         241.704 
       0.597222         575.354         228.852 
       0.612804         563.583         216.977 
       0.628434         541.207          205.89 
       0.644267          525.09         195.517 
       0.660051         518.969         185.929 
       0.675724         509.825         177.049 
       0.691403         497.771         168.747 
       0.707174         481.398         160.936 
       0.722871          474.39         153.657 
        0.73838         467.569         146.912 
       0.754018         454.424         140.526 
       0.769845         449.751         134.456 
        0.78569         441.464         128.744 
       0.801365         426.843         123.426 
       0.817031          423.56         118.419 
       0.832809         417.688         113.663 
       0.848511         409.495         109.195 
       0.864097         400.576         105.004 
       0.879701         397.579         101.032 
       0.895507         384.149          97.224 
       0.911279         378.207         93.6237 
        0.92691         374.939         90.2393 
       0.942635         372.158         87.0068 
       0.958396         359.324         83.9289 
       0.974128          356.24         81.0083 
       0.989692         343.798         78.2583 
        1.00528          343.33         75.6343 
        1.02113         337.524         73.0915 
        1.03692         331.715         70.6773 
        1.05264         326.824         68.3852 
        1.06832         323.283         66.2003 
        1.08405         318.445         64.1068 
        1.09979         313.776         62.1042 
        1.11537         305.676         60.2087 
        1.13105         302.176         58.3824 
        1.14679          298.68         56.6262 
        1.16256         296.229         54.9402 
        1.17828         291.603         53.3296 
        1.19395          284.56         51.7902 
         1.2097         284.318         50.3049 
        1.22537          279.74         48.8861 
          1.241         273.462         47.5273 
        1.25666         271.023         46.2177 
        1.27241         266.754         44.9522 
        1.28819          262.14         43.7328 
        1.30392         260.737          42.563 
        1.31957         253.678          41.442 
        1.33529         250.717          40.358 
        1.35108         249.761         39.3091 
        1.36674         243.319         38.3057 
         1.3824         242.003         37.3388 
        1.39811          239.64         36.4027 
        1.41389         232.995         35.4957 
        1.42964         231.268         34.6216 
        1.44531         228.636         33.7818 
        1.46101         225.036         32.9685 
        1.47667         222.197         32.1849 
        1.49229         219.438         31.4293 
        1.50793         216.409         30.6975 
        1.52367         213.841         29.9847 
        1.53953         208.972         29.2901 
        1.55526         208.417         28.6234 
        1.57092         206.364         27.9806 
        1.58662          201.55         27.3564 
        1.60235         199.574         26.7502 
        1.61809          196.84         26.1625 
        1.63369         193.648         25.5979 
        1.64941         192.014         25.0463 
        1.66519         189.379         24.5091 
        1.68085         186.386         23.9918 
        1.69652         183.967         23.4896 
        1.71228         181.427         22.9991 
        1.72806         179.749         22.5224 
        1.74368         177.903         22.0643 
        1.75933         176.129         21.6182 
        1.77505         173.497         21.1825 
        1.79081         169.839         20.7583 
         1.8065         168.281         20.3477 
        1.82218         165.625         19.9487 
        1.83797         164.718         19.5579 
        1.85367         162.085         19.1799 
        1.86928         160.021         18.8143 
        1.88497         158.571         18.4564 
        1.90073         156.815         18.1066 
        1.91647         154.022         17.7664 
        1.93218         152.517         17.4357 
        1.94787         150.328         17.1141 
        1.96363         149.552         16.7995 
        1.97935         147.558         16.4935 
        1.99499         145.994         16.1971 
        2.01064         143.046         15.9075 
         2.0264          141.88         15.6234 
        2.04216         139.868         15.3465 
        2.05781         138.294         15.0781 
        2.07353          136.36         14.8152 
        2.08928         134.872         14.5582 
        2.10499         133.487         14.3081 
        2.12065         132.325         14.0646 
        2.13633         131.087         13.8267 
        2.15211         128.763         13.5929 
        2.16785         127.113         13.3652 
        2.18349         125.525         13.1442 
        2.19916         124.447         12.9279 
        2.21489          123.35         12.7158 
        2.23063         121.212         12.5083 
         2.2463         120.086         12.3065 
        2.26194          118.64         12.1097 
        2.27765         117.132         11.9163 
        2.29341         116.054         11.7266 
        2.30914         114.908         11.5416 
        2.32486         112.793         11.3607 
        2.34061         112.041         11.1834 
        2.35635         110.824         11.0101 
        2.37203         109.103         10.8412 
        2.38768         108.297         10.6762 
        2.40339         107.168         10.5141 
        2.41914         105.362          10.355 
        2.43483         104.594         10.1998 
         2.4505         103.574         10.0482 
        2.46622         102.305         9.89909 
        2.48195           101.2         9.75308 
        2.49759         99.8975         9.61084 
        2.51328         99.1394          9.4711 
        2.52906         97.3663          9.3333 
        2.54479         96.3459          9.1988 
        2.56049         95.2327         9.06724 
        2.57618          94.029         8.93841 
        2.59189         93.9161         8.81193 
        2.60758         91.8184         8.68813 
        2.62325         91.7557         8.56689 
        2.63898         90.5646         8.44758 
        2.65468         89.4995         8.33082 
        2.67044         88.1027         8.21581 
        2.68618          87.679         8.10326 
        2.70184         86.2778          7.9933 
        2.71755         85.4519         7.88514 
        2.73329         84.1588         7.77884 
        2.74897          83.914         7.67487 
        2.76462         82.6569         7.57307 
        2.78034          81.529         7.47271 
        2.79607         80.9334          7.3741 
        2.81179         80.3163          7.2774 
        2.82749         79.4632         7.18258 
        2.84321         78.5524         7.08936 
        2.85893         77.6825         6.99784 
        2.87462         76.8046         6.90812 
        2.89033         76.1107         6.81992 
        2.90605          75.676          6.7332 
        2.92176         74.4169         6.64805 
        2.93747         73.8304         6.56445 
        2.95318         72.8578         6.48228 
        2.96891         72.2294          6.4015 
        2.98456         71.4783         6.32248 
        3.00023         70.7315         6.24469 
        3.01596         70.2519         6.16799 
        3.03164         69.4153         6.09281 
        3.04738         68.7871         6.01869 
         3.0631          67.849         5.94584 
        3.07883         67.1828         5.87421 
        3.09456         66.4756         5.80379 
        3.11026         65.7749         5.73465 
        3.12596         65.2842         5.66666 
        3.14163           64.56         5.59994 
        3.15734         63.8786         5.53416 
        3.17308         63.2171         5.46929 
        3.18879         62.4241         5.40565 
        3.20447         62.2037         5.34313 
         3.2202         61.3872         5.28142 
         3.2359         60.7073         5.22081 
        3.25157          60.284         5.16131 
        3.26729          59.489         5.10256 
        3.28304         59.0053         5.04463 
        3.29877         58.3794         4.98769 
        3.31446         57.8929         4.93176 
        3.33014         57.3437         4.87676 
        3.34585         56.6245         4.82251 
        3.36158         56.1637         4.76903 
        3.37727         55.6608         4.71653 
        3.39294          55.269         4.66488 
        3.40867         54.7322         4.61383 
        3.42439         54.0707         4.56359 
        3.44008         53.5528          4.5142 
        3.45578          53.062         4.46551 
        3.47153         52.5312         4.41745 
        3.48724         51.9408         4.37019 
        3.50292         51.3934         4.32373 
        3.51859         51.1007         4.27799 
        3.53431         50.3612         4.23277 
        3.55007         50.0115         4.18811 
        3.56577          49.675         4.14427 
        3.58146         48.9916         4.10109 
        3.59719         48.5666         4.05844 
        3.61292         48.1432         4.01641 
        3.62859         47.7745         3.97515 
        3.64429         47.4371         3.93439 
        3.66003         46.8933         3.89409 
        3.67578         46.5338         3.85438 
        3.69146         46.0952         3.81537 
        3.70712         45.6389         3.77699 
        3.72284         45.1792           3.739 
        3.73853         44.8302          3.7016 
        3.75422         44.4337         3.66471 
        3.76993         44.1018          3.6283 
        3.78564         43.7896          3.5924 
        3.80137           43.23         3.55694 
        3.81707         42.7739         3.52203 
        3.83279         42.4231         3.48757 
        3.84853         42.0583         3.45353 
        3.86424          41.726         3.42001 
        3.87992         41.4362         3.38699 
        3.89561         41.0378         3.35441 
        3.91134         40.7544          3.3222 
        3.92704         40.2475         3.29046 
        3.94273         39.9885         3.25917 
        3.95845         39.6011         3.22823 
        3.97418         39.2022          3.1977 
        3.98988          38.773          3.1676 
        4.00554         38.5488         3.13798 
        4.02125         38.2231         3.10866 
        4.03698         37.8904         3.07967 
        4.05268         37.6571         3.05113 
        4.06839          37.098         3.02293 
         4.0841         37.0335          2.9951 
        4.09983         36.5755         2.96758 
        4.11555           36.24         2.94043 
        4.13124         36.0224         2.91369 
        4.14693         35.7442         2.88727 
        4.16266         35.2486         2.86113 
        4.17839         35.1012         2.83532 
        4.19408         34.8127          2.8099 
        4.20977         34.4865         2.78478 
        4.22551         34.2762         2.75991 
        4.24123          33.955         2.73537 
        4.25691         33.6392         2.71121 
        4.27259         33.3639         2.68733 
        4.28831         33.0724          2.6637 
        4.30404         32.7947         2.64033 
        4.31974         32.5076          2.6173 
        4.33543         32.3094         2.59456 
        4.35116         32.0123         2.57203 
        4.36688         31.7372         2.54979 
        4.38255         31.5473          2.5279 
        4.39825         31.1799         2.50622 
        4.41398         30.9763         2.48475 
         4.4297         30.6839         2.46356 
        4.44541          30.527         2.44263 
        4.46111         30.3038         2.42196 
        4.47683         29.9672         2.40151 
        4.49251         29.7659         2.38135 
        4.50819         29.5213         2.36143 
         4.5239         29.2128         2.34171 
        4.53962         29.0622         2.32219 
        4.55535          28.808         2.30289 
        4.57106         28.5495         2.28384 
        4.58678         28.3417           2.265 
         4.6025         28.0928         2.24637 
        4.61821         27.9012         2.22796 
        4.63391         27.6103         2.20979 
         4.6496         27.4073         2.19182 
        4.66532         27.1725         2.17403 
        4.68103          26.949         2.15645 
        4.69673         26.7785         2.13908 
        4.71241         26.5939         2.12192 
        4.72811         26.3524         2.10493 
        4.74384         26.1645          2.0881 
        4.75955         25.9772         2.07148 
        4.77525         25.8051         2.05506 
        4.79096          25.546          2.0388 
        4.80669         25.3979         2.02271 
         4.8224         25.1791         2.00681 
        4.83809          24.929          1.9911 
        4.85379         24.7468         1.97555 
         4.8695         24.6056         1.96016 
        4.88521         24.3564         1.94494 
        4.90093         24.2288         1.92988 
        4.91663         23.9823           1.915 
        4.93234         23.8228         1.90026 
        4.94807         23.6635         1.88567 
        4.96377         23.4514         1.87126 
        4.97943         23.2872         1.85703 
        4.99514         23.0837         1.84292 
        5.01086          22.916         1.82894 
        5.02654         22.7753         1.81515 
        5.04227         22.6064         1.80146 
          5.058         22.4216         1.78791 
        5.07371         22.2821         1.77452 
        5.08942         22.0848         1.76128 
        5.10513         21.9008         1.74816 
        5.12084         21.7621         1.73518 
        5.13656         21.5742         1.72233 
        5.15225         21.3881         1.70964 
        5.16796         21.2692         1.69706 
        5.18369         21.1278         1.68459 
         5.1994         20.9518         1.67227 
        5.21509         20.8265         1.66009 
        5.23079         20.6806         1.64801 
        5.24649         20.5369         1.63607 
        5.26217         20.3091         1.62426 
        5.27788          20.187         1.61254 
        5.29359         20.0876         1.60095 
        5.30933         19.8596         1.58945 
        5.32504         19.7121         1.57808 
        5.34073         19.6175         1.56684 
        5.35646         19.4664         1.55569 
        5.37218         19.3104         1.54465 
        5.38789          19.208         1.53373 
        5.40357         19.0408         1.52293 
        5.41929         18.9272         1.51221 
        5.43502         18.7459          1.5016 
         5.4507         18.6564         1.49112 
        5.46639         18.5382         1.48073 
        5.48212         18.3662         1.47042 
        5.49786         18.2333          1.4602 
        5.51353         18.1414         1.45013 
        5.52921         17.9727         1.44014 
        5.54495         17.8398         1.43022 
        5.56066         17.7302         1.42041 
        5.57637         17.6043         1.41069 
        5.59207         17.4637         1.40107 
        5.60778         17.3414         1.39153 
        5.62346         17.2386          1.3821 
        5.63916         17.0828         1.37275 
        5.65487         16.9783         1.36349 
         5.6706         16.8592          1.3543 
        5.68633         16.7424         1.34519 
        5.70203         16.6175         1.33618 
        5.71773         16.4981         1.32726 
        5.73344         16.3999         1.31842 
        5.74916         16.2946         1.30965 
        5.76486         16.1469         1.30098 
        5.78054         16.0441         1.29239 
        5.79626         15.9402         1.28386 
          5.812         15.8142          1.2754 
         5.8277         15.7418         1.26705 
        5.84339         15.5874         1.25877 
        5.85911         15.5133         1.25054 
        5.87484         15.4037          1.2424 
        5.89053         15.2958         1.23434 
        5.90623         15.1804         1.22635 
        5.92195         15.0671         1.21842 
        5.93767         15.0082         1.21057 
        5.95336         14.9114          1.2028 
        5.96905         14.7696          1.1951 
        5.98476         14.7116         1.18745 
        6.00048         14.6109         1.17988 
        6.01617         14.5051         1.17238 
        6.03185          14.381         1.16495 
        6.04756         14.3048         1.15758 
        6.06331         14.1571         1.15025 
        6.07903         14.0668           1.143 
        6.09473         14.0183         1.13582 
        6.11044         13.8998          1.1287 
        6.12616         13.7985         1.12164 
        6.14186         13.7245         1.11465 
        6.15755         13.6433         1.10771 
        6.17326         13.5352         1.10084 
        6.18898         13.4229         1.09402 
        6.20467         13.3665         1.08727 
        6.22036         13.2824         1.08058 
         6.2361         13.1851         1.07392 
         6.2518         13.1417         1.06734 
        6.26748         13.0076         1.06082 
        6.28319         12.9445         1.05435 
        6.29893         12.8284         1.04792 
        6.31463         12.7655         1.04156 
        6.33033         12.6615         1.03525 
        6.34604          12.597         1.02899 
        6.36177         12.4955         1.02278 
        6.37747         12.4352         1.01663 
