# k  (h/Mpc)    Pcb(k)  (Mpc/h)^3    Pcb_linear(k) (Mpc/h)^3   ShotnoiseSubtracted = true
      0.0200456         5673.68         5762.35 
      0.0350414         4308.33         4221.19 
      0.0492313         3089.96         3098.52 
      0.0637834         2589.51         2660.91 
      0.0800726         2076.77         2145.22 
       0.096163         1584.02         1544.44 
       0.111083         1295.85         1246.47 
       0.126058         1118.14         1134.69 
       0.142273         958.674         966.627 
       0.158546         778.951         758.426 
        0.17375         679.611         646.537 
       0.188953         626.915          596.34 
       0.204907           536.2         529.999 
       0.220756         476.731         446.969 
        0.23588         422.311         391.782 
         0.2514         382.888         360.669 
       0.267535         365.626          328.03 
       0.283568          319.57          289.14 
       0.299022         300.214         258.957 
       0.314451         292.804         238.832 
       0.330372          256.22         220.215 
       0.346141         237.261         200.162 
       0.361624         223.621         182.615 
       0.377134         205.175         169.096 
       0.392932         200.692          157.21 
       0.408854         188.802         145.294 
       0.424564         180.616         134.339 
       0.440253         164.089         125.128 
       0.455999          153.79         117.067 
       0.471626         149.126         109.493 
        0.48727         144.493         102.387 
       0.502856         132.766         96.0568 
       0.518488         129.845         90.4041 
       0.534347         122.268         85.0878 
       0.550082         119.099         80.1584 
       0.565732         116.259         75.6584 
       0.581496         107.674          71.536 
       0.597222         104.745         67.7322 
       0.612804          101.64         64.2176 
       0.628434         99.1139         60.9363 
       0.644267         94.0848         57.8662 
       0.660051         90.9226         55.0286 
       0.675724         88.8185         52.4003 
       0.691403         87.2451         49.9432 
       0.707174          84.404         47.6316 
       0.722871         82.3318         45.4772 
        0.73838         79.4639         43.4809 
       0.754018         75.2992         41.5909 
       0.769845         74.7027         39.7943 
        0.78569         72.2474         38.1038 
       0.801365         70.4282         36.5299 
       0.817031         67.9313         35.0478 
       0.832809         66.9424         33.6403 
       0.848511         65.1492          32.318 
       0.864097         64.0237         31.0774 
       0.879701         62.7777         29.9021 
       0.895507         60.5831         28.7749 
       0.911279         59.5493         27.7094 
        0.92691         57.9239         26.7077 
       0.942635         56.8772          25.751 
       0.958396          56.484           24.84 
       0.974128         55.0461         23.9757 
       0.989692         53.5465         23.1617 
        1.00528         52.7315         22.3851 
        1.02113         51.6304         21.6326 
        1.03692         51.1288          20.918 
        1.05264         49.9819         20.2397 
        1.06832         48.9444          19.593 
        1.08405         47.8964         18.9734 
        1.09979         47.7368         18.3807 
        1.11537         46.3646         17.8197 
        1.13105         45.3267         17.2792 
        1.14679         44.6916         16.7594 
        1.16256         44.1418         16.2604 
        1.17828         43.5149         15.7837 
        1.19395         42.5952         15.3281 
         1.2097         42.2153         14.8885 
        1.22537         41.4077         14.4686 
          1.241         40.6803         14.0664 
        1.25666         40.1294         13.6788 
        1.27241         39.7625         13.3043 
        1.28819         38.4529         12.9434 
        1.30392         38.6528         12.5972 
        1.31957         37.9423         12.2654 
        1.33529         37.2213         11.9446 
        1.35108         36.7242         11.6341 
        1.36674         36.3948         11.3372 
         1.3824         35.7488          11.051 
        1.39811         34.9862          10.774 
        1.41389          34.688         10.5055 
        1.42964         34.3912         10.2468 
        1.44531         33.6928         9.99825 
        1.46101         33.4623         9.75754 
        1.47667         33.0664         9.52562 
        1.49229         32.4632         9.30198 
        1.50793         32.1288          9.0854 
        1.52367         31.6619         8.87443 
        1.53953          31.443         8.66885 
        1.55526         30.9259         8.47154 
        1.57092         30.7042         8.28129 
        1.58662         30.2354         8.09653 
        1.60235         29.7987         7.91715 
        1.61809         29.5702          7.7432 
        1.63369         29.2637          7.5761 
        1.64941         28.9185         7.41283 
        1.66519         28.3622         7.25386 
        1.68085         27.9677         7.10076 
        1.69652         27.8825          6.9521 
        1.71228         27.5351         6.80693 
        1.72806         27.1197         6.66585 
        1.74368         26.8625         6.53026 
        1.75933         26.5934         6.39823 
        1.77505         26.3428         6.26929 
        1.79081         26.0654         6.14373 
         1.8065         25.7238         6.02221 
        1.82218         25.4621         5.90413 
        1.83797         25.3274         5.78846 
        1.85367         25.1164         5.67658 
        1.86928         24.8847         5.56838 
        1.88497         24.5006         5.46245 
        1.90073         24.2247         5.35893 
        1.91647         23.9018         5.25823 
        1.93218         24.0036         5.16037 
        1.94787         23.5523         5.06519 
        1.96363         23.4149         4.97207 
        1.97935         23.0125         4.88152 
        1.99499         22.8064         4.79377 
        2.01064         22.6029         4.70808 
         2.0264          22.365         4.62399 
        2.04216         22.2526         4.54202 
        2.05781         21.9882         4.46259 
        2.07353         21.7892          4.3848 
        2.08928         21.4579         4.30873 
        2.10499         21.2846         4.23469 
        2.12065         21.1053         4.16265 
        2.13633         20.9771         4.09224 
        2.15211         20.6667         4.02303 
        2.16785         20.6195         3.95564 
        2.18349         20.3206         3.89024 
        2.19916         20.1353         3.82621 
        2.21489         19.9349         3.76342 
        2.23063         19.8467         3.70203 
         2.2463         19.5639          3.6423 
        2.26194         19.4111         3.58406 
        2.27765         19.1192         3.52681 
        2.29341          19.023         3.47068 
        2.30914         18.8195         3.41591 
        2.32486          18.759         3.36237 
        2.34061         18.5604          3.3099 
        2.35635         18.3469         3.25862 
        2.37203         18.1919         3.20862 
        2.38768         17.9927         3.15978 
        2.40339          17.918         3.11181 
        2.41914         17.6852         3.06473 
        2.43483         17.5066          3.0188 
         2.4505         17.3287         2.97391 
        2.46622         17.2799         2.92979 
        2.48195         17.1052         2.88657 
        2.49759         16.8338         2.84448 
        2.51328          16.863         2.80312 
        2.52906         16.6391         2.76233 
        2.54479         16.4717         2.72253 
        2.56049         16.2973         2.68359 
        2.57618         16.2614         2.64546 
        2.59189         16.1309         2.60803 
        2.60758         15.8799         2.57139 
        2.62325         15.7872          2.5355 
        2.63898         15.7076         2.50019 
        2.65468         15.4507         2.46564 
        2.67044         15.4165         2.43159 
        2.68618         15.3107         2.39828 
        2.70184         15.1249         2.36574 
        2.71755         15.0183         2.33373 
        2.73329         14.8473         2.30227 
        2.74897         14.7756          2.2715 
        2.76462         14.6535         2.24137 
        2.78034         14.4996         2.21166 
        2.79607         14.4003         2.18248 
        2.81179         14.2486         2.15386 
        2.82749         14.1526         2.12579 
        2.84321         14.0463          2.0982 
        2.85893         13.9017         2.07112 
        2.87462         13.8476         2.04457 
        2.89033         13.6908         2.01846 
        2.90605         13.5992         1.99279 
        2.92176         13.4582         1.96759 
        2.93747         13.3582         1.94285 
        2.95318         13.2397         1.91853 
        2.96891         13.1725         1.89462 
        2.98456         13.0398         1.87123 
        3.00023         12.9526         1.84821 
        3.01596          12.819         1.82551 
        3.03164         12.7809         1.80326 
        3.04738         12.6301         1.78132 
         3.0631         12.4711         1.75976 
        3.07883         12.4054         1.73856 
        3.09456         12.3499         1.71772 
        3.11026         12.2752         1.69726 
        3.12596         12.1352         1.67713 
        3.14163         12.0767         1.65739 
        3.15734         11.9284         1.63792 
        3.17308         11.8608         1.61872 
        3.18879         11.7651         1.59989 
        3.20447         11.6575         1.58138 
         3.2202         11.5699         1.56312 
         3.2359         11.4505         1.54518 
        3.25157          11.426         1.52757 
        3.26729         11.2971         1.51018 
        3.28304         11.2018         1.49304 
        3.29877          11.132         1.47618 
        3.31446         11.0469         1.45963 
        3.33014         10.9526         1.44335 
        3.34585         10.9021          1.4273 
        3.36158         10.7981         1.41147 
        3.37727         10.7322         1.39593 
        3.39294         10.6245         1.38064 
        3.40867         10.5643         1.36554 
        3.42439         10.4678         1.35066 
        3.44008         10.3769         1.33605 
        3.45578         10.2997         1.32164 
        3.47153         10.2102         1.30741 
        3.48724         10.1434         1.29342 
        3.50292         10.0419         1.27968 
        3.51859         10.0016         1.26614 
        3.53431         9.88971         1.25275 
        3.55007         9.82342         1.23954 
        3.56577         9.73333         1.22656 
        3.58146         9.68831         1.21378 
        3.59719         9.60607         1.20116 
        3.61292          9.5559         1.18872 
        3.62859         9.48515         1.17651 
        3.64429         9.39524         1.16444 
        3.66003         9.34685         1.15252 
        3.67578         9.23702         1.14076 
        3.69146         9.21253         1.12922 
        3.70712         9.13867         1.11786 
        3.72284         9.03075         1.10661 
        3.73853         8.98107         1.09555 
        3.75422         8.91481         1.08463 
        3.76993         8.82974         1.07385 
        3.78564          8.7654         1.06323 
        3.80137         8.74242         1.05273 
        3.81707         8.64053          1.0424 
        3.83279         8.57192          1.0322 
        3.84853         8.51896         1.02212 
        3.86424         8.47568          1.0122 
        3.87992         8.40714         1.00243 
        3.89561         8.32518        0.992791 
        3.91134         8.25013        0.983258 
        3.92704          8.2071        0.973863 
        3.94273         8.13955        0.964601 
        3.95845         8.10718        0.955445 
        3.97418         8.02945        0.946407 
        3.98988         7.99202          0.9375 
        4.00554         7.91409        0.928734 
        4.02125          7.8608        0.920056 
        4.03698         7.80125        0.911477 
        4.05268         7.72744        0.903028 
        4.06839           7.664        0.894682 
         4.0841         7.62815        0.886445 
        4.09983         7.55851        0.878302 
        4.11555         7.48125        0.870265 
        4.13124         7.43742        0.862353 
        4.14693         7.38615        0.854533 
        4.16266         7.34574        0.846794 
        4.17839         7.29357        0.839157 
        4.19408         7.23848        0.831632 
        4.20977          7.1797        0.824198 
        4.22551         7.14184        0.816838 
        4.24123         7.07117        0.809576 
        4.25691         7.02634        0.802424 
        4.27259          6.9629        0.795357 
        4.28831         6.92032        0.788363 
        4.30404         6.85871        0.781446 
        4.31974         6.81861        0.774629 
        4.33543           6.779        0.767899 
        4.35116         6.71555        0.761233 
        4.36688         6.66933         0.75465 
        4.38255         6.62066         0.74817 
        4.39825         6.57314        0.741753 
        4.41398         6.52388          0.7354 
         4.4297         6.49891        0.729129 
        4.44541         6.42965        0.722934 
        4.46111         6.40185        0.716816 
        4.47683         6.34615        0.710765 
        4.49251         6.31239        0.704797 
        4.50819         6.26967        0.698901 
         4.5239         6.22026        0.693064 
        4.53962         6.16364        0.687287 
        4.55535         6.12801        0.681575 
        4.57106          6.0822        0.675937 
        4.58678         6.04479        0.670361 
         4.6025         6.00581        0.664849 
        4.61821          5.9628          0.6594 
        4.63391         5.90418         0.65402 
         4.6496         5.87491        0.648703 
        4.66532         5.83057        0.643438 
        4.68103         5.79014        0.638234 
        4.69673         5.76265        0.633094 
        4.71241         5.71712        0.628016 
        4.72811         5.67595        0.622986 
        4.74384         5.64645        0.618005 
        4.75955          5.5996        0.613088 
        4.77525         5.54729        0.608227 
        4.79096         5.52913        0.603414 
        4.80669         5.48995        0.598651 
         4.8224         5.43267        0.593946 
        4.83809         5.40274        0.589296 
        4.85379         5.35894        0.584695 
         4.8695         5.34395        0.580139 
        4.88521         5.30327        0.575635 
        4.90093         5.25845        0.571179 
        4.91663         5.24206        0.566774 
        4.93234         5.19208        0.562411 
        4.94807          5.1628        0.558093 
        4.96377         5.12564        0.553828 
        4.97943         5.09799        0.549618 
        4.99514         5.05661         0.54544 
        5.01086         5.02743        0.541304 
        5.02654         4.98793        0.537222 
        5.04227         4.95193         0.53317 
          5.058         4.91831        0.529159 
        5.07371         4.88712        0.525198 
        5.08942         4.85127        0.521277 
        5.10513         4.81459        0.517396 
        5.12084         4.79937        0.513553 
        5.13656         4.76932        0.509751 
        5.15225         4.73087        0.505994 
        5.16796         4.70864         0.50227 
        5.18369         4.65999         0.49858 
         5.1994         4.64377        0.494934 
        5.21509         4.59609        0.491329 
        5.23079         4.57386        0.487755 
        5.24649         4.54942        0.484221 
        5.26217         4.50897        0.480724 
        5.27788         4.49343        0.477258 
        5.29359         4.46267        0.473825 
        5.30933         4.43863        0.470422 
        5.32504          4.4112        0.467058 
        5.34073         4.38377        0.463731 
        5.35646         4.34792        0.460431 
        5.37218         4.32507        0.457162 
        5.38789          4.2997        0.453931 
        5.40357         4.26908        0.450735 
        5.41929          4.2353        0.447563 
        5.43502         4.21108        0.444422 
         5.4507         4.19046        0.441319 
        5.46639         4.14863        0.438245 
        5.48212         4.13694        0.435194 
        5.49786         4.10703        0.432169 
        5.51353         4.08387        0.429188 
        5.52921         4.05639        0.426232 
        5.54495         4.03294        0.423296 
        5.56066         4.01033        0.420391 
        5.57637         3.97293        0.417514 
        5.59207         3.95714        0.414667 
        5.60778          3.9343        0.411846 
        5.62346         3.91036        0.409055 
        5.63916         3.88121        0.406288 
        5.65487         3.85984        0.403545 
         5.6706         3.82811        0.400825 
        5.68633         3.81917        0.398129 
        5.70203         3.79917        0.395464 
        5.71773         3.76317        0.392824 
        5.73344         3.74104        0.390207 
        5.74916         3.72004        0.387612 
        5.76486         3.69737        0.385044 
        5.78054         3.67506        0.382503 
        5.79626         3.65161        0.379979 
          5.812         3.62649        0.377476 
         5.8277         3.60476        0.375002 
        5.84339         3.59038        0.372551 
        5.85911         3.56384        0.370118 
        5.87484         3.54278        0.367707 
        5.89053         3.52234        0.365322 
        5.90623         3.50546        0.362958 
        5.92195         3.48455        0.360611 
        5.93767         3.46284        0.358286 
        5.95336         3.44022        0.355986 
        5.96905         3.41571        0.353707 
        5.98476         3.39501        0.351445 
        6.00048          3.3798        0.349203 
        6.01617         3.35634        0.346983 
        6.03185         3.34155        0.344786 
        6.04756         3.31544        0.342602 
        6.06331         3.30033        0.340433 
        6.07903         3.28388        0.338288 
        6.09473          3.2598        0.336163 
        6.11044          3.2406        0.334055 
        6.12616         3.22146        0.331966 
        6.14186         3.20473        0.329896 
        6.15755         3.18771        0.327845 
        6.17326         3.16991         0.32581 
        6.18898          3.1436        0.323791 
        6.20467          3.1305        0.321794 
        6.22036         3.11714        0.319813 
         6.2361         3.09224        0.317844 
         6.2518         3.07586        0.315895 
        6.26748          3.0606        0.313967 
        6.28319         3.04298         0.31205 
        6.29893         3.02413        0.310148 
        6.31463         3.01108        0.308265 
        6.33033         2.99578        0.306398 
        6.34604         2.97445        0.304545 
        6.36177         2.96149        0.302707 
        6.37747         2.94495        0.300887 
