# k  (h/Mpc)    Pcb(k)  (Mpc/h)^3    Pcb_linear(k) (Mpc/h)^3   ShotnoiseSubtracted = true
      0.0200456         13295.3         13597.3 
      0.0350414         9615.67         9960.66 
      0.0492313          7213.8         7311.52 
      0.0637834         6363.99          6278.9 
      0.0800726          5102.5         5062.03 
       0.096163         3540.98         3644.39 
       0.111083         2846.46         2941.27 
       0.126058         2679.81         2677.52 
       0.142273         2324.28         2280.93 
       0.158546         1962.01         1789.64 
        0.17375         1583.72         1525.62 
       0.188953         1550.61         1407.17 
       0.204907         1462.84         1250.63 
       0.220756         1251.88         1054.71 
        0.23588         1110.23         924.481 
         0.2514         973.323         851.064 
       0.267535         960.565         774.047 
       0.283568         873.712         682.277 
       0.299022         819.397         611.056 
       0.314451         777.928         563.568 
       0.330372         718.789         519.637 
       0.346141         662.267         472.319 
       0.361624         638.034         430.913 
       0.377134         594.079         399.012 
       0.392932         570.293         370.966 
       0.408854         550.456         342.847 
       0.424564         520.513         316.997 
       0.440253         508.332         295.263 
       0.455999         480.224          276.24 
       0.471626         452.707         258.369 
        0.48727         440.196         241.601 
       0.502856         427.044         226.663 
       0.518488         423.315         213.325 
       0.534347         396.484          200.78 
       0.550082         377.374         189.148 
       0.565732         376.316          178.53 
       0.581496         355.638         168.802 
       0.597222         349.445         159.826 
       0.612804         338.509         151.533 
       0.628434         326.402          143.79 
       0.644267         317.064         136.546 
       0.660051         311.401          129.85 
       0.675724         306.928         123.648 
       0.691403         298.075          117.85 
       0.707174         287.062         112.395 
       0.722871         284.109         107.312 
        0.73838         279.472         102.601 
       0.754018         271.825         98.1414 
       0.769845         262.832         93.9018 
        0.78569          262.72         89.9128 
       0.801365         254.296          86.199 
       0.817031         246.878         82.7017 
       0.832809         244.116         79.3804 
       0.848511         237.936         76.2602 
       0.864097         235.073         73.3328 
       0.879701         230.597         70.5595 
       0.895507         224.848         67.8997 
       0.911279         218.698         65.3853 
        0.92691          218.83         63.0217 
       0.942635         213.732         60.7642 
       0.958396         212.304         58.6146 
       0.974128         207.208         56.5749 
       0.989692          202.49         54.6544 
        1.00528         200.007         52.8218 
        1.02113         198.765          51.046 
        1.03692         192.719         49.3599 
        1.05264         189.198         47.7592 
        1.06832         185.993         46.2333 
        1.08405         183.247         44.7712 
        1.09979           182.2         43.3726 
        1.11537         176.812         42.0488 
        1.13105         175.152         40.7734 
        1.14679         174.752         39.5469 
        1.16256         171.625         38.3694 
        1.17828         168.015         37.2446 
        1.19395         165.797         36.1695 
         1.2097         164.441         35.1322 
        1.22537         161.505         34.1413 
          1.241         159.272         33.1923 
        1.25666         156.755         32.2777 
        1.27241         154.159         31.3939 
        1.28819         152.577         30.5423 
        1.30392         150.721         29.7253 
        1.31957         149.278         28.9424 
        1.33529         145.556         28.1854 
        1.35108         144.562         27.4529 
        1.36674         143.295         26.7521 
         1.3824         140.296         26.0769 
        1.39811         139.974         25.4231 
        1.41389         137.225         24.7896 
        1.42964         134.628         24.1792 
        1.44531         132.287         23.5927 
        1.46101         131.199         23.0247 
        1.47667         129.496         22.4774 
        1.49229         127.977         21.9497 
        1.50793         126.786         21.4386 
        1.52367         125.289         20.9408 
        1.53953          122.92         20.4557 
        1.55526         121.714         19.9901 
        1.57092         120.364         19.5412 
        1.58662         118.271         19.1052 
        1.60235         117.736          18.682 
        1.61809         115.588         18.2715 
        1.63369         114.493         17.8772 
        1.64941         113.437         17.4919 
        1.66519         111.271         17.1168 
        1.68085          110.53         16.7555 
        1.69652         107.727         16.4047 
        1.71228         108.097         16.0622 
        1.72806         106.301         15.7293 
        1.74368         105.185         15.4093 
        1.75933         103.647         15.0978 
        1.77505         102.537         14.7935 
        1.79081         101.067         14.4973 
         1.8065         100.115         14.2105 
        1.82218         98.1411         13.9319 
        1.83797         97.1912         13.6589 
        1.85367         96.1306         13.3949 
        1.86928         95.7022         13.1396 
        1.88497         93.6627         12.8896 
        1.90073           93.17         12.6454 
        1.91647         91.8098         12.4078 
        1.93218         90.7838         12.1768 
        1.94787         89.7762         11.9522 
        1.96363         88.3576         11.7325 
        1.97935         87.5989         11.5188 
        1.99499         86.5351         11.3118 
        2.01064          85.597         11.1096 
         2.0264         84.0371         10.9111 
        2.04216         83.1666         10.7177 
        2.05781         82.4308         10.5303 
        2.07353         81.0248         10.3467 
        2.08928         79.9007         10.1672 
        2.10499         79.4627         9.99253 
        2.12065         78.9062         9.82252 
        2.13633         77.7768         9.65638 
        2.15211         76.8914         9.49307 
        2.16785          76.077         9.33406 
        2.18349         75.1465         9.17974 
        2.19916         74.2404         9.02863 
        2.21489         73.5384         8.88048 
        2.23063         72.8649         8.73561 
         2.2463         71.9168         8.59467 
        2.26194         71.1677         8.45724 
        2.27765         70.3896         8.32215 
        2.29341         69.5911          8.1897 
        2.30914         68.4833         8.06046 
        2.32486         67.6101         7.93412 
        2.34061         67.0009         7.81032 
        2.35635         66.5763         7.68931 
        2.37203          65.337         7.57132 
        2.38768         64.8804         7.45609 
        2.40339         63.8881         7.34287 
        2.41914         63.6218         7.23178 
        2.43483         63.1414         7.12341 
         2.4505         62.3035         7.01748 
        2.46622          61.637         6.91337 
        2.48195         60.8863          6.8114 
        2.49759         59.9488         6.71206 
        2.51328         59.5363         6.61447 
        2.52906         58.9935         6.51823 
        2.54479         58.2853         6.42429 
        2.56049         57.5545         6.33242 
        2.57618         57.0994         6.24245 
        2.59189          56.504         6.15411 
        2.60758         56.0631         6.06765 
        2.62325         55.3162         5.98298 
        2.63898         54.8278         5.89966 
        2.65468         54.1888         5.81812 
        2.67044         53.3734         5.73779 
        2.68618         53.1978         5.65919 
        2.70184         52.3366         5.58239 
        2.71755         52.2448         5.50686 
        2.73329         51.1885         5.43262 
        2.74897         50.7875         5.36001 
        2.76462         50.2787         5.28891 
        2.78034         49.8399         5.21883 
        2.79607         49.1395         5.14996 
        2.81179         48.7352         5.08242 
        2.82749         47.9651          5.0162 
        2.84321         47.7367         4.95109 
        2.85893         47.1567         4.88718 
        2.87462         46.5384         4.82452 
        2.89033         46.2117         4.76292 
        2.90605         45.5927         4.70236 
        2.92176           45.31          4.6429 
        2.93747         44.8458         4.58451 
        2.95318         44.3798         4.52712 
        2.96891         43.6429         4.47071 
        2.98456         43.4942         4.41552 
        3.00023         42.9963         4.36119 
        3.01596         42.6126         4.30763 
        3.03164         42.0598         4.25512 
        3.04738         41.7949         4.20336 
         3.0631         41.2312         4.15248 
        3.07883         40.8641         4.10246 
        3.09456         40.5197         4.05328 
        3.11026         39.9785         4.00499 
        3.12596         39.6896          3.9575 
        3.14163         39.2523         3.91091 
        3.15734         38.7696         3.86497 
        3.17308         38.5322         3.81966 
        3.18879         38.1733         3.77522 
        3.20447         37.6473         3.73156 
         3.2202          37.281         3.68846 
         3.2359         36.9783         3.64613 
        3.25157         36.5847         3.60458 
        3.26729         36.3679         3.56355 
        3.28304         35.9446         3.52309 
        3.29877         35.5767         3.48332 
        3.31446         35.3257         3.44427 
        3.33014         34.9717         3.40585 
        3.34585         34.6034         3.36797 
        3.36158         34.2981         3.33061 
        3.37727         33.9301         3.29395 
        3.39294         33.5924         3.25788 
        3.40867          33.299         3.22223 
        3.42439         32.9278         3.18714 
        3.44008         32.7736         3.15265 
        3.45578         32.2842         3.11864 
        3.47153         32.0766         3.08508 
        3.48724         31.6349         3.05207 
        3.50292         31.4289         3.01963 
        3.51859          31.082         2.98768 
        3.53431          30.913          2.9561 
        3.55007         30.5946         2.92491 
        3.56577          30.306          2.8943 
        3.58146          30.122         2.86414 
        3.59719         29.6994         2.83435 
        3.61292         29.4234           2.805 
        3.62859         29.2109         2.77618 
        3.64429         28.8905         2.74772 
        3.66003         28.6936         2.71957 
        3.67578         28.4495         2.69184 
        3.69146         28.1417          2.6646 
        3.70712         27.8844         2.63779 
        3.72284         27.7103         2.61126 
        3.73853         27.4072         2.58514 
        3.75422         27.1379         2.55938 
        3.76993         27.0099         2.53395 
        3.78564         26.6752         2.50887 
        3.80137         26.4906         2.48411 
        3.81707         26.2046         2.45973 
        3.83279         25.9017         2.43567 
        3.84853         25.6084         2.41189 
        3.86424         25.4389         2.38848 
        3.87992         25.2242         2.36542 
        3.89561         25.0017         2.34267 
        3.91134         24.8038         2.32018 
        3.92704          24.587         2.29801 
        3.94273         24.3035         2.27615 
        3.95845         24.1434         2.25455 
        3.97418         23.9494         2.23322 
        3.98988         23.6817          2.2122 
        4.00554         23.5313         2.19152 
        4.02125         23.3517         2.17104 
        4.03698         23.0554          2.1508 
        4.05268         22.8949         2.13086 
        4.06839         22.6786         2.11116 
         4.0841         22.5565         2.09173 
        4.09983         22.3386         2.07251 
        4.11555         22.0976         2.05355 
        4.13124         21.8926         2.03488 
        4.14693         21.6789         2.01643 
        4.16266         21.4732         1.99817 
        4.17839         21.3055         1.98014 
        4.19408         21.1423         1.96239 
        4.20977         21.0678         1.94485 
        4.22551         20.8255         1.92748 
        4.24123         20.6228         1.91034 
        4.25691         20.4627         1.89347 
        4.27259         20.2667         1.87679 
        4.28831         20.0853         1.86029 
        4.30404         19.9374         1.84397 
        4.31974         19.7332         1.82788 
        4.33543         19.6001           1.812 
        4.35116         19.4725         1.79627 
        4.36688         19.2722         1.78073 
        4.38255         19.1256         1.76544 
        4.39825         19.0067          1.7503 
        4.41398         18.8147         1.73531 
         4.4297         18.6496         1.72051 
        4.44541         18.5105         1.70589 
        4.46111         18.3367         1.69146 
        4.47683         18.1918         1.67718 
        4.49251         18.0845          1.6631 
        4.50819         17.8931         1.64918 
         4.5239         17.7919         1.63541 
        4.53962         17.5702         1.62178 
        4.55535         17.4716          1.6083 
        4.57106         17.3211           1.595 
        4.58678         17.2161         1.58184 
         4.6025         17.0549         1.56883 
        4.61821         16.9183         1.55597 
        4.63391         16.8035         1.54328 
         4.6496          16.596         1.53073 
        4.66532         16.4647         1.51831 
        4.68103         16.3786         1.50603 
        4.69673         16.2925          1.4939 
        4.71241         16.1077         1.48192 
        4.72811         15.9875         1.47005 
        4.74384         15.8646          1.4583 
        4.75955         15.7333         1.44669 
        4.77525         15.6241         1.43522 
        4.79096         15.4868         1.42386 
        4.80669         15.3841         1.41263 
         4.8224         15.2107         1.40152 
        4.83809         15.1171         1.39055 
        4.85379         15.0017         1.37969 
         4.8695         14.9254         1.36894 
        4.88521          14.764         1.35832 
        4.90093         14.6826          1.3478 
        4.91663         14.5798         1.33741 
        4.93234         14.3978         1.32711 
        4.94807          14.329         1.31692 
        4.96377          14.205         1.30686 
        4.97943          14.086         1.29692 
        4.99514         13.9823         1.28707 
        5.01086         13.8825         1.27731 
        5.02654         13.7958         1.26767 
        5.04227         13.6736         1.25811 
          5.058         13.5904         1.24865 
        5.07371         13.4846          1.2393 
        5.08942         13.3803         1.23005 
        5.10513         13.2787         1.22089 
        5.12084         13.1664         1.21182 
        5.13656         13.0691         1.20285 
        5.15225         12.9889         1.19399 
        5.16796         12.8935          1.1852 
        5.18369         12.7595         1.17649 
         5.1994         12.7046         1.16789 
        5.21509         12.5922         1.15938 
        5.23079         12.4979         1.15095 
        5.24649         12.4352         1.14261 
        5.26217         12.3183         1.13436 
        5.27788          12.217         1.12618 
        5.29359         12.1739         1.11808 
        5.30933         12.0741         1.11005 
        5.32504         11.9587         1.10211 
        5.34073         11.8812         1.09426 
        5.35646         11.7943         1.08647 
        5.37218         11.7058         1.07876 
        5.38789           11.64         1.07113 
        5.40357         11.5597         1.06359 
        5.41929         11.4586         1.05611 
        5.43502         11.4012         1.04869 
         5.4507         11.2753         1.04137 
        5.46639         11.2086         1.03412 
        5.48212         11.1277         1.02692 
        5.49786         11.0672         1.01978 
        5.51353         10.9663         1.01275 
        5.52921         10.9002         1.00577 
        5.54495         10.8103        0.998844 
        5.56066         10.7208        0.991989 
        5.57637         10.6497          0.9852 
        5.59207         10.5982        0.978482 
        5.60778         10.5178        0.971825 
        5.62346         10.4539         0.96524 
        5.63916         10.3876         0.95871 
        5.65487         10.2902        0.952238 
         5.6706         10.2374        0.945819 
        5.68633         10.1526        0.939458 
        5.70203         10.0893        0.933169 
        5.71773         10.0217        0.926939 
        5.73344         9.94142        0.920764 
        5.74916         9.84837         0.91464 
        5.76486         9.81815        0.908581 
        5.78054         9.73641        0.902587 
        5.79626         9.66967         0.89663 
          5.812         9.60445        0.890723 
         5.8277         9.52255        0.884886 
        5.84339         9.48923        0.879103 
        5.85911         9.39556         0.87336 
        5.87484          9.3492        0.867671 
        5.89053         9.28142        0.862044 
        5.90623          9.2106        0.856466 
        5.92195         9.16713        0.850927 
        5.93767         9.09045        0.845442 
        5.95336         9.04369        0.840014 
        5.96905         8.97409        0.834637 
        5.98476         8.91086        0.829299 
        6.00048         8.85738        0.824008 
        6.01617         8.80374         0.81877 
        6.03185         8.73205        0.813585 
        6.04756         8.65736        0.808432 
        6.06331         8.62123        0.803314 
        6.07903         8.56293        0.798252 
        6.09473         8.50271        0.793238 
        6.11044         8.45479        0.788264 
        6.12616         8.39336        0.783334 
        6.14186         8.34242        0.778451 
        6.15755         8.27943         0.77361 
        6.17326         8.21229        0.768808 
        6.18898         8.18547        0.764045 
        6.20467         8.13112        0.759331 
        6.22036         8.05795        0.754658 
         6.2361         8.02302        0.750012 
         6.2518          7.9627        0.745413 
        6.26748         7.90323        0.740863 
        6.28319         7.85463        0.736339 
        6.29893          7.8109         0.73185 
        6.31463         7.77415        0.727406 
        6.33033          7.7105        0.723001 
        6.34604         7.66542         0.71863 
        6.36177         7.61421        0.714291 
        6.37747         7.56928        0.709997 
