# k  (h/Mpc)    Pcb(k)  (Mpc/h)^3    Pcb_linear(k) (Mpc/h)^3   ShotnoiseSubtracted = true
      0.0200456          1355.1         1377.41 
      0.0350414         1002.23         1009.01 
      0.0492313         742.857         740.656 
      0.0637834         640.615         636.052 
      0.0800726         515.757         512.783 
       0.096163         367.906         369.177 
       0.111083         295.232          297.95 
       0.126058         271.973         271.232 
       0.142273         233.235         231.058 
       0.158546         184.711         181.291 
        0.17375         154.416         154.545 
       0.188953         144.388         142.546 
       0.204907         132.365         126.689 
       0.220756         110.273         106.842 
        0.23588         96.6862         93.6498 
         0.2514         87.7296         86.2128 
       0.267535         80.6559         78.4109 
       0.283568           71.91         69.1147 
       0.299022         65.1779         61.8999 
       0.314451         58.8263         57.0894 
       0.330372         54.8735         52.6392 
       0.346141         49.9412         47.8458 
       0.361624         46.1671         43.6515 
       0.377134         43.3914         40.4199 
       0.392932          38.751         37.5789 
       0.408854         37.2519         34.7303 
       0.424564         34.7414         32.1118 
       0.440253         32.1568         29.9101 
       0.455999          30.427         27.9831 
       0.471626         28.6441         26.1728 
        0.48727         26.9979         24.4742 
       0.502856         25.2588          22.961 
       0.518488         24.1953         21.6098 
       0.534347         23.1787          20.339 
       0.550082         21.2407         19.1607 
       0.565732         19.7217         18.0851 
       0.581496         19.3729         17.0996 
       0.597222         18.6496         16.1904 
       0.612804          17.406         15.3503 
       0.628434         16.7994          14.566 
       0.644267         16.1963         13.8321 
       0.660051         15.3189         13.1538 
       0.675724         14.5775         12.5255 
       0.691403         14.1151         11.9382 
       0.707174         13.4874         11.3856 
       0.722871          12.959         10.8707 
        0.73838         12.4931         10.3935 
       0.754018         12.0788         9.94171 
       0.769845         11.5297         9.51225 
        0.78569         11.1874         9.10816 
       0.801365         10.7325         8.73195 
       0.817031         10.4155         8.37768 
       0.832809         10.1229         8.04122 
       0.848511         9.54471         7.72515 
       0.864097         9.27557         7.42861 
       0.879701          8.9964         7.14767 
       0.895507         8.62546         6.87823 
       0.911279         8.51361         6.62353 
        0.92691         8.22194          6.3841 
       0.942635         7.87043         6.15541 
       0.958396         7.63535         5.93766 
       0.974128         7.44909         5.73104 
       0.989692         7.34042         5.53648 
        1.00528         7.04151         5.35084 
        1.02113         6.78952         5.17095 
        1.03692         6.68097         5.00015 
        1.05264         6.46911           4.838 
        1.06832         6.33247         4.68343 
        1.08405         6.06774         4.53532 
        1.09979          5.9506         4.39364 
        1.11537         5.83221         4.25954 
        1.13105         5.68243         4.13034 
        1.14679         5.54881          4.0061 
        1.16256         5.38959         3.88681 
        1.17828          5.2926         3.77287 
        1.19395         5.14808         3.66397 
         1.2097          4.9681         3.55889 
        1.22537         4.86392         3.45851 
          1.241         4.77986         3.36238 
        1.25666         4.74603         3.26973 
        1.27241         4.56022          3.1802 
        1.28819         4.45977         3.09393 
        1.30392         4.39255         3.01117 
        1.31957         4.30255         2.93187 
        1.33529         4.19679         2.85517 
        1.35108         4.10441         2.78097 
        1.36674         4.03563         2.70998 
         1.3824         3.89862         2.64158 
        1.39811          3.8426         2.57536 
        1.41389         3.78556         2.51119 
        1.42964           3.711         2.44935 
        1.44531         3.64461         2.38994 
        1.46101         3.57465          2.3324 
        1.47667         3.47261         2.27696 
        1.49229         3.44563         2.22351 
        1.50793         3.35786         2.17173 
        1.52367         3.33202          2.1213 
        1.53953          3.2337         2.07216 
        1.55526         3.17339           2.025 
        1.57092         3.13316         1.97952 
        1.58662         3.07256         1.93536 
        1.60235         3.01665         1.89248 
        1.61809         2.96561          1.8509 
        1.63369         2.92847         1.81096 
        1.64941         2.86688         1.77193 
        1.66519         2.82848         1.73393 
        1.68085         2.75869         1.69733 
        1.69652         2.71798          1.6618 
        1.71228         2.68749          1.6271 
        1.72806         2.62674         1.59338 
        1.74368         2.59261         1.56096 
        1.75933         2.54494          1.5294 
        1.77505         2.51266         1.49858 
        1.79081         2.47057         1.46857 
         1.8065         2.43072         1.43952 
        1.82218         2.40608          1.4113 
        1.83797         2.37837         1.38365 
        1.85367         2.34446          1.3569 
        1.86928         2.30962         1.33104 
        1.88497         2.25787         1.30572 
        1.90073         2.22335         1.28098 
        1.91647         2.20172          1.2569 
        1.93218         2.17807         1.23351 
        1.94787         2.13775         1.21076 
        1.96363         2.10534          1.1885 
        1.97935         2.07298         1.16686 
        1.99499         2.03495         1.14588 
        2.01064          2.0169          1.1254 
         2.0264         2.00766          1.1053 
        2.04216         1.97051          1.0857 
        2.05781         1.94025         1.06672 
        2.07353         1.92121         1.04812 
        2.08928         1.89092         1.02994 
        2.10499         1.86688         1.01224 
        2.12065          1.8555        0.995021 
        2.13633         1.82192        0.978191 
        2.15211           1.794        0.961648 
        2.16785         1.77296        0.945539 
        2.18349         1.75666        0.929907 
        2.19916         1.72397          0.9146 
        2.21489         1.70352        0.899593 
        2.23063         1.68369        0.884917 
         2.2463         1.67315        0.870639 
        2.26194         1.63861        0.856717 
        2.27765         1.62298        0.843033 
        2.29341         1.61109        0.829617 
        2.30914         1.59612        0.816524 
        2.32486          1.5755        0.803726 
        2.34061          1.5525        0.791185 
        2.35635         1.52926        0.778926 
        2.37203         1.51992        0.766974 
        2.38768         1.50488        0.755301 
        2.40339         1.48949        0.743833 
        2.41914         1.47235        0.732579 
        2.43483         1.45288        0.721601 
         2.4505         1.43407         0.71087 
        2.46622          1.4201        0.700324 
        2.48195         1.41298        0.689994 
        2.49759         1.39385        0.679931 
        2.51328          1.3728        0.670045 
        2.52906         1.36124        0.660296 
        2.54479         1.34932        0.650781 
        2.56049         1.33261        0.641474 
        2.57618         1.32213         0.63236 
        2.59189         1.30878        0.623411 
        2.60758         1.29225        0.614653 
        2.62325         1.28143        0.606076 
        2.63898         1.27089        0.597635 
        2.65468         1.25766        0.589375 
        2.67044          1.2431        0.581238 
        2.68618         1.22797        0.573275 
        2.70184         1.21538        0.565496 
        2.71755         1.20531        0.557844 
        2.73329         1.19562        0.550324 
        2.74897         1.18383        0.542969 
        2.76462         1.17114        0.535766 
        2.78034         1.16447        0.528667 
        2.79607         1.15042         0.52169 
        2.81179         1.13754        0.514849 
        2.82749         1.13216        0.508141 
        2.84321         1.12215        0.501546 
        2.85893         1.10838        0.495071 
        2.87462         1.10177        0.488724 
        2.89033         1.08618        0.482484 
        2.90605         1.07999        0.476349 
        2.92176         1.06893        0.470325 
        2.93747          1.0615         0.46441 
        2.95318         1.05212        0.458597 
        2.96891         1.04266        0.452882 
        2.98456         1.03795        0.447292 
        3.00023          1.0252        0.441789 
        3.01596         1.01835        0.436362 
        3.03164         1.00998        0.431044 
        3.04738          0.9945          0.4258 
         3.0631        0.991308        0.420646 
        3.07883        0.983049        0.415579 
        3.09456        0.973714        0.410597 
        3.11026        0.966291        0.405705 
        3.12596          0.9577        0.400895 
        3.14163        0.950433        0.396175 
        3.15734        0.947146        0.391521 
        3.17308        0.934354        0.386932 
        3.18879        0.927216         0.38243 
        3.20447        0.920299        0.378007 
         3.2202        0.914196        0.373641 
         3.2359        0.908145        0.369353 
        3.25157        0.899144        0.365143 
        3.26729        0.896497        0.360987 
        3.28304        0.884385        0.356889 
        3.29877         0.87725        0.352861 
        3.31446        0.873079        0.348904 
        3.33014        0.867952        0.345012 
        3.34585        0.860718        0.341175 
        3.36158        0.852181        0.337391 
        3.37727        0.849396        0.333677 
        3.39294        0.843201        0.330023 
        3.40867        0.837163        0.326412 
        3.42439         0.82819        0.322857 
        3.44008        0.825704        0.319363 
        3.45578        0.820735        0.315918 
        3.47153        0.812543        0.312518 
        3.48724         0.80975        0.309174 
        3.50292        0.805644        0.305888 
        3.51859        0.797273        0.302652 
        3.53431        0.793724        0.299453 
        3.55007        0.790261        0.296293 
        3.56577        0.781709        0.293192 
        3.58146        0.776574        0.290137 
        3.59719        0.774573        0.287119 
        3.61292        0.768277        0.284146 
        3.62859        0.759583        0.281227 
        3.64429        0.759359        0.278344 
        3.66003        0.752137        0.275492 
        3.67578        0.746829        0.272683 
        3.69146        0.743457        0.269924 
        3.70712         0.73748        0.267208 
        3.72284        0.733889         0.26452 
        3.73853         0.72821        0.261875 
        3.75422        0.721987        0.259265 
        3.76993        0.722147        0.256688 
        3.78564        0.716201        0.254149 
        3.80137        0.710608         0.25164 
        3.81707         0.70932        0.249171 
        3.83279        0.701722        0.246733 
        3.84853        0.696434        0.244324 
        3.86424        0.693492        0.241953 
        3.87992        0.689811        0.239617 
        3.89561         0.68596        0.237312 
        3.91134        0.681598        0.235034 
        3.92704         0.67573        0.232788 
        3.94273        0.673669        0.230574 
        3.95845        0.669683        0.228385 
        3.97418        0.663912        0.226225 
        3.98988         0.66031        0.224096 
        4.00554        0.655291        0.222001 
        4.02125        0.650432        0.219926 
        4.03698        0.644432        0.217875 
        4.05268        0.639617        0.215856 
        4.06839        0.635223        0.213861 
         4.0841        0.629857        0.211892 
        4.09983        0.625608        0.209945 
        4.11555        0.619712        0.208024 
        4.13124        0.615123        0.206133 
        4.14693        0.610693        0.204264 
        4.16266        0.606199        0.202414 
        4.17839        0.601982        0.200588 
        4.19408        0.598309         0.19879 
        4.20977        0.594993        0.197013 
        4.22551        0.590018        0.195253 
        4.24123         0.58577        0.193518 
        4.25691        0.582318        0.191808 
        4.27259        0.578881        0.190119 
        4.28831        0.575276        0.188447 
        4.30404        0.570232        0.186794 
        4.31974        0.567198        0.185164 
        4.33543        0.564051        0.183555 
        4.35116        0.561988        0.181962 
        4.36688        0.557487        0.180388 
        4.38255        0.554891        0.178839 
        4.39825        0.551216        0.177306 
        4.41398        0.547934        0.175787 
         4.4297         0.54548        0.174288 
        4.44541        0.542547        0.172807 
        4.46111        0.540774        0.171344 
        4.47683        0.537796        0.169898 
        4.49251        0.534293        0.168472 
        4.50819        0.530747        0.167062 
         4.5239        0.530636        0.165667 
        4.53962        0.526916        0.164286 
        4.55535        0.526139        0.162921 
        4.57106        0.522509        0.161573 
        4.58678        0.520381         0.16024 
         4.6025        0.517551        0.158923 
        4.61821         0.51569         0.15762 
        4.63391        0.513735        0.156334 
         4.6496        0.510816        0.155063 
        4.66532         0.50942        0.153805 
        4.68103        0.508033        0.152561 
        4.69673        0.506455        0.151332 
        4.71241        0.504568        0.150118 
        4.72811        0.502929        0.148916 
        4.74384        0.501606        0.147725 
        4.75955        0.500226         0.14655 
        4.77525         0.49775        0.145388 
        4.79096        0.497322        0.144237 
        4.80669        0.495152        0.143099 
         4.8224        0.493956        0.141974 
        4.83809        0.492565        0.140863 
        4.85379           0.492        0.139763 
         4.8695        0.490442        0.138674 
        4.88521        0.488667        0.137597 
        4.90093        0.488973        0.136532 
        4.91663        0.487304        0.135479 
        4.93234        0.485105        0.134436 
        4.94807        0.485677        0.133404 
        4.96377        0.484571        0.132385 
        4.97943        0.484347        0.131378 
        4.99514         0.48275         0.13038 
        5.01086        0.482645        0.129391 
        5.02654        0.481391        0.128415 
        5.04227        0.480342        0.127447 
          5.058         0.48029        0.126488 
        5.07371        0.478828        0.125541 
        5.08942        0.479824        0.124604 
        5.10513        0.477944        0.123676 
        5.12084         0.47801        0.122758 
        5.13656        0.478265        0.121849 
        5.15225        0.477709        0.120951 
        5.16796        0.478192         0.12006 
        5.18369        0.477933        0.119178 
         5.1994        0.478468        0.118307 
        5.21509        0.477666        0.117445 
        5.23079        0.477195        0.116591 
        5.24649        0.477707        0.115746 
        5.26217        0.476557         0.11491 
        5.27788        0.477089        0.114082 
        5.29359        0.477414        0.113261 
        5.30933        0.477432        0.112448 
        5.32504        0.476984        0.111643 
        5.34073        0.477161        0.110848 
        5.35646        0.477811        0.110059 
        5.37218        0.478498        0.109278 
        5.38789        0.478572        0.108506 
        5.40357        0.479124        0.107742 
        5.41929        0.478088        0.106984 
        5.43502        0.479106        0.106233 
         5.4507         0.47914        0.105491 
        5.46639        0.480837        0.104756 
        5.48212        0.479887        0.104027 
        5.49786        0.480062        0.103304 
        5.51353        0.481914        0.102591 
        5.52921        0.481159        0.101885 
        5.54495        0.481631        0.101183 
        5.56066        0.483531        0.100488 
        5.57637        0.483111       0.0998007 
        5.59207        0.483941       0.0991202 
        5.60778        0.484394       0.0984458 
        5.62346        0.483985       0.0977787 
        5.63916        0.484919       0.0971172 
        5.65487        0.486273       0.0964616 
         5.6706        0.486671       0.0958114 
        5.68633        0.488782        0.095167 
        5.70203        0.489277       0.0945299 
        5.71773        0.489478       0.0938989 
        5.73344        0.489774       0.0932733 
        5.74916        0.489897        0.092653 
        5.76486        0.492107       0.0920392 
        5.78054        0.492718        0.091432 
        5.79626        0.492035       0.0908286 
          5.812        0.494016       0.0902302 
         5.8277        0.494404       0.0896389 
        5.84339        0.495279        0.089053 
        5.85911        0.495708       0.0884713 
        5.87484        0.496183        0.087895 
        5.89053        0.498039        0.087325 
        5.90623        0.498363       0.0867599 
        5.92195        0.499516       0.0861989 
        5.93767        0.500254       0.0856432 
        5.95336          0.4997       0.0850934 
        5.96905         0.50163       0.0845486 
        5.98476        0.502586        0.084008 
        6.00048        0.504332       0.0834719 
        6.01617        0.503722       0.0829413 
        6.03185        0.504385       0.0824161 
        6.04756        0.506926       0.0818941 
        6.06331        0.507613       0.0813757 
        6.07903         0.50927       0.0808629 
        6.09473        0.509093        0.080355 
        6.11044        0.511121       0.0798511 
        6.12616        0.510715       0.0793516 
        6.14186        0.512076        0.078857 
        6.15755        0.513431       0.0783667 
        6.17326        0.513298       0.0778802 
        6.18898        0.515061       0.0773977 
        6.20467        0.517426       0.0769202 
        6.22036         0.51538       0.0764468 
         6.2361        0.516445       0.0759761 
         6.2518        0.516538       0.0755103 
        6.26748        0.518125       0.0750494 
        6.28319        0.520617       0.0745911 
        6.29893        0.520949       0.0741364 
        6.31463        0.521752       0.0736862 
        6.33033        0.521235         0.07324 
        6.34604        0.522157       0.0727972 
        6.36177        0.523567       0.0723577 
        6.37747        0.525752       0.0719227 
