# k  (h/Mpc)    Pcb(k)  (Mpc/h)^3    Pcb_linear(k) (Mpc/h)^3   ShotnoiseSubtracted = true
      0.0200456         5655.42         5762.35 
      0.0350414         4139.04         4221.19 
      0.0492313         3089.74         3098.52 
      0.0637834         2695.13         2660.91 
      0.0800726         2167.29         2145.22 
       0.096163         1521.79         1544.44 
       0.111083         1218.84         1246.47 
       0.126058            1141         1134.69 
       0.142273         986.099         966.627 
       0.158546         798.951         758.426 
        0.17375         654.513         646.537 
       0.188953         628.289          596.34 
       0.204907         588.576         529.999 
       0.220756         493.092         446.969 
        0.23588         433.797         391.782 
         0.2514         386.606         360.669 
       0.267535         367.245          328.03 
       0.283568         332.596          289.14 
       0.299022         306.565         258.957 
       0.314451         281.588         238.832 
       0.330372         262.184         220.215 
       0.346141         236.891         200.162 
       0.361624         225.274         182.615 
       0.377134         212.569         169.096 
       0.392932         194.217          157.21 
       0.408854          187.03         145.294 
       0.424564         179.555         134.339 
       0.440253         168.608         125.128 
       0.455999         159.275         117.067 
       0.471626         147.475         109.493 
        0.48727         143.628         102.387 
       0.502856         137.294         96.0568 
       0.518488         133.285         90.4041 
       0.534347         127.757         85.0878 
       0.550082         118.444         80.1584 
       0.565732          113.92         75.6584 
       0.581496         109.721          71.536 
       0.597222         106.347         67.7322 
       0.612804         101.106         64.2176 
       0.628434         99.0828         60.9363 
       0.644267         95.9904         57.8662 
       0.660051          93.299         55.0286 
       0.675724         89.9103         52.4003 
       0.691403         87.3171         49.9432 
       0.707174         84.5399         47.6316 
       0.722871         82.3426         45.4772 
        0.73838         80.6436         43.4809 
       0.754018         76.8293         41.5909 
       0.769845         75.3736         39.7943 
        0.78569         73.4337         38.1038 
       0.801365           71.12         36.5299 
       0.817031         69.1993         35.0478 
       0.832809         68.3875         33.6403 
       0.848511         65.1454          32.318 
       0.864097         63.6967         31.0774 
       0.879701         63.0214         29.9021 
       0.895507         61.9467         28.7749 
       0.911279           60.61         27.7094 
        0.92691          58.968         26.7077 
       0.942635         57.0885          25.751 
       0.958396         56.8516           24.84 
       0.974128         55.3792         23.9757 
       0.989692           54.42         23.1617 
        1.00528         53.3517         22.3851 
        1.02113         51.8112         21.6326 
        1.03692          50.862          20.918 
        1.05264         50.2428         20.2397 
        1.06832         49.1536          19.593 
        1.08405          48.486         18.9734 
        1.09979         47.6195         18.3807 
        1.11537         46.0793         17.8197 
        1.13105         46.2226         17.2792 
        1.14679         45.4708         16.7594 
        1.16256         44.3195         16.2604 
        1.17828         43.5251         15.7837 
        1.19395         42.8492         15.3281 
         1.2097         42.4004         14.8885 
        1.22537         41.8429         14.4686 
          1.241          40.982         14.0664 
        1.25666         40.0111         13.6788 
        1.27241         39.7851         13.3043 
        1.28819         38.6945         12.9434 
        1.30392          38.336         12.5972 
        1.31957         38.0932         12.2654 
        1.33529         37.7616         11.9446 
        1.35108         36.9832         11.6341 
        1.36674         36.3068         11.3372 
         1.3824         35.5887          11.051 
        1.39811         35.4671          10.774 
        1.41389         34.9613         10.5055 
        1.42964         34.3989         10.2468 
        1.44531         34.1701         9.99825 
        1.46101         33.2846         9.75754 
        1.47667         33.1247         9.52562 
        1.49229         32.8508         9.30198 
        1.50793         32.2909          9.0854 
        1.52367         32.0486         8.87443 
        1.53953         31.6521         8.66885 
        1.55526         31.0716         8.47154 
        1.57092         30.7681         8.28129 
        1.58662          30.345         8.09653 
        1.60235          30.034         7.91715 
        1.61809          29.681          7.7432 
        1.63369         29.3127          7.5761 
        1.64941         28.7991         7.41283 
        1.66519         28.6937         7.25386 
        1.68085         28.2514         7.10076 
        1.69652         27.9588          6.9521 
        1.71228         27.7073         6.80693 
        1.72806          27.353         6.66585 
        1.74368         26.9993         6.53026 
        1.75933         26.6949         6.39823 
        1.77505         26.4714         6.26929 
        1.79081         26.0881         6.14373 
         1.8065         25.9486         6.02221 
        1.82218         25.5889         5.90413 
        1.83797         25.2489         5.78846 
        1.85367         24.9938         5.67658 
        1.86928         24.7524         5.56838 
        1.88497         24.3923         5.46245 
        1.90073           24.43         5.35893 
        1.91647          23.997         5.25823 
        1.93218         23.8149         5.16037 
        1.94787         23.6275         5.06519 
        1.96363         23.4307         4.97207 
        1.97935         23.1652         4.88152 
        1.99499         22.8778         4.79377 
        2.01064         22.6516         4.70808 
         2.0264         22.3542         4.62399 
        2.04216         22.1774         4.54202 
        2.05781         21.9214         4.46259 
        2.07353         21.7007          4.3848 
        2.08928         21.6114         4.30873 
        2.10499         21.2918         4.23469 
        2.12065         20.9943         4.16265 
        2.13633         20.9529         4.09224 
        2.15211         20.6223         4.02303 
        2.16785         20.5945         3.95564 
        2.18349         20.3792         3.89024 
        2.19916         20.1057         3.82621 
        2.21489         19.9528         3.76342 
        2.23063          19.739         3.70203 
         2.2463          19.554          3.6423 
        2.26194         19.4367         3.58406 
        2.27765         19.2175         3.52681 
        2.29341         19.0058         3.47068 
        2.30914         18.8184         3.41591 
        2.32486           18.75         3.36237 
        2.34061         18.5238          3.3099 
        2.35635         18.2864         3.25862 
        2.37203         18.2345         3.20862 
        2.38768         18.0481         3.15978 
        2.40339         17.7834         3.11181 
        2.41914          17.646         3.06473 
        2.43483         17.5342          3.0188 
         2.4505         17.3616         2.97391 
        2.46622         17.2192         2.92979 
        2.48195         17.0395         2.88657 
        2.49759         16.9549         2.84448 
        2.51328         16.7384         2.80312 
        2.52906         16.6139         2.76233 
        2.54479         16.5192         2.72253 
        2.56049          16.355         2.68359 
        2.57618         16.2559         2.64546 
        2.59189         16.0524         2.60803 
        2.60758         15.9663         2.57139 
        2.62325         15.8555          2.5355 
        2.63898         15.6143         2.50019 
        2.65468         15.5848         2.46564 
        2.67044         15.4071         2.43159 
        2.68618         15.2734         2.39828 
        2.70184         15.1387         2.36574 
        2.71755         14.9931         2.33373 
        2.73329          14.884         2.30227 
        2.74897         14.7352          2.2715 
        2.76462         14.7172         2.24137 
        2.78034         14.4906         2.21166 
        2.79607         14.3635         2.18248 
        2.81179         14.2465         2.15386 
        2.82749         14.1663         2.12579 
        2.84321         13.9746          2.0982 
        2.85893         13.9214         2.07112 
        2.87462         13.8228         2.04457 
        2.89033         13.6408         2.01846 
        2.90605         13.5575         1.99279 
        2.92176          13.472         1.96759 
        2.93747         13.3226         1.94285 
        2.95318         13.2459         1.91853 
        2.96891         13.1043         1.89462 
        2.98456         13.0141         1.87123 
        3.00023         12.9364         1.84821 
        3.01596         12.8125         1.82551 
        3.03164         12.7253         1.80326 
        3.04738          12.597         1.78132 
         3.0631         12.4677         1.75976 
        3.07883         12.3867         1.73856 
        3.09456         12.3234         1.71772 
        3.11026         12.1272         1.69726 
        3.12596         12.1406         1.67713 
        3.14163         12.0135         1.65739 
        3.15734         11.8919         1.63792 
        3.17308         11.8454         1.61872 
        3.18879         11.7364         1.59989 
        3.20447         11.6102         1.58138 
         3.2202         11.5256         1.56312 
         3.2359         11.4679         1.54518 
        3.25157         11.3693         1.52757 
        3.26729         11.2637         1.51018 
        3.28304         11.1699         1.49304 
        3.29877         11.0829         1.47618 
        3.31446         11.0383         1.45963 
        3.33014         10.8928         1.44335 
        3.34585         10.8565          1.4273 
        3.36158         10.7432         1.41147 
        3.37727         10.6916         1.39593 
        3.39294         10.5957         1.38064 
        3.40867          10.449         1.36554 
        3.42439         10.4234         1.35066 
        3.44008         10.3302         1.33605 
        3.45578         10.2765         1.32164 
        3.47153         10.1964         1.30741 
        3.48724          10.125         1.29342 
        3.50292         10.0419         1.27968 
        3.51859         9.94767         1.26614 
        3.53431         9.87365         1.25275 
        3.55007         9.81863         1.23954 
        3.56577         9.75719         1.22656 
        3.58146         9.66721         1.21378 
        3.59719         9.57204         1.20116 
        3.61292         9.52333         1.18872 
        3.62859         9.41913         1.17651 
        3.64429         9.36893         1.16444 
        3.66003         9.29029         1.15252 
        3.67578         9.21227         1.14076 
        3.69146         9.15683         1.12922 
        3.70712          9.1178         1.11786 
        3.72284         8.99816         1.10661 
        3.73853         8.96263         1.09555 
        3.75422          8.8764         1.08463 
        3.76993         8.81988         1.07385 
        3.78564         8.76388         1.06323 
        3.80137         8.69231         1.05273 
        3.81707         8.60442          1.0424 
        3.83279         8.59012          1.0322 
        3.84853         8.50054         1.02212 
        3.86424         8.41032          1.0122 
        3.87992         8.36234         1.00243 
        3.89561         8.31069        0.992791 
        3.91134         8.24102        0.983258 
        3.92704         8.18255        0.973863 
        3.94273         8.12459        0.964601 
        3.95845         8.06978        0.955445 
        3.97418         8.02511        0.946407 
        3.98988         7.94701          0.9375 
        4.00554         7.88362        0.928734 
        4.02125         7.81305        0.920056 
        4.03698         7.78306        0.911477 
        4.05268         7.73749        0.903028 
        4.06839         7.66285        0.894682 
         4.0841         7.62423        0.886445 
        4.09983          7.5685        0.878302 
        4.11555         7.51922        0.870265 
        4.13124          7.4422        0.862353 
        4.14693         7.38311        0.854533 
        4.16266         7.31913        0.846794 
        4.17839         7.26706        0.839157 
        4.19408         7.21988        0.831632 
        4.20977         7.15872        0.824198 
        4.22551         7.12135        0.816838 
        4.24123          7.0591        0.809576 
        4.25691         7.02221        0.802424 
        4.27259         6.95666        0.795357 
        4.28831         6.91279        0.788363 
        4.30404         6.85591        0.781446 
        4.31974          6.8098        0.774629 
        4.33543         6.75659        0.767899 
        4.35116         6.72734        0.761233 
        4.36688         6.65729         0.75465 
        4.38255         6.60054         0.74817 
        4.39825         6.56629        0.741753 
        4.41398         6.52258          0.7354 
         4.4297         6.51125        0.729129 
        4.44541         6.42678        0.722934 
        4.46111         6.39892        0.716816 
        4.47683         6.32778        0.710765 
        4.49251         6.29754        0.704797 
        4.50819         6.26108        0.698901 
         4.5239         6.19899        0.693064 
        4.53962          6.1812        0.687287 
        4.55535         6.12323        0.681575 
        4.57106         6.07278        0.675937 
        4.58678         6.04265        0.670361 
         4.6025         5.98905        0.664849 
        4.61821         5.95512          0.6594 
        4.63391         5.91079         0.65402 
         4.6496         5.86543        0.648703 
        4.66532         5.83725        0.643438 
        4.68103         5.78157        0.638234 
        4.69673         5.74597        0.633094 
        4.71241         5.70893        0.628016 
        4.72811         5.67484        0.622986 
        4.74384         5.63788        0.618005 
        4.75955         5.59038        0.613088 
        4.77525         5.55344        0.608227 
        4.79096         5.51535        0.603414 
        4.80669          5.4704        0.598651 
         4.8224         5.44394        0.593946 
        4.83809         5.40209        0.589296 
        4.85379         5.35864        0.584695 
         4.8695         5.32362        0.580139 
        4.88521         5.29647        0.575635 
        4.90093         5.25294        0.571179 
        4.91663          5.2105        0.566774 
        4.93234          5.1948        0.562411 
        4.94807          5.1531        0.558093 
        4.96377         5.11586        0.553828 
        4.97943         5.07063        0.549618 
        4.99514         5.04074         0.54544 
        5.01086         5.00248        0.541304 
        5.02654         4.98922        0.537222 
        5.04227         4.94638         0.53317 
          5.058         4.91537        0.529159 
        5.07371         4.88287        0.525198 
        5.08942         4.85617        0.521277 
        5.10513         4.82453        0.517396 
        5.12084          4.7853        0.513553 
        5.13656         4.76348        0.509751 
        5.15225         4.73381        0.505994 
        5.16796          4.6945         0.50227 
        5.18369         4.65544         0.49858 
         5.1994         4.63999        0.494934 
        5.21509         4.61038        0.491329 
        5.23079         4.57078        0.487755 
        5.24649         4.54392        0.484221 
        5.26217         4.52286        0.480724 
        5.27788         4.48515        0.477258 
        5.29359         4.44499        0.473825 
        5.30933         4.42155        0.470422 
        5.32504         4.40039        0.467058 
        5.34073         4.36298        0.463731 
        5.35646         4.34058        0.460431 
        5.37218         4.31289        0.457162 
        5.38789          4.2881        0.453931 
        5.40357         4.27099        0.450735 
        5.41929         4.22537        0.447563 
        5.43502         4.20572        0.444422 
         5.4507         4.17762        0.441319 
        5.46639         4.15323        0.438245 
        5.48212          4.1321        0.435194 
        5.49786         4.10875        0.432169 
        5.51353         4.07204        0.429188 
        5.52921         4.04214        0.426232 
        5.54495         4.01984        0.423296 
        5.56066         3.99991        0.420391 
        5.57637         3.97283        0.417514 
        5.59207         3.95231        0.414667 
        5.60778         3.92346        0.411846 
        5.62346         3.89242        0.409055 
        5.63916         3.87555        0.406288 
        5.65487         3.85319        0.403545 
         5.6706         3.83324        0.400825 
        5.68633         3.80128        0.398129 
        5.70203         3.78233        0.395464 
        5.71773         3.76489        0.392824 
        5.73344         3.74205        0.390207 
        5.74916         3.71591        0.387612 
        5.76486         3.69075        0.385044 
        5.78054         3.66825        0.382503 
        5.79626          3.6495        0.379979 
          5.812         3.63066        0.377476 
         5.8277         3.61205        0.375002 
        5.84339         3.58662        0.372551 
        5.85911         3.56766        0.370118 
        5.87484          3.5507        0.367707 
        5.89053          3.5109        0.365322 
        5.90623         3.50017        0.362958 
        5.92195         3.48384        0.360611 
        5.93767         3.46161        0.358286 
        5.95336         3.44205        0.355986 
        5.96905         3.42038        0.353707 
        5.98476         3.40265        0.351445 
        6.00048         3.37161        0.349203 
        6.01617          3.3611        0.346983 
        6.03185         3.33777        0.344786 
        6.04756         3.31612        0.342602 
        6.06331         3.29833        0.340433 
        6.07903         3.27755        0.338288 
        6.09473         3.25979        0.336163 
        6.11044         3.24013        0.334055 
        6.12616         3.22611        0.331966 
        6.14186          3.1997        0.329896 
        6.15755         3.18444        0.327845 
        6.17326         3.16938         0.32581 
        6.18898         3.14708        0.323791 
        6.20467         3.13214        0.321794 
        6.22036         3.11594        0.319813 
         6.2361         3.09829        0.317844 
         6.2518         3.07402        0.315895 
        6.26748         3.06313        0.313967 
        6.28319         3.04118         0.31205 
        6.29893         3.02782        0.310148 
        6.31463         3.00838        0.308265 
        6.33033         2.99718        0.306398 
        6.34604          2.9783        0.304545 
        6.36177         2.95844        0.302707 
        6.37747         2.94261        0.300887 
