# k  (h/Mpc)    Pcb(k)  (Mpc/h)^3    Pcb_linear(k) (Mpc/h)^3   ShotnoiseSubtracted = true
      0.0200456         2687.43         2720.14 
      0.0350414         1727.73            1739 
      0.0492313         1159.15         1153.16 
      0.0637834         936.919         920.689 
      0.0800726         729.032         719.958 
       0.096163         495.825         497.884 
       0.111083         374.767         376.296 
       0.126058         333.392         329.167 
       0.142273         286.955         281.354 
       0.158546         224.348         216.947 
        0.17375         177.151         175.011 
       0.188953         161.964         156.287 
       0.204907         149.758         139.996 
       0.220756          123.87         117.623 
        0.23588         105.163         99.2058 
         0.2514         92.3628         88.4736 
       0.267535         85.2613         80.5281 
       0.283568         75.9208         71.0458 
       0.299022         67.8603         62.1402 
       0.314451         59.8456         55.8384 
       0.330372         55.4383          51.157 
       0.346141         50.0848         46.4985 
       0.361624         45.9936         41.8647 
       0.377134         42.6663         38.0255 
       0.392932         37.6482          34.991 
       0.408854         36.0763          32.233 
       0.424564         33.5845         29.5695 
       0.440253         30.7723         27.1728 
       0.455999         28.6996         25.1584 
       0.471626         26.8195         23.4007 
        0.48727         25.2452          21.742 
       0.502856         23.5356         20.2123 
       0.518488         22.3129         18.8501 
       0.534347         21.3226          17.623 
       0.550082         19.3315         16.5026 
       0.565732         17.8853          15.466 
       0.581496         17.4279         14.5124 
       0.597222         16.7144         13.6505 
       0.612804         15.5065          12.866 
       0.628434         14.8771         12.1359 
       0.644267          14.332         11.4502 
       0.660051         13.4814         10.8218 
       0.675724         12.7204          10.246 
       0.691403         12.2749         9.71105 
       0.707174            11.7         9.21074 
       0.722871         11.2095          8.7471 
        0.73838         10.6793         8.31982 
       0.754018         10.2939         7.91744 
       0.769845         9.83637         7.53692 
        0.78569         9.47005         7.18073 
       0.801365         9.05576         6.85075 
       0.817031         8.73129         6.54152 
       0.832809         8.50018         6.24925 
       0.848511         7.95375         5.97602 
       0.864097         7.73923         5.72087 
       0.879701         7.47814         5.48027 
       0.895507         7.10565         5.25059 
       0.911279         6.96855         5.03444 
        0.92691         6.72594         4.83216 
       0.942635         6.40771          4.6398 
       0.958396         6.21475         4.45742 
       0.974128         6.02495         4.28511 
       0.989692         5.91014         4.12352 
        1.00528         5.69294         3.96997 
        1.02113         5.44609         3.82177 
        1.03692          5.2927         3.68163 
        1.05264         5.16551         3.54909 
        1.06832         5.00397         3.42322 
        1.08405         4.81354         3.30308 
        1.09979         4.68963         3.18858 
        1.11537         4.59045         3.08059 
        1.13105         4.44205         2.97692 
        1.14679         4.34105         2.87758 
        1.16256          4.1769         2.78254 
        1.17828          4.1136         2.69206 
        1.19395         3.94874         2.60588 
         1.2097         3.85652           2.523 
        1.22537         3.73955         2.44409 
          1.241         3.66398         2.36876 
        1.25666          3.6027          2.2964 
        1.27241         3.47447         2.22669 
        1.28819         3.38629         2.15973 
        1.30392         3.32855          2.0957 
        1.31957         3.24426         2.03452 
        1.33529         3.16298         1.97554 
        1.35108         3.08092         1.91865 
        1.36674         3.03761         1.86438 
         1.3824         2.91624         1.81224 
        1.39811         2.86616          1.7619 
        1.41389         2.81397         1.71327 
        1.42964         2.75064         1.66653 
        1.44531         2.68704         1.62176 
        1.46101         2.62431         1.57851 
        1.47667          2.5637         1.53696 
        1.49229         2.53158           1.497 
        1.50793         2.45534          1.4584 
        1.52367         2.41704         1.42091 
        1.53953         2.34959         1.38446 
        1.55526         2.31139         1.34958 
        1.57092         2.26389         1.31603 
        1.58662         2.21021         1.28352 
        1.60235         2.17489         1.25205 
        1.61809         2.13038          1.2216 
        1.63369         2.08896         1.19242 
        1.64941         2.04467         1.16398 
        1.66519         2.01615         1.13636 
        1.68085         1.96629         1.10982 
        1.69652         1.92652         1.08411 
        1.71228          1.8974         1.05907 
        1.72806         1.85725         1.03478 
        1.74368         1.81968          1.0115 
        1.75933          1.7916        0.988871 
        1.77505         1.76673        0.966827 
        1.79081         1.72575        0.945409 
         1.8065         1.69832        0.924725 
        1.82218         1.67535        0.904672 
        1.83797           1.653         0.88507 
        1.85367         1.61145        0.866152 
        1.86928         1.58925        0.847894 
        1.88497         1.56409        0.830058 
        1.90073         1.53012        0.812663 
        1.91647         1.50323        0.795778 
        1.93218         1.48782        0.779403 
        1.94787         1.46811        0.763509 
        1.96363         1.43243         0.74799 
        1.97935          1.4107         0.73293 
        1.99499         1.38265        0.718366 
        2.01064         1.36904        0.704172 
         2.0264          1.3453        0.690269 
        2.04216         1.32755        0.676743 
        2.05781         1.30043        0.663662 
        2.07353         1.29038        0.650877 
        2.08928         1.26977        0.638397 
        2.10499         1.24417        0.626274 
        2.12065          1.2357        0.614499 
        2.13633         1.21215        0.603013 
        2.15211         1.19422        0.591744 
        2.16785         1.17644        0.580791 
        2.18349         1.15864        0.570182 
        2.19916         1.13916        0.559812 
        2.21489         1.12637        0.549663 
        2.23063         1.10402        0.539756 
         2.2463         1.09221        0.530135 
        2.26194          1.0749         0.52077 
        2.27765         1.06293        0.511581 
        2.29341         1.04769        0.502587 
        2.30914         1.02896        0.493826 
        2.32486         1.02407        0.485277 
        2.34061         1.00458        0.476913 
        2.35635        0.992657        0.468752 
        2.37203        0.981396        0.460808 
        2.38768        0.968357        0.453063 
        2.40339        0.954663        0.445465 
        2.41914        0.942064        0.438022 
        2.43483        0.931527        0.430774 
         2.4505        0.917532          0.4237 
        2.46622        0.908624        0.416759 
        2.48195        0.894249        0.409972 
        2.49759        0.884416         0.40337 
        2.51328         0.87108        0.396894 
        2.52906        0.862941        0.390519 
        2.54479        0.851359        0.384305 
        2.56049        0.841727        0.378238 
        2.57618        0.832694        0.372305 
        2.59189        0.822924        0.366489 
        2.60758        0.809918        0.360805 
        2.62325        0.800449        0.355247 
        2.63898        0.792666        0.349786 
        2.65468        0.782945         0.34445 
        2.67044        0.776748        0.339201 
        2.68618        0.763262        0.334072 
        2.70184        0.757496        0.329068 
        2.71755        0.746841        0.324154 
        2.73329        0.738217        0.319331 
        2.74897        0.730369        0.314621 
        2.76462        0.723922        0.310015 
        2.78034        0.714619        0.305481 
        2.79607        0.705058        0.301033 
        2.81179         0.70063        0.296677 
        2.82749        0.689588        0.292411 
        2.84321        0.685214        0.288223 
        2.85893        0.677377        0.284118 
        2.87462        0.669787        0.280098 
        2.89033        0.660011        0.276152 
        2.90605        0.654457        0.272278 
        2.92176        0.648294        0.268479 
        2.93747        0.641115        0.264754 
        2.95318        0.635213        0.261098 
        2.96891        0.629059        0.257508 
        2.98456        0.623657        0.254001 
        3.00023        0.615685        0.250554 
        3.01596        0.610777        0.247159 
        3.03164         0.60723        0.243836 
        3.04738        0.597304        0.240563 
         3.0631        0.592381        0.237352 
        3.07883        0.586773        0.234198 
        3.09456        0.582097        0.231101 
        3.11026        0.576901        0.228064 
        3.12596        0.569063        0.225081 
        3.14163        0.566101        0.222159 
        3.15734        0.558807         0.21928 
        3.17308        0.553721        0.216445 
        3.18879        0.549693        0.213668 
        3.20447         0.54543        0.210942 
         3.2202        0.539486        0.208256 
         3.2359        0.534227         0.20562 
        3.25157        0.530439        0.203036 
        3.26729        0.523682        0.200487 
        3.28304        0.521595        0.197977 
        3.29877        0.514626        0.195513 
        3.31446        0.510994        0.193096 
        3.33014        0.508974        0.190721 
        3.34585        0.503353        0.188382 
        3.36158        0.497515        0.186078 
        3.37727        0.495046        0.183819 
        3.39294        0.489763          0.1816 
        3.40867         0.48499        0.179409 
        3.42439        0.483084        0.177255 
        3.44008        0.478816         0.17514 
        3.45578        0.475495        0.173057 
        3.47153        0.471598        0.171004 
        3.48724        0.466804        0.168987 
        3.50292        0.463682        0.167006 
        3.51859        0.461138        0.165058 
        3.53431        0.456117        0.163135 
        3.55007        0.453737        0.161238 
        3.56577        0.449971        0.159377 
        3.58146        0.447995        0.157547 
        3.59719         0.44201        0.155741 
        3.61292         0.44095        0.153963 
        3.62859        0.436427        0.152219 
        3.64429        0.432982        0.150499 
        3.66003        0.430358          0.1488 
        3.67578        0.427266        0.147127 
        3.69146        0.424224        0.145486 
        3.70712        0.420639        0.143873 
        3.72284        0.418087        0.142278 
        3.73853        0.415476         0.14071 
        3.75422        0.412192        0.139164 
        3.76993        0.409571         0.13764 
        3.78564        0.406634         0.13614 
        3.80137        0.403277        0.134659 
        3.81707        0.401042        0.133202 
        3.83279        0.397897        0.131766 
        3.84853        0.395323        0.130349 
        3.86424        0.391788        0.128955 
        3.87992        0.390759        0.127583 
        3.89561        0.386807        0.126231 
        3.91134        0.384478        0.124895 
        3.92704        0.381187         0.12358 
        3.94273        0.378563        0.122285 
        3.95845        0.376623        0.121006 
        3.97418           0.373        0.119745 
        3.98988        0.370636        0.118503 
        4.00554        0.368427        0.117282 
        4.02125         0.36455        0.116075 
        4.03698        0.361917        0.114882 
        4.05268        0.358399        0.113709 
        4.06839        0.354765        0.112551 
         4.0841        0.352363         0.11141 
        4.09983        0.348724        0.110282 
        4.11555        0.347188         0.10917 
        4.13124        0.343346        0.108077 
        4.14693        0.341124        0.106997 
        4.16266        0.337507         0.10593 
        4.17839        0.335431        0.104877 
        4.19408        0.333434        0.103841 
        4.20977        0.329276        0.102819 
        4.22551        0.327555        0.101807 
        4.24123        0.325071         0.10081 
        4.25691         0.32304       0.0998293 
        4.27259        0.321262       0.0988609 
        4.28831        0.318481       0.0979032 
        4.30404         0.31557       0.0969571 
        4.31974        0.314215       0.0960255 
        4.33543        0.311307       0.0951065 
        4.35116        0.310299       0.0941971 
        4.36688        0.308365       0.0932999 
        4.38255        0.306086       0.0924175 
        4.39825        0.304683       0.0915446 
        4.41398        0.303162        0.090681 
         4.4297        0.300599       0.0898293 
        4.44541        0.298726       0.0889887 
        4.46111        0.298605       0.0881592 
        4.47683        0.296091       0.0873397 
        4.49251        0.295118       0.0865321 
        4.50819        0.294097       0.0857348 
         4.5239        0.292435       0.0849463 
        4.53962        0.291925       0.0841666 
        4.55535        0.289134       0.0833962 
        4.57106        0.289336       0.0826364 
        4.58678         0.28681       0.0818859 
         4.6025        0.286862       0.0811443 
        4.61821        0.284823        0.080412 
        4.63391        0.284442       0.0796896 
         4.6496        0.282522       0.0789762 
        4.66532        0.282051       0.0782703 
        4.68103        0.280839       0.0775733 
        4.69673        0.280125       0.0768853 
        4.71241        0.279768       0.0762063 
        4.72811        0.278979       0.0755342 
        4.74384        0.277683       0.0748693 
        4.75955        0.277733       0.0742134 
        4.77525        0.276843       0.0735655 
        4.79096        0.276736       0.0729245 
        4.80669        0.276875       0.0722908 
         4.8224        0.276002       0.0716652 
        4.83809        0.275093       0.0710475 
        4.85379         0.27514       0.0704367 
         4.8695        0.274889       0.0698325 
        4.88521        0.273466       0.0692356 
        4.90093        0.274393       0.0686455 
        4.91663        0.274203       0.0680627 
        4.93234        0.273558       0.0674859 
        4.94807        0.273686       0.0669154 
        4.96377        0.272918       0.0663525 
        4.97943        0.274098       0.0657972 
        4.99514        0.274202       0.0652467 
        5.01086        0.274044        0.064702 
        5.02654        0.274655       0.0641648 
        5.04227        0.274496       0.0636321 
          5.058        0.274373       0.0631051 
        5.07371        0.274072       0.0625851 
        5.08942        0.275642       0.0620707 
        5.10513        0.275324       0.0615621 
        5.12084        0.276215       0.0610588 
        5.13656        0.276853       0.0605612 
        5.15225        0.277025       0.0600698 
        5.16796        0.277961       0.0595831 
        5.18369        0.278641       0.0591013 
         5.1994        0.279106       0.0586256 
        5.21509        0.280285       0.0581556 
        5.23079        0.279944         0.05769 
        5.24649         0.28128       0.0572299 
        5.26217        0.281985        0.056775 
        5.27788        0.282728       0.0563244 
        5.29359        0.283494       0.0558785 
        5.30933        0.283928       0.0554368 
        5.32504        0.286088       0.0550005 
        5.34073         0.28705       0.0545694 
        5.35646        0.287166       0.0541419 
        5.37218        0.289369       0.0537189 
        5.38789        0.290185        0.053301 
        5.40357        0.291919        0.052888 
        5.41929        0.291967       0.0524784 
        5.43502        0.293229       0.0520731 
         5.4507        0.295245       0.0516729 
        5.46639        0.295881       0.0512769 
        5.48212        0.297754        0.050884 
        5.49786        0.299153       0.0504947 
        5.51353        0.300958       0.0501114 
        5.52921        0.302252       0.0497317 
        5.54495        0.303383       0.0493547 
        5.56066         0.30356       0.0489819 
        5.57637        0.306651       0.0486131 
        5.59207        0.308773       0.0482483 
        5.60778        0.309792        0.047887 
        5.62346        0.311461         0.04753 
        5.63916        0.313966       0.0471762 
        5.65487        0.314999       0.0468257 
         5.6706        0.316723       0.0464784 
        5.68633        0.319076       0.0461344 
        5.70203        0.320792       0.0457946 
        5.71773        0.322833       0.0454582 
        5.73344         0.32394        0.045125 
        5.74916        0.325062       0.0447948 
        5.76486        0.329087       0.0444682 
        5.78054        0.330307       0.0441455 
        5.79626        0.331252       0.0438249 
          5.812        0.333577       0.0435072 
         5.8277        0.335483       0.0431935 
        5.84339        0.337801       0.0428829 
        5.85911        0.340176       0.0425747 
        5.87484        0.340745       0.0422696 
        5.89053        0.343383        0.041968 
        5.90623        0.346246       0.0416692 
        5.92195        0.347635       0.0413727 
        5.93767         0.34937       0.0410793 
        5.95336        0.351359       0.0407892 
        5.96905        0.354893       0.0405019 
        5.98476        0.355977        0.040217 
        6.00048        0.357873       0.0399346 
        6.01617         0.36118       0.0396554 
        6.03185        0.363223       0.0393791 
        6.04756        0.365149       0.0391047 
        6.06331         0.36663       0.0388324 
        6.07903        0.370502       0.0385632 
        6.09473        0.370284       0.0382967 
        6.11044        0.373077       0.0380325 
        6.12616        0.375875       0.0377708 
        6.14186        0.375967       0.0375118 
        6.15755         0.37909       0.0372553 
        6.17326        0.382916       0.0370009 
        6.18898        0.383928       0.0367487 
        6.20467        0.386468       0.0364993 
        6.22036          0.3886       0.0362522 
         6.2361         0.39098       0.0360067 
         6.2518        0.393485       0.0357638 
        6.26748        0.394235       0.0355237 
        6.28319        0.396364       0.0352851 
        6.29893        0.400384       0.0350485 
        6.31463        0.400937       0.0348144 
        6.33033        0.402746       0.0345825 
        6.34604        0.404299       0.0343525 
        6.36177        0.408109       0.0341244 
        6.37747        0.410144       0.0338987 
