# k  (h/Mpc)    Pcb(k)  (Mpc/h)^3    Pcb_linear(k) (Mpc/h)^3   ShotnoiseSubtracted = true
      0.0200456         9120.58         9228.48 
      0.0350414         6084.88         5899.82 
      0.0492313         3912.33         3912.25 
      0.0637834         3058.12         3123.57 
      0.0800726         2367.51         2442.56 
       0.096163         1767.31         1689.14 
       0.111083         1360.28         1276.64 
       0.126058         1126.62         1116.75 
       0.142273         968.663         954.535 
       0.158546         776.256         736.025 
        0.17375         650.556         593.749 
       0.188953         590.697         530.228 
       0.204907          503.16         474.958 
       0.220756         445.873         399.052 
        0.23588         386.617          336.57 
         0.2514         340.928          300.16 
       0.267535         326.129         273.203 
       0.283568         282.551         241.033 
       0.299022         264.264          210.82 
       0.314451         256.667          189.44 
       0.330372         220.398         173.557 
       0.346141         202.635         157.753 
       0.361624          189.99         142.032 
       0.377134         173.853         129.007 
       0.392932         167.334         118.712 
       0.408854         157.831         109.355 
       0.424564         149.874         100.319 
       0.440253         134.991         92.1878 
       0.455999         125.515         85.3536 
       0.471626         122.557         79.3902 
        0.48727         116.806         73.7629 
       0.502856         106.218         68.5732 
       0.518488         104.579         63.9517 
       0.534347         97.2248         59.7886 
       0.550082         94.5185         55.9876 
       0.565732         92.3233         52.4707 
       0.581496         84.3258         49.2355 
       0.597222         82.2256         46.3113 
       0.612804         78.6698         43.6499 
       0.628434         76.7648         41.1727 
       0.644267         72.2437         38.8466 
       0.660051         70.1033         36.7147 
       0.675724         68.1832         34.7609 
       0.691403         66.5681         32.9462 
       0.707174          63.788         31.2488 
       0.722871         62.4175         29.6758 
        0.73838         60.4236         28.2262 
       0.754018         56.6635         26.8611 
       0.769845         56.1764         25.5701 
        0.78569          54.337         24.3617 
       0.801365         52.3004         23.2422 
       0.817031         50.5295         22.1931 
       0.832809         49.3819         21.2015 
       0.848511         48.2322         20.2745 
       0.864097         47.1323         19.4089 
       0.879701         45.9878         18.5926 
       0.895507         44.2098         17.8134 
       0.911279         43.2193         17.0801 
        0.92691         42.3457         16.3938 
       0.942635         41.0995         15.7412 
       0.958396         40.9556         15.1225 
       0.974128          39.828         14.5378 
       0.989692         38.6109         13.9897 
        1.00528         37.8115         13.4687 
        1.02113         36.8231         12.9659 
        1.03692          36.609         12.4905 
        1.05264         35.7428         12.0408 
        1.06832         34.7565         11.6138 
        1.08405         34.0778         11.2062 
        1.09979         33.6951         10.8177 
        1.11537         32.7875         10.4514 
        1.13105         31.9565         10.0996 
        1.14679         31.5478          9.7626 
        1.16256         31.0233         9.44016 
        1.17828         30.6596         9.13321 
        1.19395         29.7226         8.84082 
         1.2097         29.6782         8.55964 
        1.22537         28.8089         8.29193 
          1.241         28.5763         8.03638 
        1.25666         27.6799         7.79086 
        1.27241         27.5538         7.55437 
        1.28819         26.9941         7.32721 
        1.30392         26.4874         7.10996 
        1.31957         26.2949         6.90241 
        1.33529         25.8457         6.70231 
        1.35108         25.3511         6.50929 
        1.36674         24.8687         6.32517 
         1.3824         24.5052         6.14828 
        1.39811         24.0605         5.97751 
        1.41389         23.7089         5.81251 
        1.42964         23.6028         5.65396 
        1.44531         23.0885         5.50204 
        1.46101         22.8237         5.35533 
        1.47667         22.5269         5.21436 
        1.49229         22.0347         5.07879 
        1.50793         21.9285         4.94784 
        1.52367         21.4587         4.82063 
        1.53953         21.3769         4.69699 
        1.55526         20.9338         4.57864 
        1.57092         20.7174         4.46481 
        1.58662         20.4576         4.35454 
        1.60235         20.1321         4.24775 
        1.61809         19.8961         4.14445 
        1.63369         19.6242         4.04547 
        1.64941          19.339         3.94899 
        1.66519           19.18         3.85527 
        1.68085         18.8029         3.76523 
        1.69652         18.5942         3.67801 
        1.71228           18.54         3.59303 
        1.72806         18.1773         3.51065 
        1.74368         17.9176         3.43164 
        1.75933         17.8192         3.35489 
        1.77505         17.5827          3.2801 
        1.79081         17.3563         3.20744 
         1.8065         17.1838         3.13726 
        1.82218         16.9361         3.06923 
        1.83797         16.8445         3.00273 
        1.85367          16.621         2.93855 
        1.86928         16.5234          2.8766 
        1.88497         16.2571         2.81609 
        1.90073         16.1143         2.75708 
        1.91647         15.8785         2.69979 
        1.93218         15.7938         2.64424 
        1.94787         15.5981         2.59031 
        1.96363          15.397         2.53767 
        1.97935          15.215         2.48657 
        1.99499         15.1088         2.43716 
        2.01064         14.8474         2.38901 
         2.0264         14.7661         2.34184 
        2.04216         14.7014         2.29595 
        2.05781         14.4653         2.25157 
        2.07353         14.3374         2.20819 
        2.08928         14.1553         2.16585 
        2.10499         13.9514         2.12473 
        2.12065         13.8499         2.08478 
        2.13633         13.7558         2.04581 
        2.15211         13.5364         2.00758 
        2.16785         13.5228         1.97042 
        2.18349         13.3409         1.93442 
        2.19916         13.1832         1.89924 
        2.21489         13.0085         1.86481 
        2.23063         12.9197          1.8312 
         2.2463         12.8199         1.79856 
        2.26194         12.6275         1.76679 
        2.27765         12.5259         1.73561 
        2.29341         12.3597          1.7051 
        2.30914         12.2527         1.67538 
        2.32486         12.2068         1.64637 
        2.34061         12.0457           1.618 
        2.35635         11.8899         1.59031 
        2.37203         11.8139         1.56336 
        2.38768         11.6847         1.53708 
        2.40339          11.657         1.51131 
        2.41914         11.5383         1.48605 
        2.43483         11.4094         1.46146 
         2.4505         11.2354         1.43747 
        2.46622         11.1765         1.41392 
        2.48195         11.0787         1.39089 
        2.49759         10.9504         1.36849 
        2.51328         10.8423         1.34652 
        2.52906         10.7561         1.32489 
        2.54479         10.6847         1.30381 
        2.56049         10.5724         1.28323 
        2.57618         10.5115          1.2631 
        2.59189         10.3709         1.24337 
        2.60758         10.2549         1.22408 
        2.62325          10.181         1.20523 
        2.63898         10.1454          1.1867 
        2.65468          10.023          1.1686 
        2.67044         9.94003         1.15079 
        2.68618         9.81379         1.13339 
        2.70184         9.77533         1.11641 
        2.71755         9.65447         1.09974 
        2.73329         9.59583         1.08338 
        2.74897         9.51941          1.0674 
        2.76462         9.42774         1.05177 
        2.78034          9.3445         1.03639 
        2.79607          9.2639          1.0213 
        2.81179         9.22777         1.00652 
        2.82749         9.11732        0.992046 
        2.84321         9.05433        0.977839 
        2.85893         8.95289        0.963911 
        2.87462         8.89266        0.950274 
        2.89033         8.79365        0.936887 
        2.90605         8.73134        0.923743 
        2.92176         8.67207        0.910854 
        2.93747         8.61443        0.898216 
        2.95318         8.54835        0.885812 
        2.96891         8.44793        0.873634 
        2.98456         8.38074        0.861736 
        3.00023         8.33362         0.85004 
        3.01596         8.26762        0.838522 
        3.03164         8.18984        0.827248 
        3.04738          8.1219        0.816146 
         3.0631         8.04256         0.80525 
        3.07883         7.98208        0.794549 
        3.09456         7.89221        0.784043 
        3.11026         7.83097         0.77374 
        3.12596         7.79135        0.763622 
        3.14163         7.71523        0.753705 
        3.15734         7.65867         0.74394 
        3.17308         7.61785        0.734322 
        3.18879         7.54778        0.724899 
        3.20447         7.49676        0.715653 
         3.2202         7.42913        0.706538 
         3.2359         7.34982        0.697596 
        3.25157         7.31474        0.688828 
        3.26729          7.2293        0.680182 
        3.28304         7.18429        0.671667 
        3.29877         7.14455        0.663306 
        3.31446         7.07461        0.655105 
        3.33014         7.02624        0.647047 
        3.34585         6.94406        0.639112 
        3.36158          6.9141        0.631296 
        3.37727         6.84559        0.623634 
        3.39294         6.80472        0.616104 
        3.40867         6.76214        0.608671 
        3.42439         6.70973        0.601362 
        3.44008         6.63718        0.594187 
        3.45578         6.59772        0.587122 
        3.47153          6.5526        0.580155 
        3.48724         6.48629        0.573311 
        3.50292         6.42812        0.566593 
        3.51859         6.39357        0.559985 
        3.53431         6.34193         0.55346 
        3.55007          6.2853        0.547022 
        3.56577         6.22014        0.540711 
        3.58146          6.1991        0.534501 
        3.59719         6.13609        0.528373 
        3.61292         6.11106        0.522342 
        3.62859         6.06507        0.516426 
        3.64429         6.00251         0.51059 
        3.66003         5.95981        0.504825 
        3.67578         5.93936        0.499151 
        3.69146         5.87233        0.493584 
        3.70712         5.84668        0.488111 
        3.72284         5.79501        0.482699 
        3.73853         5.75852        0.477379 
        3.75422         5.73417        0.472135 
        3.76993         5.66918        0.466965 
        3.78564         5.64055        0.461873 
        3.80137         5.57156        0.456849 
        3.81707         5.53291        0.451908 
        3.83279         5.48976        0.447036 
        3.84853         5.46191        0.442227 
        3.86424         5.40953        0.437497 
        3.87992         5.38775        0.432843 
        3.89561         5.34116        0.428255 
        3.91134         5.29818        0.423724 
        3.92704         5.26298        0.419263 
        3.94273         5.22599        0.414869 
        3.95845         5.18288         0.41053 
        3.97418         5.15049        0.406252 
        3.98988         5.11112        0.402039 
        4.00554         5.07323        0.397897 
        4.02125         5.04213          0.3938 
        4.03698         5.00252        0.389755 
        4.05268          4.9539        0.385774 
        4.06839         4.90469        0.381846 
         4.0841         4.89043        0.377973 
        4.09983         4.84011        0.374148 
        4.11555         4.81194        0.370376 
        4.13124          4.7808        0.366666 
        4.14693         4.74402        0.363004 
        4.16266         4.71102        0.359382 
        4.17839         4.68108        0.355811 
        4.19408         4.65132        0.352297 
        4.20977         4.61643        0.348827 
        4.22551         4.58928        0.345396 
        4.24123         4.54241        0.342014 
        4.25691         4.50929        0.338685 
        4.27259         4.48115          0.3354 
        4.28831         4.45143        0.332151 
        4.30404         4.40564        0.328941 
        4.31974         4.38183         0.32578 
        4.33543          4.3386        0.322662 
        4.35116         4.31366        0.319577 
        4.36688         4.28886        0.316533 
        4.38255         4.27277         0.31354 
        4.39825         4.23515        0.310578 
        4.41398         4.17981        0.307648 
         4.4297          4.1683        0.304759 
        4.44541         4.15042        0.301907 
        4.46111         4.11658        0.299093 
        4.47683         4.08525        0.296313 
        4.49251         4.06369        0.293573 
        4.50819         4.03269        0.290868 
         4.5239         3.99177        0.288193 
        4.53962         3.98433        0.285547 
        4.55535         3.94074        0.282934 
        4.57106         3.92715        0.280356 
        4.58678         3.89372         0.27781 
         4.6025          3.8753        0.275294 
        4.61821         3.84817        0.272809 
        4.63391          3.8242        0.270358 
         4.6496         3.79406        0.267938 
        4.66532         3.75655        0.265543 
        4.68103         3.73978        0.263179 
        4.69673         3.71166        0.260845 
        4.71241         3.69704        0.258541 
        4.72811         3.66135        0.256261 
        4.74384         3.63902        0.254005 
        4.75955         3.61568         0.25178 
        4.77525         3.59302        0.249582 
        4.79096         3.57897        0.247407 
        4.80669         3.55261        0.245257 
         4.8224         3.52212        0.243134 
        4.83809         3.49881        0.241039 
        4.85379         3.48086        0.238967 
         4.8695         3.45571        0.236917 
        4.88521         3.43588        0.234892 
        4.90093          3.4097         0.23289 
        4.91663         3.39026        0.230913 
        4.93234         3.36096        0.228956 
        4.94807         3.34437         0.22702 
        4.96377         3.32507         0.22511 
        4.97943         3.29936        0.223226 
        4.99514         3.29059        0.221359 
        5.01086         3.26197        0.219511 
        5.02654         3.24381        0.217688 
        5.04227         3.22528        0.215881 
          5.058         3.19963        0.214093 
        5.07371         3.18063        0.212329 
        5.08942         3.16765        0.210584 
        5.10513         3.14831        0.208858 
        5.12084         3.12749        0.207151 
        5.13656         3.10863        0.205463 
        5.15225         3.08974        0.203796 
        5.16796         3.06323        0.202144 
        5.18369           3.051         0.20051 
         5.1994         3.03637        0.198896 
        5.21509         3.01354        0.197301 
        5.23079         2.98807        0.195722 
        5.24649         2.97855        0.194161 
        5.26217         2.96314        0.192617 
        5.27788         2.94267        0.191089 
        5.29359         2.91491        0.189576 
        5.30933         2.90456        0.188077 
        5.32504         2.88794        0.186597 
        5.34073         2.87687        0.185134 
        5.35646         2.85896        0.183684 
        5.37218         2.83888        0.182249 
        5.38789         2.81716        0.180831 
        5.40357         2.80261         0.17943 
        5.41929          2.7865        0.178041 
        5.43502         2.77089        0.176666 
         5.4507         2.75075        0.175308 
        5.46639         2.73393        0.173964 
        5.48212         2.72759        0.172631 
        5.49786         2.70503        0.171311 
        5.51353          2.6899         0.17001 
        5.52921         2.67024        0.168722 
        5.54495         2.65993        0.167443 
        5.56066         2.64709        0.166178 
        5.57637         2.62605        0.164927 
        5.59207         2.61582        0.163689 
        5.60778         2.59918        0.162464 
        5.62346         2.59051        0.161252 
        5.63916         2.57395        0.160052 
        5.65487         2.55543        0.158863 
         5.6706         2.54134        0.157685 
        5.68633          2.5258        0.156518 
        5.70203         2.51073        0.155365 
        5.71773          2.4982        0.154224 
        5.73344         2.48476        0.153093 
        5.74916         2.46653        0.151973 
        5.76486         2.45576        0.150865 
        5.78054         2.44157         0.14977 
        5.79626         2.43309        0.148682 
          5.812         2.41572        0.147605 
         5.8277         2.39881         0.14654 
        5.84339         2.38754        0.145487 
        5.85911         2.37563        0.144441 
        5.87484         2.36297        0.143406 
        5.89053         2.34784        0.142383 
        5.90623         2.34143        0.141369 
        5.92195         2.32447        0.140363 
        5.93767         2.31736        0.139368 
        5.95336         2.29612        0.138383 
        5.96905         2.29037        0.137409 
        5.98476         2.27601        0.136442 
        6.00048         2.26621        0.135484 
        6.01617         2.25098        0.134537 
        6.03185         2.24027        0.133599 
        6.04756         2.22849        0.132668 
        6.06331         2.22026        0.131745 
        6.07903          2.2057        0.130831 
        6.09473         2.19157        0.129927 
        6.11044         2.17804        0.129031 
        6.12616         2.17111        0.128143 
        6.14186         2.15886        0.127264 
        6.15755         2.14825        0.126394 
        6.17326         2.13488        0.125531 
        6.18898         2.12211        0.124675 
        6.20467         2.11647        0.123829 
        6.22036         2.10333        0.122991 
         6.2361         2.09396        0.122158 
         6.2518          2.0822        0.121334 
        6.26748         2.07225        0.120519 
        6.28319         2.06411         0.11971 
        6.29893         2.05295        0.118907 
        6.31463          2.0467        0.118113 
        6.33033         2.03179        0.117326 
        6.34604         2.02404        0.116546 
        6.36177         2.01074        0.115772 
        6.37747          2.0038        0.115006 
