# k  (h/Mpc)    Pcb(k)  (Mpc/h)^3    Pcb_linear(k) (Mpc/h)^3   ShotnoiseSubtracted = true
      0.0200456         11465.8         11606.5 
      0.0350414         7670.65         7420.12 
      0.0492313         4912.18         4920.38 
      0.0637834         3835.68         3928.47 
      0.0800726         2967.29         3071.98 
       0.096163         2234.04         2124.41 
       0.111083         1723.29         1605.61 
       0.126058         1421.92         1404.52 
       0.142273         1227.01         1200.51 
       0.158546          985.68         925.688 
        0.17375         830.969          746.75 
       0.188953         759.453          666.86 
       0.204907         646.716         597.348 
       0.220756           574.7         501.882 
        0.23588         500.669           423.3 
         0.2514         441.367         377.507 
       0.267535         424.808         343.604 
       0.283568         368.062         303.144 
       0.299022         346.397         265.145 
       0.314451         341.841         238.256 
       0.330372         291.703         218.281 
       0.346141         268.561         198.404 
       0.361624         253.364         178.632 
       0.377134          233.58          162.25 
       0.392932         224.702         149.303 
       0.408854         212.834         137.534 
       0.424564         203.291         126.169 
       0.440253         182.792         115.943 
       0.455999         171.686         107.348 
       0.471626         169.512         99.8479 
        0.48727         160.609         92.7706 
       0.502856         146.159         86.2436 
       0.518488         145.364         80.4312 
       0.534347          134.72         75.1953 
       0.550082         130.802         70.4148 
       0.565732         128.956         65.9917 
       0.581496         118.711         61.9229 
       0.597222         115.782         58.2451 
       0.612804         111.044         54.8979 
       0.628434         108.147         51.7823 
       0.644267          101.98         48.8568 
       0.660051         99.4918         46.1756 
       0.675724         97.2795         43.7183 
       0.691403         94.9246         41.4359 
       0.707174         91.0388         39.3011 
       0.722871         89.2683         37.3228 
        0.73838         87.3959         35.4997 
       0.754018         81.9622         33.7828 
       0.769845         81.5557         32.1592 
        0.78569         79.0059         30.6393 
       0.801365         75.9616         29.2314 
       0.817031         73.7751         27.9119 
       0.832809         72.2086         26.6648 
       0.848511         70.4191          25.499 
       0.864097         68.9324         24.4103 
       0.879701         67.5894         23.3837 
       0.895507         65.1604         22.4036 
       0.911279         63.5066         21.4814 
        0.92691          62.229         20.6183 
       0.942635         60.4013         19.7975 
       0.958396         60.3263         19.0193 
       0.974128          58.838          18.284 
       0.989692         57.1422         17.5946 
        1.00528         56.1265         16.9394 
        1.02113         54.6749         16.3071 
        1.03692         54.4736         15.7091 
        1.05264         53.5146         15.1435 
        1.06832         51.8004         14.6065 
        1.08405         50.9896         14.0939 
        1.09979         50.3886         13.6053 
        1.11537         49.0884         13.1445 
        1.13105          48.071         12.7022 
        1.14679         47.5216         12.2783 
        1.16256         46.5474         11.8728 
        1.17828         46.1579         11.4867 
        1.19395         45.0165          11.119 
         1.2097         44.6889         10.7653 
        1.22537         43.5502         10.4286 
          1.241         43.5029         10.1072 
        1.25666         41.8446         9.79846 
        1.27241         41.6883         9.50103 
        1.28819         41.2008         9.21533 
        1.30392         40.2732          8.9421 
        1.31957         40.0653         8.68107 
        1.33529         39.4171         8.42941 
        1.35108         38.9503         8.18664 
        1.36674         38.0747         7.95508 
         1.3824         37.5434         7.73261 
        1.39811         36.8395         7.51783 
        1.41389         36.4082         7.31031 
        1.42964         36.0384         7.11091 
        1.44531         35.4873         6.91984 
        1.46101         35.1513         6.73533 
        1.47667         34.6307         6.55803 
        1.49229         33.9492         6.38753 
        1.50793         33.6627         6.22284 
        1.52367         33.4155         6.06284 
        1.53953          32.944         5.90734 
        1.55526         32.1814         5.75849 
        1.57092         32.0967         5.61533 
        1.58662         31.7005         5.47665 
        1.60235         31.2147         5.34234 
        1.61809         30.7678         5.21242 
        1.63369         30.2855         5.08793 
        1.64941         29.9599         4.96659 
        1.66519         29.5584         4.84872 
        1.68085         29.1444         4.73548 
        1.69652         28.8006         4.62578 
        1.71228         28.5507         4.51891 
        1.72806         28.2628         4.41529 
        1.74368         27.7583         4.31593 
        1.75933         27.6824          4.2194 
        1.77505         27.1627         4.12534 
        1.79081         26.9693         4.03395 
         1.8065          26.749         3.94569 
        1.82218         26.1454         3.86013 
        1.83797         25.8727         3.77649 
        1.85367          25.671         3.69577 
        1.86928         25.5069         3.61786 
        1.88497         25.0946         3.54176 
        1.90073         24.9346         3.46754 
        1.91647         24.7316         3.39549 
        1.93218          24.453         3.32562 
        1.94787         24.1429          3.2578 
        1.96363         23.8014         3.19159 
        1.97935         23.5665         3.12733 
        1.99499         23.4069         3.06518 
        2.01064          22.982         3.00462 
         2.0264         22.9098          2.9453 
        2.04216         22.6882         2.88759 
        2.05781         22.4402         2.83177 
        2.07353          22.113         2.77722 
        2.08928         22.0506         2.72396 
        2.10499         21.7229         2.67224 
        2.12065         21.4549         2.62199 
        2.13633          21.339         2.57299 
        2.15211         21.0301          2.5249 
        2.16785         20.8074         2.47817 
        2.18349         20.6389          2.4329 
        2.19916         20.4482         2.38865 
        2.21489         20.2727         2.34535 
        2.23063         20.0274         2.30307 
         2.2463         19.9085         2.26202 
        2.26194         19.6288         2.22207 
        2.27765         19.4255         2.18286 
        2.29341         19.1862         2.14448 
        2.30914         18.9998          2.1071 
        2.32486         18.9054         2.07062 
        2.34061         18.6661         2.03493 
        2.35635         18.4291         2.00011 
        2.37203         18.3567         1.96621 
        2.38768         18.1557         1.93317 
        2.40339         17.9571         1.90075 
        2.41914          17.863         1.86899 
        2.43483         17.6831         1.83806 
         2.4505         17.4694         1.80788 
        2.46622         17.2858         1.77826 
        2.48195         17.1403          1.7493 
        2.49759         16.9472         1.72113 
        2.51328         16.7558          1.6935 
        2.52906         16.6083          1.6663 
        2.54479         16.5421         1.63979 
        2.56049         16.3537          1.6139 
        2.57618         16.2161         1.58858 
        2.59189         16.0351         1.56377 
        2.60758         15.8634         1.53951 
        2.62325         15.6812          1.5158 
        2.63898         15.6602          1.4925 
        2.65468         15.4915         1.46973 
        2.67044          15.323         1.44733 
        2.68618         15.1164         1.42545 
        2.70184         15.0044          1.4041 
        2.71755         14.8214         1.38313 
        2.73329         14.7174         1.36255 
        2.74897         14.6159         1.34245 
        2.76462         14.4869          1.3228 
        2.78034         14.3067         1.30345 
        2.79607          14.203         1.28447 
        2.81179         14.0851         1.26588 
        2.82749         13.8942         1.24768 
        2.84321         13.8385         1.22981 
        2.85893         13.7045          1.2123 
        2.87462         13.5604         1.19515 
        2.89033         13.4255         1.17831 
        2.90605         13.3111         1.16178 
        2.92176          13.169         1.14557 
        2.93747         13.1087         1.12967 
        2.95318         13.0109         1.11407 
        2.96891         12.8261         1.09876 
        2.98456         12.7586         1.08379 
        3.00023         12.6414         1.06908 
        3.01596         12.4843          1.0546 
        3.03164         12.4304         1.04042 
        3.04738         12.3444         1.02646 
         3.0631         12.2239         1.01275 
        3.07883         12.0967        0.999294 
        3.09456         11.9821         0.98608 
        3.11026         11.8988        0.973122 
        3.12596         11.7518        0.960396 
        3.14163         11.6571        0.947925 
        3.15734         11.5989        0.935643 
        3.17308         11.4601        0.923547 
        3.18879         11.3656        0.911696 
        3.20447         11.3074        0.900067 
         3.2202         11.1748        0.888603 
         3.2359         11.0969        0.877356 
        3.25157         10.9901        0.866329 
        3.26729         10.9292        0.855456 
        3.28304         10.8351        0.844746 
        3.29877          10.751        0.834231 
        3.31446         10.6554        0.823916 
        3.33014         10.5422        0.813783 
        3.34585         10.5152        0.803802 
        3.36158         10.4097        0.793972 
        3.37727         10.3138        0.784335 
        3.39294         10.2315        0.774866 
        3.40867         10.1277        0.765517 
        3.42439         10.0478        0.756325 
        3.44008         9.96373          0.7473 
        3.45578         9.88991        0.738415 
        3.47153         9.81824        0.729652 
        3.48724         9.73285        0.721046 
        3.50292          9.6581        0.712597 
        3.51859         9.55645        0.704285 
        3.53431         9.50545        0.696079 
        3.55007         9.41665        0.687982 
        3.56577         9.31719        0.680045 
        3.58146         9.25206        0.672234 
        3.59719         9.19436        0.664527 
        3.61292         9.12832        0.656942 
        3.62859         9.01355        0.649502 
        3.64429         8.99066        0.642162 
        3.66003         8.85863        0.634912 
        3.67578         8.84033        0.627775 
        3.69146          8.7629        0.620773 
        3.70712         8.65207         0.61389 
        3.72284         8.61132        0.607084 
        3.73853         8.53305        0.600392 
        3.75422         8.45778        0.593798 
        3.76993         8.39096        0.587295 
        3.78564         8.33958        0.580892 
        3.80137         8.26464        0.574572 
        3.81707         8.18766        0.568359 
        3.83279         8.13909        0.562231 
        3.84853         8.07276        0.556183 
        3.86424         7.99381        0.550234 
        3.87992         7.93085        0.544381 
        3.89561         7.86961        0.538611 
        3.91134          7.8064        0.532912 
        3.92704         7.75171        0.527301 
        3.94273         7.70141        0.521776 
        3.95845         7.62787        0.516318 
        3.97418         7.57336        0.510937 
        3.98988         7.50695        0.505639 
        4.00554          7.4507        0.500429 
        4.02125         7.40601        0.495277 
        4.03698         7.32034        0.490189 
        4.05268         7.30385        0.485183 
        4.06839         7.22049        0.480243 
         4.0841         7.16785        0.475372 
        4.09983         7.10072         0.47056 
        4.11555         7.07366        0.465817 
        4.13124         6.98398        0.461151 
        4.14693         6.94923        0.456545 
        4.16266         6.86977         0.45199 
        4.17839         6.84017        0.447499 
        4.19408         6.78529        0.443079 
        4.20977         6.71187        0.438715 
        4.22551         6.67928          0.4344 
        4.24123           6.624        0.430146 
        4.25691         6.56176         0.42596 
        4.27259         6.51894        0.421828 
        4.28831         6.46495        0.417741 
        4.30404         6.42287        0.413705 
        4.31974         6.37204         0.40973 
        4.33543         6.31479        0.405808 
        4.35116         6.27359        0.401928 
        4.36688         6.23141          0.3981 
        4.38255         6.16817        0.394335 
        4.39825         6.12196         0.39061 
        4.41398         6.08883        0.386925 
         4.4297          6.0396        0.383291 
        4.44541         5.98526        0.379704 
        4.46111         5.94699        0.376165 
        4.47683         5.90034        0.372668 
        4.49251         5.87142        0.369222 
        4.50819         5.80348         0.36582 
         4.5239         5.75952        0.362456 
        4.53962         5.72998        0.359129 
        4.55535         5.68936        0.355842 
        4.57106         5.65601          0.3526 
        4.58678         5.60336        0.349397 
         4.6025         5.55818        0.346233 
        4.61821         5.51054        0.343109 
        4.63391         5.48158        0.340026 
         4.6496         5.44796        0.336982 
        4.66532          5.4124         0.33397 
        4.68103           5.361        0.330996 
        4.69673          5.3278        0.328061 
        4.71241         5.29419        0.325163 
        4.72811         5.24851        0.322296 
        4.74384         5.21405        0.319459 
        4.75955         5.18569         0.31666 
        4.77525         5.14416        0.313895 
        4.79096         5.11226         0.31116 
        4.80669          5.0849        0.308456 
         4.8224         5.03754        0.305787 
        4.83809         5.00913        0.303152 
        4.85379         4.97413        0.300545 
         4.8695         4.93172        0.297967 
        4.88521         4.89994         0.29542 
        4.90093         4.86136        0.292902 
        4.91663         4.82805        0.290416 
        4.93234         4.79278        0.287955 
        4.94807         4.76639         0.28552 
        4.96377          4.7264        0.283118 
        4.97943         4.69607        0.280749 
        4.99514         4.66411          0.2784 
        5.01086         4.62922        0.276076 
        5.02654         4.59587        0.273784 
        5.04227         4.57049        0.271511 
          5.058         4.52919        0.269262 
        5.07371           4.499        0.267043 
        5.08942         4.47141        0.264849 
        5.10513         4.43962        0.262678 
        5.12084         4.40622        0.260531 
        5.13656         4.38141        0.258407 
        5.15225         4.34587        0.256311 
        5.16796         4.32299        0.254234 
        5.18369          4.2824        0.252178 
         5.1994         4.27279        0.250149 
        5.21509         4.22992        0.248143 
        5.23079         4.20402        0.246157 
        5.24649          4.1744        0.244193 
        5.26217         4.15196        0.242252 
        5.27788         4.11969         0.24033 
        5.29359         4.09123        0.238427 
        5.30933         4.06481        0.236542 
        5.32504         4.04142        0.234681 
        5.34073         4.01295        0.232841 
        5.35646         3.98366        0.231017 
        5.37218          3.9681        0.229212 
        5.38789         3.93988        0.227429 
        5.40357         3.91203        0.225667 
        5.41929         3.88666        0.223919 
        5.43502         3.85534         0.22219 
         5.4507         3.83146        0.220482 
        5.46639         3.80164        0.218792 
        5.48212         3.79011        0.217116 
        5.49786         3.76364        0.215455 
        5.51353          3.7416         0.21382 
        5.52921         3.70831        0.212199 
        5.54495         3.69401        0.210591 
        5.56066         3.66844           0.209 
        5.57637         3.64934        0.207426 
        5.59207          3.6135         0.20587 
        5.60778           3.597        0.204328 
        5.62346         3.57544        0.202805 
        5.63916         3.55687        0.201295 
        5.65487         3.53077          0.1998 
         5.6706         3.50446        0.198318 
        5.68633         3.48254         0.19685 
        5.70203         3.47134          0.1954 
        5.71773         3.44287        0.193965 
        5.73344         3.42384        0.192543 
        5.74916         3.40211        0.191134 
        5.76486         3.37449        0.189741 
        5.78054         3.35627        0.188363 
        5.79626         3.33928        0.186996 
          5.812         3.32082         0.18564 
         5.8277         3.28899        0.184302 
        5.84339         3.28511        0.182976 
        5.85911         3.24956        0.181661 
        5.87484         3.23431        0.180359 
        5.89053         3.21928        0.179073 
        5.90623         3.20114        0.177798 
        5.92195         3.18425        0.176533 
        5.93767         3.16228        0.175281 
        5.95336          3.1446        0.174043 
        5.96905         3.12468        0.172817 
        5.98476         3.10339        0.171601 
        6.00048           3.084        0.170396 
        6.01617         3.06595        0.169205 
        6.03185         3.04416        0.168026 
        6.04756         3.02613        0.166855 
        6.06331         3.01236        0.165693 
        6.07903         2.99311        0.164545 
        6.09473         2.97487        0.163408 
        6.11044         2.95414         0.16228 
        6.12616         2.94259        0.161164 
        6.14186         2.92732        0.160059 
        6.15755          2.9046        0.158964 
        6.17326         2.89188        0.157878 
        6.18898         2.87421        0.156802 
        6.20467         2.85678        0.155738 
        6.22036          2.8473        0.154684 
         6.2361         2.81944        0.153636 
         6.2518          2.8096          0.1526 
        6.26748         2.79195        0.151575 
        6.28319         2.77708        0.150557 
        6.29893         2.75878        0.149548 
        6.31463         2.75014        0.148549 
        6.33033          2.7308        0.147559 
        6.34604          2.7129        0.146578 
        6.36177         2.69943        0.145605 
        6.37747         2.68581        0.144642 
