# k  (h/Mpc)    Pcb(k)  (Mpc/h)^3    Pcb_linear(k) (Mpc/h)^3   ShotnoiseSubtracted = true
      0.0200456         8526.14         8647.05 
      0.0350414         5424.07         5528.11 
      0.0492313         3671.59         3665.76 
      0.0637834         3010.01         2926.77 
      0.0800726         2342.61         2288.67 
       0.096163         1572.17         1582.72 
       0.111083         1194.19         1196.21 
       0.126058         1077.54         1046.39 
       0.142273         935.628         894.395 
       0.158546         751.771         689.652 
        0.17375         585.277          556.34 
       0.188953         551.615         496.821 
       0.204907         516.397         445.034 
       0.220756         430.756          373.91 
        0.23588         370.203         315.365 
         0.2514         320.801         281.248 
       0.267535         304.938          255.99 
       0.283568         274.535         225.847 
       0.299022         250.991         197.537 
       0.314451         228.148         177.504 
       0.330372         210.133         162.623 
       0.346141         187.347         147.814 
       0.361624         178.222         133.084 
       0.377134         165.049         120.879 
       0.392932         150.514         111.233 
       0.408854         143.554         102.465 
       0.424564         136.638         93.9982 
       0.440253         128.701         86.3796 
       0.455999         119.889          79.976 
       0.471626         110.931         74.3883 
        0.48727         106.266         69.1156 
       0.502856         101.622         64.2528 
       0.518488         98.3203         59.9225 
       0.534347         93.6655         56.0217 
       0.550082         86.0737         52.4601 
       0.565732         82.3047         49.1649 
       0.581496         78.9908         46.1335 
       0.597222         76.0161         43.3935 
       0.612804         72.2441         40.8998 
       0.628434          70.117         38.5786 
       0.644267         67.4916         36.3991 
       0.660051         65.6856         34.4015 
       0.675724         62.9705         32.5708 
       0.691403         60.8079         30.8704 
       0.707174         58.4209           29.28 
       0.722871         57.0559         27.8061 
        0.73838         55.6087         26.4478 
       0.754018         52.7065         25.1687 
       0.769845         51.4366         23.9591 
        0.78569         50.0993         22.8268 
       0.801365         48.2148         21.7778 
       0.817031         46.5902         20.7948 
       0.832809         45.9253         19.8657 
       0.848511         43.7238         18.9971 
       0.864097          42.791          18.186 
       0.879701         41.7968         17.4212 
       0.895507         41.1365         16.6911 
       0.911279         39.9156          16.004 
        0.92691         39.0741         15.3609 
       0.942635         37.4862         14.7494 
       0.958396         37.2975         14.1697 
       0.974128         36.1671         13.6219 
       0.989692          35.494         13.1082 
        1.00528         34.5997         12.6201 
        1.02113         33.7225          12.149 
        1.03692         32.7158         11.7035 
        1.05264         32.6239         11.2822 
        1.06832         31.3567         10.8821 
        1.08405         30.9799         10.5001 
        1.09979         30.5941         10.1362 
        1.11537         29.3567         9.79287 
        1.13105         29.5367         9.46331 
        1.14679         28.7886         9.14751 
        1.16256          28.112         8.84539 
        1.17828         27.4911         8.55778 
        1.19395         27.0018         8.28381 
         1.2097         26.5635         8.02035 
        1.22537         26.4594         7.76951 
          1.241         25.6015         7.53005 
        1.25666         25.0604         7.30001 
        1.27241         24.7043         7.07841 
        1.28819         24.1076         6.86556 
        1.30392         23.7752         6.66201 
        1.31957         23.5379         6.46753 
        1.33529         23.2111         6.28004 
        1.35108         22.8173         6.09917 
        1.36674         22.4271         5.92666 
         1.3824         21.8436         5.76091 
        1.39811          21.768          5.6009 
        1.41389         21.4654          5.4463 
        1.42964         20.9651         5.29774 
        1.44531          20.755         5.15539 
        1.46101         20.2867         5.01793 
        1.47667         20.1469         4.88583 
        1.49229         19.8862         4.75881 
        1.50793         19.6185         4.63611 
        1.52367         19.2963         4.51691 
        1.53953         19.1823         4.40106 
        1.55526         18.8102         4.29016 
        1.57092         18.5024         4.18351 
        1.58662         18.2864         4.08019 
        1.60235         18.0351         3.98013 
        1.61809          17.783         3.88334 
        1.63369         17.5971         3.79059 
        1.64941         17.3485         3.70018 
        1.66519         17.1069         3.61237 
        1.68085         16.9106         3.52801 
        1.69652         16.6795         3.44628 
        1.71228          16.572         3.36666 
        1.72806         16.2498         3.28946 
        1.74368         15.9922         3.21544 
        1.75933          15.828         3.14352 
        1.77505         15.7833         3.07344 
        1.79081         15.5141         3.00536 
         1.8065         15.3672          2.9396 
        1.82218         15.1867         2.87586 
        1.83797         14.9116         2.81355 
        1.85367          14.792          2.7534 
        1.86928         14.6282         2.69536 
        1.88497         14.4102         2.63867 
        1.90073         14.3551         2.58337 
        1.91647         14.1337         2.52969 
        1.93218         13.9972         2.47764 
        1.94787         13.8132         2.42711 
        1.96363         13.7592         2.37778 
        1.97935         13.5674         2.32991 
        1.99499         13.3818         2.28361 
        2.01064         13.3271         2.23849 
         2.0264         13.0819         2.19429 
        2.04216         12.9933          2.1513 
        2.05781         12.7395         2.10971 
        2.07353         12.7045         2.06907 
        2.08928         12.5934          2.0294 
        2.10499         12.4597         1.99086 
        2.12065         12.2437         1.95343 
        2.13633         12.1503         1.91692 
        2.15211         12.0313         1.88109 
        2.16785         11.8995         1.84627 
        2.18349         11.7735         1.81255 
        2.19916          11.688         1.77958 
        2.21489         11.5567         1.74732 
        2.23063         11.4541         1.71583 
         2.2463         11.3381         1.68524 
        2.26194         11.2399         1.65547 
        2.27765         11.1077         1.62626 
        2.29341         10.9829         1.59767 
        2.30914         10.9038         1.56982 
        2.32486         10.8112         1.54264 
        2.34061         10.7066         1.51606 
        2.35635         10.5755         1.49011 
        2.37203         10.4634         1.46486 
        2.38768         10.3807         1.44024 
        2.40339         10.2669         1.41609 
        2.41914          10.188         1.39243 
        2.43483          10.113         1.36939 
         2.4505         9.96381          1.3469 
        2.46622         9.88328         1.32483 
        2.48195         9.81127         1.30326 
        2.49759         9.70509         1.28227 
        2.51328         9.60556         1.26169 
        2.52906         9.53771         1.24142 
        2.54479         9.44744         1.22167 
        2.56049         9.37862         1.20238 
        2.57618         9.30636         1.18352 
        2.59189         9.20312         1.16503 
        2.60758          9.1248         1.14696 
        2.62325         9.06795         1.12929 
        2.63898         8.94829         1.11193 
        2.65468         8.88635         1.09497 
        2.67044         8.78209         1.07828 
        2.68618         8.71581         1.06198 
        2.70184         8.64088         1.04607 
        2.71755         8.55179         1.03045 
        2.73329         8.48719         1.01512 
        2.74897         8.40282         1.00015 
        2.76462         8.36533        0.985505 
        2.78034         8.23643        0.971093 
        2.79607         8.19896        0.956951 
        2.81179         8.09037        0.943104 
        2.82749         8.04784        0.929543 
        2.84321         7.98386        0.916231 
        2.85893         7.91377         0.90318 
        2.87462         7.84394        0.890403 
        2.89033         7.77043        0.877859 
        2.90605          7.6979        0.865543 
        2.92176         7.62621        0.853467 
        2.93747         7.61328        0.841625 
        2.95318         7.51251        0.830002 
        2.96891         7.45039        0.818591 
        2.98456         7.39522        0.807443 
        3.00023         7.33092        0.796484 
        3.01596         7.28016        0.785692 
        3.03164         7.23459        0.775128 
        3.04738         7.14938        0.764726 
         3.0631         7.12025        0.754516 
        3.07883         7.03723        0.744489 
        3.09456         6.98589        0.734645 
        3.11026         6.92757        0.724991 
        3.12596         6.87869         0.71551 
        3.14163         6.81246        0.706219 
        3.15734         6.75566        0.697069 
        3.17308         6.69243        0.688057 
        3.18879         6.66415        0.679228 
        3.20447         6.58791        0.670564 
         3.2202         6.55717        0.662023 
         3.2359         6.50081        0.653644 
        3.25157         6.45793        0.645429 
        3.26729          6.4119        0.637328 
        3.28304         6.35606        0.629349 
        3.29877         6.30208        0.621515 
        3.31446         6.23302         0.61383 
        3.33014         6.20026        0.606281 
        3.34585         6.17627        0.598845 
        3.36158          6.1247        0.591522 
        3.37727         6.05347        0.584342 
        3.39294         6.03494        0.577287 
        3.40867         5.96441        0.570322 
        3.42439           5.923        0.563474 
        3.44008         5.90065         0.55675 
        3.45578         5.84016        0.550131 
        3.47153         5.79732        0.543602 
        3.48724         5.75736         0.53719 
        3.50292         5.70442        0.530896 
        3.51859         5.67001        0.524704 
        3.53431         5.63773         0.51859 
        3.55007         5.58902        0.512558 
        3.56577         5.54201        0.506644 
        3.58146         5.51444        0.500825 
        3.59719         5.47578        0.495083 
        3.61292         5.42712        0.489432 
        3.62859         5.39319        0.483889 
        3.64429         5.35922        0.478421 
        3.66003         5.30301        0.473019 
        3.67578         5.25695        0.467702 
        3.69146         5.22825        0.462486 
        3.70712         5.19038        0.457358 
        3.72284         5.15721        0.452287 
        3.73853         5.10392        0.447302 
        3.75422         5.09211        0.442389 
        3.76993         5.03524        0.437544 
        3.78564         5.00785        0.432773 
        3.80137         4.95478        0.428065 
        3.81707         4.94291        0.423436 
        3.83279         4.90547        0.418871 
        3.84853         4.86772        0.414365 
        3.86424         4.83227        0.409933 
        3.87992         4.80299        0.405572 
        3.89561         4.75564        0.401273 
        3.91134         4.72106        0.397028 
        3.92704         4.69444        0.392848 
        3.94273         4.66813        0.388731 
        3.95845         4.62672        0.384665 
        3.97418         4.59085        0.380656 
        3.98988         4.56719        0.376709 
        4.00554         4.54357        0.372828 
        4.02125         4.49811        0.368989 
        4.03698         4.46055        0.365199 
        4.05268         4.44008        0.361469 
        4.06839         4.40499        0.357788 
         4.0841         4.37151        0.354159 
        4.09983         4.34243        0.350575 
        4.11555         4.31751        0.347041 
        4.13124         4.29161        0.343565 
        4.14693         4.25047        0.340133 
        4.16266         4.21882        0.336739 
        4.17839         4.18432        0.333394 
        4.19408         4.15252          0.3301 
        4.20977         4.12092         0.32685 
        4.22551         4.10082        0.323635 
        4.24123         4.07407        0.320465 
        4.25691         4.02544        0.317347 
        4.27259         4.01772        0.314268 
        4.28831         3.98779        0.311224 
        4.30404         3.95898        0.308216 
        4.31974          3.9247        0.305255 
        4.33543         3.89825        0.302333 
        4.35116         3.86748        0.299443 
        4.36688          3.8453         0.29659 
        4.38255         3.81803        0.293786 
        4.39825         3.78467         0.29101 
        4.41398          3.7756        0.288265 
         4.4297         3.73131        0.285558 
        4.44541         3.71612        0.282886 
        4.46111         3.69792        0.280249 
        4.47683         3.66624        0.277644 
        4.49251         3.64223        0.275076 
        4.50819         3.61608        0.272542 
         4.5239         3.59243        0.270035 
        4.53962         3.57378        0.267557 
        4.55535         3.55362        0.265108 
        4.57106         3.52248        0.262693 
        4.58678          3.5044        0.260307 
         4.6025         3.47883        0.257949 
        4.61821         3.45912        0.255621 
        4.63391         3.43116        0.253325 
         4.6496         3.41122        0.251057 
        4.66532         3.39474        0.248813 
        4.68103         3.36393        0.246597 
        4.69673         3.34785         0.24441 
        4.71241         3.32814        0.242252 
        4.72811         3.29864        0.240115 
        4.74384          3.2719        0.238002 
        4.75955         3.25879        0.235916 
        4.77525         3.23123        0.233857 
        4.79096         3.21775        0.231819 
        4.80669          3.1985        0.229805 
         4.8224          3.1764        0.227816 
        4.83809          3.1518        0.225853 
        4.85379         3.14313        0.223911 
         4.8695         3.11891         0.22199 
        4.88521         3.10096        0.220093 
        4.90093         3.07496        0.218217 
        4.91663         3.06549        0.216364 
        4.93234         3.04617        0.214531 
        4.94807         3.01995        0.212717 
        4.96377         3.00067        0.210928 
        4.97943         2.98787        0.209162 
        4.99514         2.96537        0.207412 
        5.01086         2.94877        0.205681 
        5.02654         2.93426        0.203973 
        5.04227         2.90854         0.20228 
          5.058         2.89611        0.200605 
        5.07371         2.87704        0.198951 
        5.08942         2.85829        0.197316 
        5.10513         2.84433        0.195699 
        5.12084         2.83108        0.194099 
        5.13656         2.81214        0.192518 
        5.15225         2.79517        0.190956 
        5.16796          2.7767        0.189409 
        5.18369           2.759        0.187877 
         5.1994         2.74861        0.186365 
        5.21509         2.72861         0.18487 
        5.23079         2.71979         0.18339 
        5.24649         2.70271        0.181928 
        5.26217         2.67739        0.180482 
        5.27788         2.66444        0.179049 
        5.29359         2.65741        0.177632 
        5.30933         2.63538        0.176228 
        5.32504         2.62441        0.174841 
        5.34073         2.61133         0.17347 
        5.35646         2.58751        0.172111 
        5.37218         2.57662        0.170767 
        5.38789         2.55847        0.169438 
        5.40357         2.54938        0.168125 
        5.41929         2.52911        0.166823 
        5.43502          2.5201        0.165535 
         5.4507         2.50448        0.164263 
        5.46639         2.48615        0.163004 
        5.48212          2.4771        0.161755 
        5.49786         2.46044        0.160517 
        5.51353          2.4449        0.159299 
        5.52921         2.43536        0.158092 
        5.54495         2.42018        0.156893 
        5.56066         2.41046        0.155708 
        5.57637          2.3937        0.154536 
        5.59207         2.37805        0.153376 
        5.60778         2.36342        0.152228 
        5.62346         2.35239        0.151093 
        5.63916         2.34049        0.149968 
        5.65487         2.32881        0.148854 
         5.6706          2.3108         0.14775 
        5.68633         2.30055        0.146656 
        5.70203         2.28911        0.145576 
        5.71773         2.27834        0.144507 
        5.73344          2.2622        0.143448 
        5.74916         2.25417        0.142398 
        5.76486         2.24222         0.14136 
        5.78054         2.23067        0.140334 
        5.79626         2.21691        0.139315 
          5.812         2.20393        0.138305 
         5.8277         2.19015        0.137308 
        5.84339         2.18512         0.13632 
        5.85911         2.17179        0.135341 
        5.87484         2.15794        0.134371 
        5.89053         2.14516        0.133412 
        5.90623         2.13712        0.132462 
        5.92195         2.12675         0.13152 
        5.93767         2.11313        0.130587 
        5.95336         2.10494        0.129664 
        5.96905         2.09214        0.128751 
        5.98476         2.08114        0.127845 
        6.00048          2.0735        0.126948 
        6.01617         2.06169         0.12606 
        6.03185         2.04557        0.125182 
        6.04756         2.03777         0.12431 
        6.06331         2.02523        0.123444 
        6.07903         2.01754        0.122588 
        6.09473         2.01212        0.121741 
        6.11044         1.99987        0.120901 
        6.12616          1.9885         0.12007 
        6.14186         1.97834        0.119246 
        6.15755         1.97092        0.118431 
        6.17326         1.96053        0.117622 
        6.18898         1.95153         0.11682 
        6.20467          1.9423        0.116027 
        6.22036         1.92889        0.115242 
         6.2361         1.91958        0.114461 
         6.2518         1.91167        0.113689 
        6.26748         1.90135        0.112926 
        6.28319         1.89175        0.112168 
        6.29893         1.88248        0.111415 
        6.31463         1.87161        0.110671 
        6.33033         1.86249        0.109934 
        6.34604         1.85901        0.109203 
        6.36177         1.84775        0.108478 
        6.37747         1.84046         0.10776 
