# k  (h/Mpc)    Pcb(k)  (Mpc/h)^3    Pcb_linear(k) (Mpc/h)^3   ShotnoiseSubtracted = true
      0.0200456         1389.83         1404.68 
      0.0350414          914.02         898.022 
      0.0492313         598.684          595.49 
      0.0637834         472.101         475.444 
      0.0800726         366.494         371.787 
       0.096163         262.199         257.107 
       0.111083         199.505          194.32 
       0.126058         169.543         169.982 
       0.142273         144.131         145.292 
       0.158546         113.142         112.032 
        0.17375         92.6983         90.3756 
       0.188953         82.1897          80.707 
       0.204907          71.372         72.2942 
       0.220756         61.6398         60.7404 
        0.23588         52.2951           51.23 
         0.2514          46.577         45.6878 
       0.267535         42.6808         41.5848 
       0.283568         37.5128         36.6881 
       0.299022         33.2917         32.0893 
       0.314451         30.5839          28.835 
       0.330372         27.4917         26.4175 
       0.346141         24.9858         24.0118 
       0.361624         22.5569          21.619 
       0.377134          20.446         19.6364 
       0.392932         19.4169         18.0694 
       0.408854         17.5322         16.6451 
       0.424564         16.5346         15.2697 
       0.440253         14.9748         14.0321 
       0.455999         13.6176         12.9918 
       0.471626         12.7438         12.0841 
        0.48727         12.1825         11.2276 
       0.502856         11.3668         10.4377 
       0.518488         10.4062         9.73421 
       0.534347         9.69176         9.10053 
       0.550082         9.25109         8.52197 
       0.565732         8.79644         7.98667 
       0.581496         8.22012         7.49423 
       0.597222         7.71333         7.04913 
       0.612804         7.22775         6.64403 
       0.628434         6.96636         6.26697 
       0.644267         6.57429         5.91291 
       0.660051         6.18989         5.58841 
       0.675724         5.83271         5.29102 
       0.691403         5.60856          5.0148 
       0.707174         5.30906         4.75643 
       0.722871         5.14767         4.51701 
        0.73838         4.80298         4.29636 
       0.754018         4.55112         4.08857 
       0.769845         4.33153         3.89207 
        0.78569         4.20559         3.70813 
       0.801365         4.00182         3.53773 
       0.817031         3.83852         3.37805 
       0.832809          3.6401         3.22712 
       0.848511          3.5201         3.08602 
       0.864097         3.37877         2.95426 
       0.879701         3.27605         2.83002 
       0.895507         3.12111         2.71141 
       0.911279         2.99824         2.59979 
        0.92691         2.89892         2.49533 
       0.942635         2.76208           2.396 
       0.958396         2.67434         2.30182 
       0.974128         2.58904         2.21283 
       0.989692         2.45911         2.12939 
        1.00528         2.39924          2.0501 
        1.02113         2.31469         1.97357 
        1.03692         2.25474         1.90119 
        1.05264         2.15133         1.83275 
        1.06832         2.08841         1.76776 
        1.08405         2.01409         1.70571 
        1.09979         1.95744         1.64658 
        1.11537         1.89122         1.59082 
        1.13105         1.82101         1.53728 
        1.14679         1.77045         1.48598 
        1.16256         1.71092          1.4369 
        1.17828         1.67987         1.39018 
        1.19395         1.61077         1.34568 
         1.2097         1.55951         1.30288 
        1.22537         1.50617         1.26213 
          1.241         1.47013         1.22323 
        1.25666         1.44196         1.18586 
        1.27241          1.4021         1.14986 
        1.28819         1.34051         1.11529 
        1.30392         1.30643         1.08222 
        1.31957         1.28045         1.05063 
        1.33529         1.22547         1.02017 
        1.35108         1.20181        0.990791 
        1.36674         1.16662        0.962766 
         1.3824         1.14937        0.935841 
        1.39811          1.1144        0.909847 
        1.41389         1.08105        0.884733 
        1.42964         1.05152        0.860599 
        1.44531         1.02943        0.837476 
        1.46101         1.00268        0.815145 
        1.47667        0.980456        0.793687 
        1.49229        0.944693        0.773052 
        1.50793        0.917543         0.75312 
        1.52367        0.900248        0.733757 
        1.53953        0.873301        0.714938 
        1.55526        0.866023        0.696923 
        1.57092        0.844829        0.679597 
        1.58662        0.831956        0.662813 
        1.60235        0.800573        0.646558 
        1.61809        0.784298        0.630835 
        1.63369        0.762263        0.615769 
        1.64941        0.748949        0.601083 
        1.66519        0.735264        0.586818 
        1.68085         0.71409        0.573113 
        1.69652        0.699216        0.559837 
        1.71228        0.682479        0.546902 
        1.72806         0.66939        0.534362 
        1.74368        0.653955        0.522337 
        1.75933        0.642337        0.510654 
        1.77505        0.629651         0.49927 
        1.79081        0.608887         0.48821 
         1.8065        0.602631        0.477529 
        1.82218        0.585662        0.467173 
        1.83797        0.572583        0.457051 
        1.85367        0.564003        0.447281 
        1.86928        0.550586        0.437853 
        1.88497         0.53828        0.428642 
        1.90073        0.532596         0.41966 
        1.91647        0.516212         0.41094 
        1.93218        0.508107        0.402485 
        1.94787        0.499004        0.394277 
        1.96363        0.489294        0.386263 
        1.97935        0.478889        0.378486 
        1.99499        0.470165        0.370965 
        2.01064        0.460865        0.363635 
         2.0264         0.44972        0.356455 
        2.04216        0.443484        0.349471 
        2.05781        0.434387        0.342716 
        2.07353        0.427129        0.336113 
        2.08928        0.419393        0.329669 
        2.10499        0.411293        0.323408 
        2.12065        0.402646        0.317328 
        2.13633        0.397142        0.311396 
        2.15211         0.38645        0.305577 
        2.16785        0.382232        0.299921 
        2.18349        0.374435        0.294442 
        2.19916         0.36921        0.289087 
        2.21489        0.362234        0.283846 
        2.23063        0.354136         0.27873 
         2.2463        0.348336        0.273762 
        2.26194        0.343378        0.268926 
        2.27765        0.337171        0.264181 
        2.29341        0.331522        0.259537 
        2.30914        0.324019        0.255012 
        2.32486        0.320113        0.250597 
        2.34061        0.312993        0.246278 
        2.35635        0.308205        0.242064 
        2.37203        0.304077        0.237962 
        2.38768         0.29939        0.233962 
        2.40339        0.294307        0.230039 
        2.41914        0.289879        0.226195 
        2.43483        0.284835        0.222452 
         2.4505        0.279907        0.218799 
        2.46622        0.275845        0.215215 
        2.48195           0.271         0.21171 
        2.49759        0.266955          0.2083 
        2.51328        0.261273        0.204957 
        2.52906        0.258889        0.201664 
        2.54479        0.253464        0.198456 
        2.56049        0.250367        0.195322 
        2.57618        0.247167        0.192259 
        2.59189        0.242441        0.189255 
        2.60758        0.239332         0.18632 
        2.62325        0.235676         0.18345 
        2.63898        0.232609         0.18063 
        2.65468        0.227234        0.177874 
        2.67044        0.224611        0.175163 
        2.68618        0.222192        0.172515 
        2.70184        0.218486        0.169931 
        2.71755        0.214843        0.167393 
        2.73329        0.212074        0.164903 
        2.74897        0.208722         0.16247 
        2.76462        0.205933        0.160092 
        2.78034         0.20253        0.157751 
        2.79607         0.20006        0.155453 
        2.81179        0.196994        0.153204 
        2.82749          0.1942        0.151001 
        2.84321        0.190886        0.148839 
        2.85893        0.188831        0.146719 
        2.87462        0.186066        0.144643 
        2.89033        0.184118        0.142605 
        2.90605        0.181595        0.140605 
        2.92176        0.179396        0.138643 
        2.93747        0.176322        0.136719 
        2.95318        0.174285        0.134831 
        2.96891         0.17268        0.132977 
        2.98456         0.16949        0.131166 
        3.00023        0.167654        0.129386 
        3.01596        0.164956        0.127633 
        3.03164        0.163106        0.125917 
        3.04738        0.161435        0.124227 
         3.0631        0.158785        0.122569 
        3.07883        0.156798         0.12094 
        3.09456         0.15535        0.119341 
        3.11026        0.153283        0.117772 
        3.12596        0.151365        0.116232 
        3.14163         0.14939        0.114723 
        3.15734        0.147906        0.113236 
        3.17308        0.146117        0.111773 
        3.18879        0.144194        0.110338 
        3.20447        0.142473        0.108931 
         3.2202         0.14076        0.107543 
         3.2359         0.13887        0.106182 
        3.25157        0.136725        0.104848 
        3.26729        0.136049        0.103532 
        3.28304        0.134448        0.102236 
        3.29877        0.132892        0.100963 
        3.31446        0.131587       0.0997147 
        3.33014        0.129337       0.0984883 
        3.34585         0.12863       0.0972804 
        3.36158         0.12728       0.0960907 
        3.37727         0.12559       0.0949244 
        3.39294        0.124727       0.0937784 
        3.40867        0.122755       0.0926469 
        3.42439        0.121878       0.0915345 
        3.44008        0.120711       0.0904423 
        3.45578        0.119513       0.0893669 
        3.47153        0.118206       0.0883064 
        3.48724        0.117088       0.0872648 
        3.50292        0.116089       0.0862422 
        3.51859        0.114695       0.0852363 
        3.53431         0.11369       0.0842432 
        3.55007        0.112794       0.0832633 
        3.56577        0.111712       0.0823026 
        3.58146        0.110406       0.0813573 
        3.59719        0.109571       0.0804246 
        3.61292        0.108527       0.0795066 
        3.62859        0.107654       0.0786062 
        3.64429        0.106333       0.0777179 
        3.66003        0.105451       0.0768404 
        3.67578        0.104696       0.0759766 
        3.69146        0.103727       0.0751293 
        3.70712        0.102936       0.0742962 
        3.72284        0.102042       0.0734726 
        3.73853        0.101221       0.0726627 
        3.75422        0.100207       0.0718645 
        3.76993       0.0994984       0.0710776 
        3.78564       0.0984503       0.0703026 
        3.80137       0.0976964       0.0695378 
        3.81707       0.0970017       0.0687858 
        3.83279       0.0962267       0.0680442 
        3.84853       0.0952934       0.0673122 
        3.86424       0.0945722       0.0665923 
        3.87992       0.0937863       0.0658838 
        3.89561       0.0929546       0.0651855 
        3.91134       0.0921217       0.0644958 
        3.92704       0.0913434       0.0638168 
        3.94273       0.0907472        0.063148 
        3.95845       0.0896704       0.0624876 
        3.97418       0.0892124       0.0618363 
        3.98988       0.0882191       0.0611951 
        4.00554       0.0871187       0.0605646 
        4.02125       0.0864831       0.0599411 
        4.03698       0.0854167       0.0593253 
        4.05268       0.0841858       0.0587194 
        4.06839       0.0833983       0.0581215 
         4.0841       0.0822541        0.057532 
        4.09983         0.08155       0.0569497 
        4.11555       0.0802827       0.0563756 
        4.13124       0.0793045        0.055811 
        4.14693       0.0785029       0.0552535 
        4.16266       0.0775505       0.0547022 
        4.17839       0.0767197       0.0541587 
        4.19408       0.0758582       0.0536237 
        4.20977       0.0750808       0.0530956 
        4.22551       0.0742164       0.0525733 
        4.24123       0.0734866       0.0520585 
        4.25691       0.0728558       0.0515519 
        4.27259       0.0719807       0.0510518 
        4.28831       0.0716154       0.0505573 
        4.30404         0.07077       0.0500687 
        4.31974       0.0702419       0.0495876 
        4.33543         0.06967        0.049113 
        4.35116       0.0691942       0.0486435 
        4.36688       0.0686382       0.0481801 
        4.38255       0.0679008       0.0477245 
        4.39825       0.0676027       0.0472737 
        4.41398       0.0671649       0.0468277 
         4.4297        0.066892       0.0463879 
        4.44541       0.0664342       0.0459538 
        4.46111       0.0658031       0.0455255 
        4.47683       0.0654886       0.0451023 
        4.49251        0.065148       0.0446852 
        4.50819       0.0651104       0.0442735 
         4.5239       0.0647256       0.0438663 
        4.53962        0.064517       0.0434637 
        4.55535       0.0640947       0.0430659 
        4.57106       0.0641089       0.0426735 
        4.58678       0.0636917       0.0422859 
         4.6025       0.0637055        0.041903 
        4.61821       0.0637465       0.0415248 
        4.63391       0.0635311       0.0411517 
         4.6496       0.0633638       0.0407833 
        4.66532        0.063357       0.0404188 
        4.68103       0.0632569       0.0400589 
        4.69673       0.0632547       0.0397036 
        4.71241       0.0631921        0.039353 
        4.72811       0.0633384       0.0390059 
        4.74384       0.0631725       0.0386626 
        4.75955       0.0633373       0.0383238 
        4.77525       0.0635181       0.0379893 
        4.79096       0.0634841       0.0376583 
        4.80669       0.0635068        0.037331 
         4.8224       0.0638084       0.0370079 
        4.83809       0.0639121        0.036689 
        4.85379       0.0643418       0.0363736 
         4.8695       0.0645153       0.0360616 
        4.88521       0.0646942       0.0357533 
        4.90093        0.065042       0.0354486 
        4.91663        0.065259       0.0351476 
        4.93234       0.0655368       0.0348498 
        4.94807       0.0660593       0.0345552 
        4.96377       0.0663666       0.0342645 
        4.97943       0.0669378       0.0339777 
        4.99514       0.0667909       0.0336934 
        5.01086       0.0678241       0.0334121 
        5.02654       0.0681396       0.0331348 
        5.04227       0.0685727       0.0328597 
          5.058       0.0694342       0.0325875 
        5.07371       0.0697424        0.032319 
        5.08942       0.0705928       0.0320534 
        5.10513        0.071062       0.0317907 
        5.12084        0.071419       0.0315308 
        5.13656       0.0724232       0.0312738 
        5.15225       0.0730581       0.0310201 
        5.16796       0.0740169       0.0307688 
        5.18369       0.0747569         0.03052 
         5.1994       0.0756986       0.0302743 
        5.21509       0.0760701       0.0300316 
        5.23079       0.0774365       0.0297912 
        5.24649       0.0783276       0.0295536 
        5.26217       0.0789422       0.0293187 
        5.27788       0.0799196        0.029086 
        5.29359       0.0809095       0.0288557 
        5.30933       0.0824381       0.0286276 
        5.32504       0.0831973       0.0284023 
        5.34073       0.0846276       0.0281797 
        5.35646       0.0855746       0.0279589 
        5.37218       0.0869464       0.0277405 
        5.38789       0.0876546       0.0275247 
        5.40357       0.0887778       0.0273114 
        5.41929       0.0902467       0.0270999 
        5.43502       0.0920504       0.0268906 
         5.4507       0.0932778       0.0266839 
        5.46639       0.0948843       0.0264794 
        5.48212        0.096098       0.0262765 
        5.49786       0.0978172       0.0260755 
        5.51353        0.100051       0.0258776 
        5.52921        0.100565       0.0256815 
        5.54495        0.102626       0.0254868 
        5.56066        0.104227       0.0252943 
        5.57637        0.106473       0.0251038 
        5.59207        0.107955       0.0249154 
        5.60778        0.109745       0.0247289 
        5.62346         0.11231       0.0245445 
        5.63916        0.113151       0.0243618 
        5.65487        0.115899       0.0241808 
         5.6706        0.117732       0.0240015 
        5.68633         0.11998       0.0238239 
        5.70203        0.122395       0.0236484 
        5.71773        0.124756       0.0234747 
        5.73344        0.126136       0.0233026 
        5.74916        0.129209       0.0231321 
        5.76486        0.131927       0.0229634 
        5.78054         0.13339       0.0227967 
        5.79626        0.136163       0.0226312 
          5.812        0.139065       0.0224672 
         5.8277         0.14157       0.0223052 
        5.84339        0.143792       0.0221448 
        5.85911        0.146639       0.0219856 
        5.87484        0.149534       0.0218281 
        5.89053        0.153061       0.0216723 
        5.90623        0.154723        0.021518 
        5.92195        0.158543       0.0213649 
        5.93767        0.161337       0.0212134 
        5.95336        0.164017       0.0210636 
        5.96905        0.166986       0.0209152 
        5.98476        0.169795       0.0207681 
        6.00048        0.173463       0.0206223 
        6.01617        0.177587       0.0204781 
        6.03185        0.180851       0.0203354 
        6.04756        0.182319       0.0201937 
        6.06331         0.18645       0.0200531 
        6.07903         0.19248       0.0199141 
        6.09473        0.194542       0.0197765 
        6.11044        0.198962         0.01964 
        6.12616        0.200771       0.0195049 
        6.14186        0.204742       0.0193711 
        6.15755        0.209896       0.0192386 
        6.17326        0.212915       0.0191073 
        6.18898        0.216274        0.018977 
        6.20467         0.21956       0.0188483 
        6.22036        0.223793       0.0187206 
         6.2361        0.226214       0.0185939 
         6.2518        0.232417       0.0184685 
        6.26748        0.235758       0.0183445 
        6.28319        0.240398       0.0182213 
        6.29893        0.243473       0.0180991 
        6.31463        0.249764       0.0179782 
        6.33033         0.25201       0.0178584 
        6.34604        0.257903       0.0177397 
        6.36177         0.26159       0.0176218 
        6.37747        0.266005       0.0175053 
