#  k  (h/Mpc)          P(k)  (Mpc/h)^3     P_linear(k) (Mpc/h)^3
      0.0200456         23222.6         23789.8 
      0.0350414         16462.1         17294.4 
      0.0492313         12275.3         12565.8 
      0.0637834         10645.6         10445.8 
      0.0800726          8396.2         8290.58 
       0.096163         5815.93         6015.53 
       0.111083         4685.65         4798.15 
       0.126058         4311.65         4252.13 
       0.142273         3735.33         3602.49 
       0.158546          3290.1         2845.21 
        0.17375         2635.61         2397.09 
       0.188953         2580.68         2170.51 
       0.204907         2425.18         1920.46 
       0.220756         2106.99         1624.83 
        0.23588         1888.91         1413.46 
         0.2514         1647.24         1284.11 
       0.267535         1650.94          1161.9 
       0.283568         1497.99         1024.64 
       0.299022          1420.2         912.901 
       0.314451         1354.44          834.33 
       0.330372          1241.9         765.404 
       0.346141         1198.84         694.721 
       0.361624          1152.9         631.406 
       0.377134         1075.69         580.993 
       0.392932         1031.62         537.582 
       0.408854         1015.75         495.546 
       0.424564         938.048         456.752 
       0.440253         921.412         423.462 
       0.455999         894.508         394.515 
       0.471626         862.888         367.913 
        0.48727          828.07         343.029 
       0.502856         804.077         320.674 
       0.518488         798.302         300.727 
       0.534347         749.568         282.184 
       0.550082         733.652         265.086 
       0.565732         728.713         249.444 
       0.581496         690.595         235.117 
       0.597222         676.571         221.979 
       0.612804         666.269         209.897 
       0.628434         648.267         198.636 
       0.644267         632.051         188.108 
       0.660051         615.211         178.405 
       0.675724         608.776         169.445 
       0.691403         589.409         161.093 
       0.707174         570.767         153.257 
       0.722871         563.527         145.974 
        0.73838         553.082         139.241 
       0.754018         542.723         132.883 
       0.769845         533.786         126.852 
        0.78569         523.763         121.191 
       0.801365         510.923         115.931 
       0.817031         498.582         110.988 
       0.832809         494.168         106.304 
       0.848511         483.691         101.912 
       0.864097         468.976            97.8 
       0.879701         463.013         93.9118 
       0.895507         461.278         90.1901 
       0.911279         448.956         86.6788 
        0.92691         442.838         83.3843 
       0.942635         431.623         80.2437 
       0.958396         421.136         77.2589 
       0.974128         415.857          74.432 
       0.989692           413.7         71.7751 
        1.00528         401.426         69.2445 
        1.02113         399.834         66.7967 
        1.03692         388.706         64.4768 
        1.05264         385.957         62.2782 
        1.06832         375.618          60.186 
        1.08405         371.302         58.1847 
        1.09979         365.697         56.2736 
        1.11537         358.802         54.4676 
        1.13105         353.494         52.7304 
        1.14679         344.195         51.0626 
        1.16256         337.675         49.4639 
        1.17828         337.639         47.9391 
        1.19395         329.492         46.4841 
         1.2097         323.582         45.0822 
        1.22537         317.566         43.7451 
          1.241         314.133         42.4665 
        1.25666         309.635          41.236 
        1.27241         304.952         40.0486 
        1.28819         299.985         38.9061 
        1.30392         293.791         37.8117 
        1.31957         292.418         36.7644 
        1.33529         287.622          35.753 
        1.35108         281.564         34.7758 
        1.36674         276.896         33.8422 
         1.3824         275.337         32.9439 
        1.39811         270.511         32.0753 
        1.41389         267.614         31.2347 
        1.42964         264.465         30.4258 
        1.44531         260.604         29.6496 
        1.46101         255.667         28.8988 
        1.47667         252.903         28.1764 
        1.49229         250.085         27.4807 
        1.50793         243.975         26.8077 
        1.52367         242.805          26.153 
        1.53953         238.887         25.5158 
        1.55526         234.799          24.905 
        1.57092         232.845         24.3167 
        1.58662         230.303         23.7461 
        1.60235         226.122         23.1928 
        1.61809          223.68         22.6568 
        1.63369         220.858         22.1426 
        1.64941         216.649         21.6407 
        1.66519         214.965         21.1526 
        1.68085         212.011          20.683 
        1.69652         208.941         20.2276 
        1.71228         204.001         19.7834 
        1.72806         202.244         19.3521 
        1.74368          199.32         18.9381 
        1.75933         196.361         18.5354 
        1.77505         195.084         18.1425 
        1.79081         192.853         17.7603 
         1.8065         189.047         17.3908 
        1.82218         187.317         17.0322 
        1.83797         185.924         16.6812 
        1.85367         182.716         16.3421 
        1.86928         179.686         16.0145 
        1.88497         177.613         15.6941 
        1.90073         175.502         15.3812 
        1.91647         174.244         15.0772 
        1.93218         171.686         14.7821 
        1.94787         167.853         14.4953 
        1.96363         165.882          14.215 
        1.97935         164.955         13.9427 
        1.99499          162.51         13.6791 
        2.01064         160.531         13.4219 
         2.0264          159.08         13.1697 
        2.04216         156.879         12.9242 
        2.05781         154.811         12.6864 
        2.07353         153.292         12.4538 
        2.08928         150.699         12.2265 
        2.10499         149.393         12.0056 
        2.12065         146.912         11.7907 
        2.13633         145.249         11.5809 
        2.15211         143.058         11.3749 
        2.16785         141.853         11.1745 
        2.18349         140.489         10.9802 
        2.19916         138.417         10.7901 
        2.21489         137.255         10.6038 
        2.23063         134.889         10.4219 
         2.2463         133.383          10.245 
        2.26194         131.356         10.0727 
        2.27765         130.217         9.90344 
        2.29341         128.802         9.73765 
        2.30914          127.47         9.57601 
        2.32486         125.482         9.41812 
        2.34061         124.112         9.26354 
        2.35635         122.643         9.11257 
        2.37203          121.48         8.96549 
        2.38768         119.616         8.82196 
        2.40339         118.494         8.68106 
        2.41914         116.919         8.54291 
        2.43483          115.68         8.40825 
         2.4505         114.488         8.27673 
        2.46622         113.227         8.14757 
        2.48195         111.484         8.02115 
        2.49759         110.247          7.8981 
        2.51328         109.548         7.77731 
        2.52906          107.97         7.65828 
        2.54479         106.965         7.54219 
        2.56049         105.543         7.42874 
        2.57618         104.559         7.31771 
        2.59189         103.522         7.20879 
        2.60758         102.285         7.10226 
        2.62325         100.732         6.99801 
        2.63898         99.5797         6.89549 
        2.65468         98.5479         6.79524 
        2.67044         97.8467         6.69656 
        2.68618         96.6669         6.60006 
        2.70184         95.9261         6.50586 
        2.71755         94.2941         6.41325 
        2.73329         93.5432         6.32231 
        2.74897         92.6306         6.23343 
        2.76462         91.3911         6.14646 
        2.78034         90.5798         6.06078 
        2.79607         89.1663         5.97665 
        2.81179         88.3921         5.89421 
        2.82749         87.4988         5.81342 
        2.84321         86.5503         5.73406 
        2.85893          85.701          5.6562 
        2.87462          84.723         5.57992 
        2.89033         83.6666         5.50498 
        2.90605         82.7804         5.43135 
        2.92176         81.7736          5.3591 
        2.93747         81.2182         5.28821 
        2.95318         80.0832         5.21858 
        2.96891         79.5589         5.15017 
        2.98456         78.7001          5.0833 
        3.00023          77.791         5.01751 
        3.01596         76.7979         4.95269 
        3.03164         76.1548         4.88919 
        3.04738         75.1204         4.82662 
         3.0631         74.3728         4.76517 
        3.07883         73.9038         4.70479 
        3.09456         73.3503         4.64546 
        3.11026         72.3211         4.58724 
        3.12596         71.4428         4.53003 
        3.14163         71.0249         4.47393 
        3.15734          69.905         4.41865 
        3.17308         69.2432         4.36417 
        3.18879         68.7269         4.31075 
        3.20447         67.8857         4.25831 
         3.2202         67.3727         4.20658 
         3.2359         66.5027         4.15579 
        3.25157         65.9219         4.10597 
        3.26729         65.3355         4.05681 
        3.28304         64.8178         4.00837 
        3.29877         64.0896         3.96077 
        3.31446         63.1174         3.91406 
        3.33014         62.8321         3.86813 
        3.34585         61.9408         3.82288 
        3.36158          61.528         3.77828 
        3.37727         61.0527         3.73453 
        3.39294         60.1118         3.69151 
        3.40867         59.6851         3.64902 
        3.42439         59.1841         3.60722 
        3.44008         58.4946         3.56615 
        3.45578         57.8694          3.5257 
        3.47153         57.3437         3.48578 
        3.48724         56.8973         3.44655 
        3.50292          56.473         3.40801 
        3.51859         55.7817         3.37009 
        3.53431         55.4389         3.33262 
        3.55007         54.7906         3.29563 
        3.56577         54.4085         3.25934 
        3.58146         53.7884         3.22362 
        3.59719         53.1376         3.18835 
        3.61292         52.7048         3.15362 
        3.62859         52.1519         3.11954 
        3.64429         51.6548          3.0859 
        3.66003         51.3358         3.05265 
        3.67578         50.7894          3.0199 
        3.69146         50.2653         2.98776 
        3.70712         49.6964         2.95614 
        3.72284         49.3196         2.92486 
        3.73853         48.8406         2.89409 
        3.75422         48.3034         2.86375 
        3.76993         47.8038         2.83382 
        3.78564         47.4375         2.80433 
        3.80137         47.0145         2.77521 
        3.81707         46.4917         2.74656 
        3.83279         46.1008          2.7183 
        3.84853         45.8535         2.69039 
        3.86424         45.2731         2.66292 
        3.87992         44.8618         2.63588 
        3.89561          44.529         2.60921 
        3.91134         44.0621         2.58286 
        3.92704         43.6037          2.5569 
        3.94273         43.2189         2.53132 
        3.95845         42.9815         2.50604 
        3.97418         42.5685         2.48111 
        3.98988         42.2095         2.45655 
        4.00554         41.7892         2.43239 
        4.02125         41.4587         2.40848 
        4.03698         40.9889         2.38486 
        4.05268         40.7393          2.3616 
        4.06839         40.3236         2.33864 
         4.0841         39.9474           2.316 
        4.09983         39.6587         2.29362 
        4.11555         39.3252         2.27154 
        4.13124         39.0011         2.24982 
        4.14693         38.6685         2.22836 
        4.16266         38.3423         2.20713 
        4.17839          37.877         2.18619 
        4.19408         37.5781         2.16557 
        4.20977            37.3         2.14521 
        4.22551          36.957         2.12506 
        4.24123         36.6822         2.10519 
        4.25691         36.3605         2.08563 
        4.27259         35.9998         2.06631 
        4.28831         35.7016         2.04719 
        4.30404         35.4277          2.0283 
        4.31974         35.1215         2.00969 
        4.33543         34.7186         1.99132 
        4.35116         34.5514         1.97314 
        4.36688         34.2137         1.95519 
        4.38255         33.9097         1.93753 
        4.39825         33.6892         1.92005 
        4.41398         33.4297         1.90275 
         4.4297         33.0644         1.88569 
        4.44541         32.8631         1.86883 
        4.46111         32.4947          1.8522 
        4.47683         32.2534         1.83575 
        4.49251         31.9606         1.81954 
        4.50819         31.7594         1.80353 
         4.5239         31.5259         1.78768 
        4.53962         31.2141         1.77201 
        4.55535         30.9884         1.75652 
        4.57106         30.7096         1.74123 
        4.58678          30.536         1.72613 
         4.6025         30.1562          1.7112 
        4.61821         30.0132         1.69645 
        4.63391         29.7237         1.68189 
         4.6496         29.4628          1.6675 
        4.66532         29.2323         1.65327 
        4.68103         29.0094          1.6392 
        4.69673         28.7781         1.62532 
        4.71241         28.6111         1.61161 
        4.72811         28.3112         1.59803 
        4.74384         28.1609         1.58459 
        4.75955         27.8375         1.57133 
        4.77525         27.6628         1.55822 
        4.79096          27.464         1.54525 
        4.80669         27.1704         1.53242 
         4.8224         26.9886         1.51975 
        4.83809         26.8249         1.50724 
        4.85379           26.58         1.49486 
         4.8695         26.3324         1.48261 
        4.88521         26.1173          1.4705 
        4.90093         25.9016         1.45853 
        4.91663         25.6679          1.4467 
        4.93234         25.4622         1.43499 
        4.94807         25.3645          1.4234 
        4.96377         25.1352         1.41195 
        4.97943         24.8599         1.40066 
        4.99514         24.7261         1.38947 
        5.01086         24.5707         1.37838 
        5.02654         24.3272         1.36745 
        5.04227         24.1612          1.3566 
          5.058         24.0041         1.34587 
        5.07371         23.8024         1.33527 
        5.08942         23.5516         1.32478 
        5.10513         23.4381         1.31441 
        5.12084         23.2814         1.30414 
        5.13656         23.1109         1.29399 
        5.15225         22.8906         1.28395 
        5.16796         22.7116         1.27401 
        5.18369         22.5012         1.26417 
         5.1994         22.3481         1.25445 
        5.21509         22.1963         1.24483 
        5.23079         22.0277         1.23531 
        5.24649         21.9089          1.2259 
        5.26217         21.7213         1.21658 
        5.27788         21.5701         1.20736 
        5.29359         21.3905         1.19822 
        5.30933         21.1454         1.18917 
        5.32504         21.0467         1.18023 
        5.34073         20.9123         1.17138 
        5.35646         20.7435         1.16262 
        5.37218         20.5678         1.15393 
        5.38789         20.4269         1.14536 
        5.40357         20.3028         1.13687 
        5.41929         20.0705         1.12846 
        5.43502          20.003         1.12013 
         5.4507         19.7955          1.1119 
        5.46639         19.6734         1.10376 
        5.48212         19.5487         1.09567 
        5.49786         19.3618         1.08766 
        5.51353         19.2218         1.07977 
        5.52921         19.0909         1.07195 
        5.54495          18.956         1.06418 
        5.56066         18.8195          1.0565 
        5.57637         18.6691          1.0489 
        5.59207         18.5219         1.04137 
        5.60778         18.3551         1.03392 
        5.62346         18.2512         1.02655 
        5.63916         18.1445         1.01925 
        5.65487         18.0302         1.01201 
         5.6706         17.8755         1.00484 
        5.68633         17.7488        0.997727 
        5.70203         17.5779        0.990702 
        5.71773         17.5212        0.983746 
        5.73344         17.3598        0.976852 
        5.74916          17.238        0.970019 
        5.76486         17.1416         0.96326 
        5.78054         16.9949        0.956576 
        5.79626         16.8423        0.949936 
          5.812         16.7817        0.943353 
         5.8277         16.5964        0.936851 
        5.84339         16.4991        0.930411 
        5.85911         16.4222        0.924019 
        5.87484         16.2691        0.917688 
        5.89053         16.1375        0.911428 
        5.90623         16.0558        0.905224 
        5.92195         15.9402        0.899068 
        5.93767           15.81        0.892971 
        5.95336          15.708        0.886942 
        5.96905         15.5949         0.88097 
        5.98476         15.4889        0.875044 
        6.00048         15.3728        0.869172 
        6.01617         15.2963        0.863361 
        6.03185         15.1415         0.85761 
        6.04756         15.0461        0.851897 
        6.06331         14.9426        0.846225 
        6.07903         14.8498        0.840616 
        6.09473          14.741        0.835063 
        6.11044         14.6195        0.829555 
        6.12616         14.5284        0.824098 
        6.14186         14.3841        0.818695 
        6.15755         14.3102        0.813341 
        6.17326         14.2325         0.80803 
        6.18898         14.1476        0.802765 
        6.20467         14.0486        0.797555 
        6.22036         13.9383        0.792393 
         6.2361          13.833        0.787262 
         6.2518         13.7469        0.782184 
        6.26748         13.6469        0.777163 
        6.28319         13.5587        0.772172 
        6.29893         13.4555         0.76722 
        6.31463         13.3691        0.762321 
        6.33033         13.3199        0.757465 
        6.34604         13.2045        0.752649 
        6.36177            13.1        0.747869 
        6.37747         13.0296         0.74314 
