# k  (h/Mpc)    Pcb(k)  (Mpc/h)^3    Pcb_linear(k) (Mpc/h)^3   ShotnoiseSubtracted = true
      0.0200456         6533.53         6635.49 
      0.0350414          5164.5          5064.7 
      0.0492313         3794.36         3816.53 
      0.0637834         3176.31         3276.33 
      0.0800726         2549.72         2643.63 
       0.096163         1986.52         1943.08 
       0.111083         1646.35         1587.71 
       0.126058         1407.06         1433.64 
       0.142273         1206.02         1217.04 
       0.158546         992.353         967.965 
        0.17375         874.013         832.268 
       0.188953         805.616         763.467 
       0.204907         687.738         675.348 
       0.220756         615.491         573.421 
        0.23588         548.654         506.225 
         0.2514         496.672         465.224 
       0.267535         476.584         421.326 
       0.283568         417.076           372.4 
       0.299022         394.691         335.198 
       0.314451         389.037         309.178 
       0.330372         338.564         284.378 
       0.346141         314.431         258.639 
       0.361624         298.336         236.631 
       0.377134          274.82         219.316 
       0.392932         269.112         203.698 
       0.408854         254.272         188.231 
       0.424564         243.971         174.284 
       0.440253         221.084         162.488 
       0.455999          209.41         151.986 
       0.471626         204.733         142.126 
        0.48727         197.597         132.978 
       0.502856         181.112         124.841 
       0.518488         179.012         117.508 
       0.534347         167.941         110.598 
       0.550082         164.159         104.216 
       0.565732         161.103         98.4062 
       0.581496         149.454         93.0617 
       0.597222         146.077         88.1195 
       0.612804         142.027         83.5565 
       0.628434         137.988         79.3041 
       0.644267         131.354         75.3225 
       0.660051         127.228         71.6365 
       0.675724          125.51         68.2215 
       0.691403         122.679         65.0289 
       0.707174         118.822         62.0251 
       0.722871           116.4         59.2256 
        0.73838         113.349         56.6312 
       0.754018         106.898         54.1747 
       0.769845         106.318         51.8392 
        0.78569          103.25         49.6414 
       0.801365         100.523         47.5949 
       0.817031         97.1649         45.6674 
       0.832809         95.6497         43.8365 
       0.848511          93.389         42.1161 
       0.864097         91.9551         40.5018 
       0.879701         90.2958         38.9721 
       0.895507         86.9472         37.5049 
       0.911279         85.9923         36.1177 
        0.92691         83.1929         34.8135 
       0.942635         81.7566         33.5676 
       0.958396         81.3098         32.3812 
       0.974128         79.4303         31.2553 
       0.989692         77.7499         30.1951 
        1.00528         76.2684         29.1834 
        1.02113         74.6889         28.2029 
        1.03692         74.3102         27.2719 
        1.05264         72.8551          26.388 
        1.06832         70.8037         25.5453 
        1.08405         69.9053         24.7379 
        1.09979         69.5408         23.9654 
        1.11537         67.6741         23.2343 
        1.13105          66.132         22.5297 
        1.14679         65.4024         21.8522 
        1.16256         64.4492         21.2017 
        1.17828         63.6096         20.5803 
        1.19395         62.1443         19.9864 
         1.2097          62.091         19.4132 
        1.22537         60.7713         18.8657 
          1.241         59.8579         18.3413 
        1.25666         58.6599         17.8359 
        1.27241         58.4378         17.3475 
        1.28819         57.1331         16.8769 
        1.30392          56.607         16.4254 
        1.31957         56.0242         15.9927 
        1.33529         55.0348         15.5743 
        1.35108         54.0791         15.1694 
        1.36674         53.5956          14.782 
         1.3824         52.7025         14.4088 
        1.39811         51.8692         14.0474 
        1.41389         51.2101         13.6973 
        1.42964         50.7215         13.3598 
        1.44531         49.6434         13.0356 
        1.46101         49.4384         12.7216 
        1.47667         48.7919         12.4191 
        1.49229         48.0691         12.1273 
        1.50793          47.425         11.8448 
        1.52367         46.8299         11.5696 
        1.53953         46.4223         11.3014 
        1.55526         45.7875          11.044 
        1.57092         45.2265         10.7958 
        1.58662         44.5511         10.5548 
        1.60235         44.0813         10.3208 
        1.61809          43.508         10.0938 
        1.63369         43.0423         9.87584 
        1.64941         42.4679         9.66283 
        1.66519         41.8051         9.45543 
        1.68085         41.3372          9.2557 
        1.69652         40.8368         9.06176 
        1.71228         40.5873         8.87236 
        1.72806         39.8769         8.68831 
        1.74368          39.505         8.51142 
        1.75933         39.1223         8.33916 
        1.77505          38.856         8.17094 
        1.79081         38.2934         8.00714 
         1.8065         37.6287         7.84859 
        1.82218          37.247         7.69455 
        1.83797         36.9863         7.54364 
        1.85367         36.4256         7.39768 
        1.86928          36.445         7.25651 
        1.88497         35.6095         7.11831 
        1.90073         35.3735         6.98326 
        1.91647         35.1026         6.85188 
        1.93218         35.0353         6.72421 
        1.94787         34.4928         6.60003 
        1.96363         33.9519         6.47854 
        1.97935         33.5522         6.36041 
        1.99499         33.3622         6.24593 
        2.01064         32.8269         6.13414 
         2.0264         32.5042         6.02443 
        2.04216         32.3245         5.91749 
        2.05781         31.9518         5.81387 
        2.07353          31.651         5.71239 
        2.08928         31.1868         5.61315 
        2.10499         31.0284         5.51656 
        2.12065         30.6118         5.42257 
        2.13633         30.3716         5.33072 
        2.15211         29.8566         5.24044 
        2.16785         29.7249         5.15253 
        2.18349         29.3452         5.06722 
        2.19916         29.0864         4.98368 
        2.21489         28.7837         4.90178 
        2.23063         28.6348         4.82169 
         2.2463         28.2754         4.74378 
        2.26194         27.9792          4.6678 
        2.27765         27.6276         4.59313 
        2.29341         27.4108         4.51992 
        2.30914         27.1347         4.44847 
        2.32486         26.8975         4.37863 
        2.34061         26.6824          4.3102 
        2.35635         26.2804         4.24331 
        2.37203         26.1374         4.17809 
        2.38768         25.9202          4.1144 
        2.40339         25.7441         4.05182 
        2.41914         25.3575         3.99042 
        2.43483          25.225         3.93052 
         2.4505         24.7947         3.87197 
        2.46622         24.6417         3.81443 
        2.48195         24.3794         3.75807 
        2.49759         24.0336         3.70316 
        2.51328         23.9734         3.64923 
        2.52906         23.8135         3.59604 
        2.54479         23.5088         3.54412 
        2.56049         23.3603         3.49335 
        2.57618         23.2347         3.44363 
        2.59189         22.7631         3.39481 
        2.60758         22.6635         3.34703 
        2.62325         22.4148         3.30024 
        2.63898         22.2231         3.25419 
        2.65468         22.0294         3.20913 
        2.67044          21.753         3.16474 
        2.68618         21.6217         3.12131 
        2.70184         21.3658         3.07887 
        2.71755         21.2311         3.03713 
        2.73329         20.9689         2.99611 
        2.74897         20.8725         2.95599 
        2.76462         20.6476          2.9167 
        2.78034         20.3749         2.87798 
        2.79607         20.2525         2.83992 
        2.81179         20.0191         2.80261 
        2.82749         19.8668         2.76602 
        2.84321          19.716         2.73005 
        2.85893         19.4042         2.69474 
        2.87462         19.3523         2.66012 
        2.89033          19.168         2.62609 
        2.90605         18.9737         2.59263 
        2.92176         18.7597         2.55978 
        2.93747         18.5904         2.52752 
        2.95318         18.4998         2.49582 
        2.96891         18.2911         2.46465 
        2.98456         18.1827         2.43416 
        3.00023         17.9512         2.40415 
        3.01596         17.8182         2.37456 
        3.03164         17.6201         2.34556 
        3.04738         17.4991         2.31696 
         3.0631         17.3574         2.28886 
        3.07883         17.2382         2.26123 
        3.09456         17.0745         2.23406 
        3.11026         16.9597         2.20739 
        3.12596         16.7372         2.18116 
        3.14163         16.5847         2.15543 
        3.15734         16.4324         2.13005 
        3.17308         16.3311         2.10503 
        3.18879         16.1523         2.08048 
        3.20447         16.0316         2.05637 
         3.2202         15.9086         2.03257 
         3.2359         15.7515         2.00919 
        3.25157         15.6703         1.98624 
        3.26729         15.4775         1.96358 
        3.28304         15.3785         1.94124 
        3.29877         15.2701         1.91928 
        3.31446         15.1177         1.89771 
        3.33014          15.008         1.87649 
        3.34585         14.8151         1.85557 
        3.36158         14.7032         1.83495 
        3.37727         14.6077          1.8147 
        3.39294         14.4965         1.79478 
        3.40867         14.3005          1.7751 
        3.42439         14.2085         1.75572 
        3.44008         14.1475         1.73668 
        3.45578         13.9458          1.7179 
        3.47153         13.8545         1.69937 
        3.48724         13.7979         1.68115 
        3.50292         13.6611         1.66323 
        3.51859         13.5206          1.6456 
        3.53431         13.3807         1.62816 
        3.55007         13.3096         1.61094 
        3.56577         13.1686         1.59404 
        3.58146         13.0336         1.57739 
        3.59719         12.9562         1.56095 
        3.61292         12.8692         1.54474 
        3.62859         12.7391         1.52884 
        3.64429         12.6317         1.51312 
        3.66003         12.5397         1.49759 
        3.67578         12.4233         1.48228 
        3.69146         12.3515         1.46724 
        3.70712         12.2274         1.45244 
        3.72284         12.1611          1.4378 
        3.73853         12.0145         1.42338 
        3.75422         11.9292         1.40916 
        3.76993         11.8032         1.39513 
        3.78564         11.7261         1.38129 
        3.80137         11.6351         1.36762 
        3.81707         11.5467         1.35417 
        3.83279         11.4403         1.34089 
        3.84853         11.3845         1.32776 
        3.86424         11.2524         1.31485 
        3.87992         11.1986         1.30212 
        3.89561         11.0845         1.28956 
        3.91134         10.9876         1.27715 
        3.92704         10.9014         1.26492 
        3.94273         10.8037         1.25286 
        3.95845         10.7433         1.24094 
        3.97418         10.6423         1.22917 
        3.98988         10.5894         1.21757 
        4.00554          10.498         1.20616 
        4.02125         10.4103         1.19486 
        4.03698         10.3142         1.18369 
        4.05268         10.2369         1.17269 
        4.06839         10.1215         1.16182 
         4.0841         10.0411          1.1511 
        4.09983         9.99416          1.1405 
        4.11555         9.88234         1.13003 
        4.13124         9.81192         1.11973 
        4.14693         9.72554         1.10955 
        4.16266         9.66027         1.09948 
        4.17839         9.57049         1.08954 
        4.19408         9.51913         1.07974 
        4.20977         9.40487         1.07006 
        4.22551         9.34981         1.06048 
        4.24123         9.31539         1.05103 
        4.25691         9.22576         1.04172 
        4.27259         9.14078         1.03252 
        4.28831         9.06107         1.02342 
        4.30404         9.02153         1.01442 
        4.31974         8.93042         1.00555 
        4.33543         8.87807        0.996786 
        4.35116         8.77233         0.98811 
        4.36688         8.71978        0.979542 
        4.38255         8.65707        0.971109 
        4.39825         8.57628        0.962758 
        4.41398         8.52032         0.95449 
         4.4297         8.45544         0.94633 
        4.44541         8.40193        0.938267 
        4.46111         8.33064        0.930305 
        4.47683          8.2612        0.922431 
        4.49251         8.20722        0.914666 
        4.50819          8.1321        0.906993 
         4.5239         8.06759        0.899398 
        4.53962         8.00248        0.891881 
        4.55535         7.95708        0.884448 
        4.57106         7.89172        0.877112 
        4.58678         7.83679        0.869858 
         4.6025         7.76989        0.862685 
        4.61821         7.72138        0.855596 
        4.63391         7.65784        0.848596 
         4.6496         7.60511        0.841678 
        4.66532         7.53834        0.834828 
        4.68103         7.48836        0.828058 
        4.69673         7.41043        0.821371 
        4.71241         7.38445        0.814764 
        4.72811         7.32658        0.808221 
        4.74384         7.28081        0.801742 
        4.75955         7.22217        0.795344 
        4.77525         7.15524        0.789021 
        4.79096         7.11074         0.78276 
        4.80669          7.0546        0.776564 
         4.8224         7.01548        0.770444 
        4.83809         6.94461        0.764396 
        4.85379         6.88937        0.758411 
         4.8695         6.85326        0.752486 
        4.88521         6.80747        0.746627 
        4.90093         6.75156         0.74083 
        4.91663         6.70208        0.735101 
        4.93234         6.66638        0.729427 
        4.94807          6.5923         0.72381 
        4.96377         6.55749        0.718264 
        4.97943         6.50877        0.712788 
        4.99514         6.46416        0.707355 
        5.01086         6.42421        0.701976 
        5.02654         6.37352        0.696667 
        5.04227         6.32818        0.691398 
          5.058         6.27949        0.686182 
        5.07371         6.23134         0.68103 
        5.08942         6.18783        0.675932 
        5.10513         6.16267        0.670885 
        5.12084         6.11398        0.665888 
        5.13656          6.0486        0.660944 
        5.15225         6.02487        0.656059 
        5.16796          5.9786        0.651216 
        5.18369         5.92796        0.646418 
         5.1994         5.88065        0.641678 
        5.21509          5.8463         0.63699 
        5.23079         5.81898        0.632344 
        5.24649         5.77479        0.627748 
        5.26217         5.74233        0.623202 
        5.27788         5.68197        0.618695 
        5.29359         5.64849        0.614232 
        5.30933         5.62018        0.609808 
        5.32504         5.57178        0.605435 
        5.34073         5.54526         0.60111 
        5.35646          5.4906        0.596819 
        5.37218         5.45638         0.59257 
        5.38789         5.41601         0.58837 
        5.40357         5.38714        0.584215 
        5.41929         5.34596        0.580092 
        5.43502         5.29956        0.576009 
         5.4507         5.28698        0.571975 
        5.46639         5.24362         0.56798 
        5.48212         5.20701        0.564014 
        5.49786         5.17239        0.560082 
        5.51353         5.13999        0.556207 
        5.52921         5.10377        0.552365 
        5.54495         5.05839        0.548549 
        5.56066         5.02123        0.544773 
        5.57637         4.99089        0.541034 
        5.59207         4.96714        0.537334 
        5.60778          4.9277        0.533667 
        5.62346         4.89261         0.53004 
        5.63916         4.85793        0.526444 
        5.65487         4.83324        0.522879 
         5.6706         4.80643        0.519344 
        5.68633         4.77515        0.515841 
        5.70203         4.73501        0.512378 
        5.71773         4.70059        0.508947 
        5.73344         4.66972        0.505546 
        5.74916         4.64781        0.502174 
        5.76486         4.60661        0.498837 
        5.78054         4.60479        0.495536 
        5.79626         4.55228        0.492256 
          5.812         4.52733        0.489003 
         5.8277          4.5048        0.485789 
        5.84339         4.46295        0.482605 
        5.85911         4.43844        0.479443 
        5.87484         4.41523         0.47631 
        5.89053         4.38378        0.473212 
        5.90623         4.35818        0.470141 
        5.92195         4.32253        0.467091 
        5.93767          4.2994        0.464071 
        5.95336         4.26791        0.461083 
        5.96905         4.24515        0.458122 
        5.98476         4.22064        0.455184 
        6.00048         4.19439         0.45227 
        6.01617         4.16203        0.449387 
        6.03185         4.14442        0.446532 
        6.04756         4.10376        0.443696 
        6.06331         4.08135        0.440878 
        6.07903         4.05956        0.438091 
        6.09473          4.0389        0.435331 
        6.11044         4.01098        0.432593 
        6.12616         3.99175        0.429879 
        6.14186         3.95993        0.427191 
        6.15755         3.93237        0.424527 
        6.17326         3.91803        0.421884 
        6.18898         3.88477        0.419262 
        6.20467         3.86106        0.416667 
        6.22036         3.84543        0.414095 
         6.2361         3.82048        0.411538 
         6.2518         3.80244        0.409007 
        6.26748         3.76979        0.406503 
        6.28319         3.74253        0.404013 
        6.29893         3.72747        0.401542 
        6.31463         3.69954        0.399096 
        6.33033         3.68546        0.396672 
        6.34604         3.65821        0.394266 
        6.36177          3.6411        0.391879 
        6.37747         3.61483        0.389515 
