# k  (h/Mpc)    Pcb(k)  (Mpc/h)^3    Pcb_linear(k) (Mpc/h)^3   ShotnoiseSubtracted = true
      0.0200456         2570.73         2608.55 
      0.0350414          2019.8         1991.04 
      0.0492313         1500.79         1500.36 
      0.0637834         1264.54            1288 
      0.0800726         1017.61         1039.27 
       0.096163         777.999         763.868 
       0.111083         641.609         624.165 
       0.126058         557.417         563.596 
       0.142273         474.011         478.446 
       0.158546         386.061         380.528 
        0.17375         337.181         327.183 
       0.188953         307.468         300.135 
       0.204907         263.203         265.494 
       0.220756         232.666         225.424 
        0.23588         206.099         199.008 
         0.2514         188.215         182.889 
       0.267535         175.463         165.632 
       0.283568         154.378         146.399 
       0.299022         142.542         131.774 
       0.314451         135.944         121.545 
       0.330372         121.381         111.795 
       0.346141         111.603         101.676 
       0.361624         103.493         93.0246 
       0.377134         94.9752          86.218 
       0.392932         92.5417         80.0782 
       0.408854         85.1653         73.9978 
       0.424564         81.5745         68.5147 
       0.440253         74.6776         63.8775 
       0.455999         68.7616         59.7488 
       0.471626         65.4183         55.8727 
        0.48727         63.8359         52.2767 
       0.502856         59.5371         49.0778 
       0.518488         56.2905          46.195 
       0.534347         53.2271         43.4786 
       0.550082         51.3303         40.9697 
       0.565732         49.6094         38.6856 
       0.581496          46.661         36.5846 
       0.597222         44.3325         34.6417 
       0.612804         42.6324         32.8479 
       0.628434         41.8463         31.1761 
       0.644267         39.6738         29.6109 
       0.660051         37.8823         28.1619 
       0.675724         36.3024         26.8193 
       0.691403         35.7287         25.5643 
       0.707174          34.452         24.3834 
       0.722871         33.3213         23.2828 
        0.73838         31.6856         22.2629 
       0.754018         30.2288         21.2972 
       0.769845         29.5662         20.3791 
        0.78569         28.6295         19.5151 
       0.801365         27.7215         18.7106 
       0.817031         26.7847         17.9528 
       0.832809         26.1236         17.2331 
       0.848511         25.3402         16.5568 
       0.864097         24.5988         15.9221 
       0.879701         24.2342         15.3208 
       0.895507          23.371          14.744 
       0.911279         22.4862         14.1986 
        0.92691         22.1127         13.6859 
       0.942635         21.6549         13.1962 
       0.958396         20.9497         12.7298 
       0.974128         20.4566         12.2872 
       0.989692         19.6683         11.8704 
        1.00528         19.5522         11.4726 
        1.02113         18.9449         11.0872 
        1.03692          18.538         10.7212 
        1.05264          18.169         10.3737 
        1.06832         17.8114         10.0424 
        1.08405         17.3476         9.72499 
        1.09979         16.9787         9.42134 
        1.11537          16.588         9.13389 
        1.13105         16.3228         8.85693 
        1.14679         15.9603         8.59058 
        1.16256         15.6389         8.33486 
        1.17828         15.3601         8.09057 
        1.19395         15.1194         7.85707 
         1.2097         14.6568         7.63176 
        1.22537         14.4483         7.41652 
          1.241         14.1254         7.21038 
        1.25666         14.0656         7.01169 
        1.27241         13.7633         6.81969 
        1.28819         13.2484         6.63467 
        1.30392         13.2457         6.45718 
        1.31957         12.9529         6.28707 
        1.33529         12.7849         6.12258 
        1.35108         12.5504         5.96341 
        1.36674         12.2754         5.81114 
         1.3824         12.1445         5.66441 
        1.39811         11.9376         5.52235 
        1.41389         11.7008         5.38469 
        1.42964         11.5701         5.25204 
        1.44531         11.3627         5.12457 
        1.46101         11.2266         5.00114 
        1.47667         11.0305          4.8822 
        1.49229         10.8077         4.76752 
        1.50793         10.6885         4.65645 
        1.52367         10.5268         4.54825 
        1.53953         10.3296         4.44282 
        1.55526         10.2485         4.34164 
        1.57092         10.0958         4.24407 
        1.58662         9.94922         4.14931 
        1.60235         9.82162         4.05731 
        1.61809         9.70767          3.9681 
        1.63369         9.51483          3.8824 
        1.64941          9.4023         3.79867 
        1.66519         9.27248         3.71714 
        1.68085         9.13841         3.63861 
        1.69652         9.07245         3.56237 
        1.71228         8.96587         3.48792 
        1.72806         8.78967         3.41556 
        1.74368         8.73698         3.34602 
        1.75933         8.62591         3.27831 
        1.77505         8.45814         3.21217 
        1.79081         8.42138         3.14778 
         1.8065         8.34573         3.08545 
        1.82218         8.20302         3.02489 
        1.83797         8.08253         2.96557 
        1.85367          7.9861         2.90819 
        1.86928         7.94518         2.85269 
        1.88497         7.80392         2.79836 
        1.90073         7.72408         2.74527 
        1.91647         7.60354         2.69362 
        1.93218         7.54068         2.64343 
        1.94787          7.4429         2.59462 
        1.96363         7.38045         2.54686 
        1.97935         7.33903         2.50041 
        1.99499         7.23228         2.45541 
        2.01064         7.15938         2.41146 
         2.0264         7.07456         2.36833 
        2.04216         7.02354          2.3263 
        2.05781         6.92988         2.28556 
        2.07353         6.86781         2.24566 
        2.08928         6.73612         2.20665 
        2.10499         6.70329         2.16868 
        2.12065         6.71648         2.13173 
        2.13633         6.60374         2.09562 
        2.15211         6.50874         2.06013 
        2.16785         6.43758         2.02557 
        2.18349         6.41728         1.99203 
        2.19916         6.33639         1.95919 
        2.21489         6.26078           1.927 
        2.23063         6.20726         1.89551 
         2.2463          6.1493         1.86488 
        2.26194         6.07584         1.83502 
        2.27765         5.99863         1.80566 
        2.29341          5.9326         1.77688 
        2.30914         5.90676         1.74879 
        2.32486         5.85254         1.72134 
        2.34061         5.80082         1.69443 
        2.35635         5.74883         1.66814 
        2.37203         5.71368          1.6425 
        2.38768         5.67385         1.61746 
        2.40339         5.59532         1.59286 
        2.41914          5.5372         1.56872 
        2.43483         5.48203         1.54517 
         2.4505         5.45669         1.52215 
        2.46622         5.40013         1.49953 
        2.48195         5.37513         1.47738 
        2.49759         5.30131         1.45579 
        2.51328         5.25962         1.43459 
        2.52906         5.21211         1.41368 
        2.54479         5.17291         1.39327 
        2.56049         5.13273         1.37331 
        2.57618         5.08741         1.35376 
        2.59189         5.09096         1.33457 
        2.60758         5.02289         1.31579 
        2.62325         4.95265         1.29739 
        2.63898         4.92277         1.27929 
        2.65468         4.87978         1.26158 
        2.67044         4.86168         1.24413 
        2.68618         4.82377         1.22705 
        2.70184         4.78201         1.21037 
        2.71755         4.72515         1.19396 
        2.73329         4.70072         1.17784 
        2.74897         4.66268         1.16206 
        2.76462         4.61645         1.14662 
        2.78034          4.5986          1.1314 
        2.79607         4.54578         1.11644 
        2.81179          4.5101         1.10177 
        2.82749         4.46895         1.08738 
        2.84321         4.45501         1.07324 
        2.85893         4.40867         1.05936 
        2.87462         4.38205         1.04575 
        2.89033         4.36185         1.03237 
        2.90605         4.32208         1.01922 
        2.92176         4.27818          1.0063 
        2.93747         4.24557        0.993622 
        2.95318         4.21736         0.98116 
        2.96891         4.19854        0.968908 
        2.98456         4.16853        0.956922 
        3.00023         4.14478        0.945124 
        3.01596         4.10155        0.933492 
        3.03164         4.06341         0.92209 
        3.04738         4.04769        0.910849 
         3.0631         4.01997        0.899801 
        3.07883         3.99086        0.888938 
        3.09456         3.94661        0.878258 
        3.11026         3.92906        0.867773 
        3.12596         3.90725        0.857462 
        3.14163         3.87979        0.847345 
        3.15734         3.85038        0.837369 
        3.17308         3.82921        0.827533 
        3.18879          3.8056        0.817883 
        3.20447         3.76755        0.808403 
         3.2202         3.75505        0.799046 
         3.2359         3.73296        0.789855 
        3.25157         3.69779        0.780833 
        3.26729         3.67566        0.771926 
        3.28304         3.65094        0.763143 
        3.29877         3.62155        0.754509 
        3.31446         3.60216         0.74603 
        3.33014         3.57597         0.73769 
        3.34585         3.56417        0.729466 
        3.36158         3.52811        0.721357 
        3.37727         3.51786        0.713398 
        3.39294         3.48777        0.705569 
        3.40867         3.47132         0.69783 
        3.42439         3.43967        0.690213 
        3.44008         3.41722        0.682725 
        3.45578         3.40014        0.675345 
        3.47153         3.38282        0.668059 
        3.48724         3.36079        0.660895 
        3.50292         3.33629        0.653854 
        3.51859         3.32222         0.64692 
        3.53431         3.28696        0.640066 
        3.55007         3.28985        0.633296 
        3.56577         3.25482        0.626652 
        3.58146         3.24302        0.620107 
        3.59719         3.21888        0.613642 
        3.61292         3.20137        0.607273 
        3.62859         3.18051        0.601019 
        3.64429         3.15734        0.594842 
        3.66003         3.13849        0.588734 
        3.67578         3.12455        0.582715 
        3.69146         3.09214        0.576804 
        3.70712         3.07407        0.570987 
        3.72284         3.05979         0.56523 
        3.73853         3.05219        0.559563 
        3.75422         3.02679        0.553973 
        3.76993         3.00589        0.548455 
        3.78564         2.98949        0.543015 
        3.80137         2.96502        0.537642 
        3.81707         2.95155        0.532353 
        3.83279         2.94026        0.527132 
        3.84853         2.91911        0.521973 
        3.86424         2.89688        0.516894 
        3.87992         2.87826        0.511892 
        3.89561         2.85874        0.506956 
        3.91134         2.85273        0.502076 
        3.92704         2.82865        0.497266 
        3.94273         2.80906        0.492526 
        3.95845         2.79352        0.487839 
        3.97418         2.78526        0.483212 
        3.98988         2.76953        0.478653 
        4.00554         2.75293        0.474166 
        4.02125         2.72952        0.469724 
        4.03698         2.71635        0.465333 
        4.05268         2.69518        0.461009 
        4.06839         2.68244        0.456737 
         4.0841         2.66577        0.452522 
        4.09983         2.64307        0.448354 
        4.11555         2.63202        0.444241 
        4.13124         2.60961        0.440191 
        4.14693         2.59961         0.43619 
        4.16266         2.58451        0.432229 
        4.17839         2.56911        0.428321 
        4.19408         2.55011         0.42447 
        4.20977         2.53347        0.420666 
        4.22551         2.52645        0.416899 
        4.24123         2.50575        0.413184 
        4.25691         2.49235        0.409524 
        4.27259          2.4723        0.405908 
        4.28831          2.4682        0.402329 
        4.30404          2.4444         0.39879 
        4.31974         2.42814        0.395302 
        4.33543          2.4171        0.391858 
        4.35116         2.40901        0.388447 
        4.36688         2.39129        0.385079 
        4.38255         2.37497        0.381764 
        4.39825         2.36339        0.378481 
        4.41398         2.34721        0.375231 
         4.4297         2.33373        0.372023 
        4.44541         2.31717        0.368853 
        4.46111          2.3129        0.365723 
        4.47683         2.29804        0.362628 
        4.49251         2.28043        0.359575 
        4.50819         2.26997        0.356558 
         4.5239         2.25518        0.353573 
        4.53962         2.24318        0.350618 
        4.55535         2.23303        0.347696 
        4.57106         2.22141        0.344812 
        4.58678         2.20463         0.34196 
         4.6025          2.1951         0.33914 
        4.61821         2.18938        0.336353 
        4.63391         2.17008        0.333601 
         4.6496         2.16098        0.330882 
        4.66532         2.15079        0.328189 
        4.68103          2.1357        0.325528 
        4.69673         2.12592        0.322899 
        4.71241         2.11681        0.320302 
        4.72811         2.10751        0.317729 
        4.74384         2.09508        0.315182 
        4.75955         2.08806        0.312667 
        4.77525         2.07129        0.310181 
        4.79096         2.05856         0.30772 
        4.80669         2.05524        0.305284 
         4.8224         2.04518        0.302878 
        4.83809         2.03341        0.300501 
        4.85379         2.02256        0.298148 
         4.8695         2.00928        0.295818 
        4.88521         2.00322        0.293515 
        4.90093         1.99554        0.291236 
        4.91663         1.98127        0.288984 
        4.93234         1.97684        0.286754 
        4.94807         1.95957        0.284546 
        4.96377         1.95281        0.282365 
        4.97943         1.94224        0.280212 
        4.99514         1.93383        0.278077 
        5.01086          1.9223        0.275962 
        5.02654         1.91501        0.273875 
        5.04227         1.90804        0.271804 
          5.058          1.9001        0.269753 
        5.07371          1.8925        0.267728 
        5.08942         1.88264        0.265723 
        5.10513         1.87006        0.263739 
        5.12084         1.86007        0.261775 
        5.13656         1.85285        0.259831 
        5.15225         1.84494        0.257911 
        5.16796         1.83656        0.256007 
        5.18369          1.8281        0.254121 
         5.1994         1.82239        0.252257 
        5.21509          1.8117        0.250414 
        5.23079          1.8052        0.248588 
        5.24649         1.79502        0.246781 
        5.26217         1.78967        0.244994 
        5.27788         1.77741        0.243222 
        5.29359         1.76979        0.241468 
        5.30933         1.76446        0.239729 
        5.32504         1.75392         0.23801 
        5.34073         1.74758        0.236309 
        5.35646           1.738        0.234623 
        5.37218         1.73284        0.232952 
        5.38789         1.72401        0.231301 
        5.40357          1.7184        0.229668 
        5.41929         1.71275        0.228047 
        5.43502         1.70215        0.226442 
         5.4507         1.69418        0.224856 
        5.46639           1.689        0.223285 
        5.48212          1.6809        0.221726 
        5.49786         1.67363         0.22018 
        5.51353         1.66616        0.218657 
        5.52921         1.65768        0.217147 
        5.54495         1.65278        0.215646 
        5.56066         1.64539        0.214162 
        5.57637          1.6387        0.212692 
        5.59207         1.63074        0.211238 
        5.60778         1.62458        0.209796 
        5.62346         1.61686         0.20837 
        5.63916         1.61444        0.206956 
        5.65487         1.60253        0.205555 
         5.6706         1.59849        0.204165 
        5.68633         1.58809        0.202788 
        5.70203         1.58995        0.201427 
        5.71773         1.57758        0.200078 
        5.73344          1.5726        0.198741 
        5.74916         1.56891        0.197415 
        5.76486         1.55647        0.196104 
        5.78054         1.55406        0.194806 
        5.79626         1.54813        0.193517 
          5.812         1.54137        0.192238 
         5.8277         1.53491        0.190974 
        5.84339         1.53163        0.189722 
        5.85911         1.52231        0.188479 
        5.87484         1.51736        0.187248 
        5.89053         1.50984         0.18603 
        5.90623         1.50734        0.184822 
        5.92195          1.5004        0.183624 
        5.93767         1.49335        0.182436 
        5.95336          1.4859        0.181262 
        5.96905         1.48052        0.180098 
        5.98476         1.47546        0.178943 
        6.00048         1.47008        0.177797 
        6.01617         1.46308        0.176664 
        6.03185          1.4597        0.175541 
        6.04756         1.45502        0.174426 
        6.06331         1.44969        0.173319 
        6.07903         1.44422        0.172223 
        6.09473          1.4368        0.171138 
        6.11044         1.43197        0.170062 
        6.12616         1.42538        0.168995 
        6.14186         1.42088        0.167938 
        6.15755         1.41266        0.166891 
        6.17326         1.41212        0.165852 
        6.18898         1.40543        0.164821 
        6.20467         1.40111        0.163801 
        6.22036         1.39497         0.16279 
         6.2361         1.39197        0.161784 
         6.2518         1.38745        0.160789 
        6.26748            1.38        0.159805 
        6.28319         1.37764        0.158826 
        6.29893         1.37055        0.157855 
        6.31463         1.36563        0.156893 
        6.33033          1.3613         0.15594 
        6.34604         1.35706        0.154995 
        6.36177          1.3512        0.154056 
        6.37747         1.34725        0.153127 
