# k  (h/Mpc)    Pcb(k)  (Mpc/h)^3    Pcb_linear(k) (Mpc/h)^3   ShotnoiseSubtracted = true
      0.0200456         9004.32         9192.81 
      0.0350414         6815.49         7016.63 
      0.0492313         5235.21         5287.42 
      0.0637834         4593.54         4539.03 
      0.0800726         3692.75         3662.48 
       0.096163         2622.27         2691.95 
       0.111083         2122.84         2199.62 
       0.126058         1986.37         1986.17 
       0.142273         1715.04         1686.09 
       0.158546         1432.76         1341.02 
        0.17375         1171.09         1153.02 
       0.188953         1134.49         1057.71 
       0.204907         1067.16         935.627 
       0.220756         907.523         794.417 
        0.23588         803.536         701.324 
         0.2514         709.242         644.521 
       0.267535         688.532         583.705 
       0.283568          626.66         515.923 
       0.299022         584.001         464.383 
       0.314451         548.097         428.335 
       0.330372         507.796         393.978 
       0.346141         462.101         358.318 
       0.361624         443.861         327.828 
       0.377134          416.05         303.841 
       0.392932         392.688         282.204 
       0.408854         377.782         260.776 
       0.424564          361.29         241.453 
       0.440253         347.166         225.111 
       0.455999         327.703         210.561 
       0.471626         304.302         196.901 
        0.48727         297.767         184.228 
       0.502856         287.504         172.955 
       0.518488         283.653         162.796 
       0.534347         268.045         153.223 
       0.550082         251.641         144.381 
       0.565732         247.757         136.332 
       0.581496         235.906         128.928 
       0.597222         229.831         122.081 
       0.612804         221.036         115.759 
       0.628434         214.846         109.868 
       0.644267         207.753         104.352 
       0.660051         205.196         99.2453 
       0.675724         200.919          94.514 
       0.691403         195.131          90.091 
       0.707174         186.774         85.9296 
       0.722871         185.182         82.0511 
        0.73838         181.514         78.4568 
       0.754018         175.267         75.0536 
       0.769845         171.215          71.818 
        0.78569         168.264         68.7732 
       0.801365         164.076          65.938 
       0.817031         158.514         63.2676 
       0.832809         156.061         60.7311 
       0.848511         152.382         58.3477 
       0.864097         149.117         56.1112 
       0.879701         146.536          53.992 
       0.895507         142.715         51.9593 
       0.911279         140.909         50.0374 
        0.92691         138.439         48.2306 
       0.942635         135.636         46.5046 
       0.958396         135.154         44.8609 
       0.974128         131.197         43.3011 
       0.989692         127.877         41.8323 
        1.00528         125.629         40.4306 
        1.02113          124.49         39.0723 
        1.03692         120.078         37.7825 
        1.05264          119.67         36.5579 
        1.06832         116.874         35.3905 
        1.08405         115.331         34.2718 
        1.09979         114.549         33.2017 
        1.11537         110.844         32.1887 
        1.13105          110.81         31.2127 
        1.14679         109.475         30.2741 
        1.16256         107.655         29.3729 
        1.17828         104.757          28.512 
        1.19395          104.06         27.6891 
         1.2097         101.313         26.8951 
        1.22537         101.407         26.1366 
          1.241         98.9671         25.4101 
        1.25666         97.1335         24.7099 
        1.27241         96.0885         24.0333 
        1.28819         94.5701         23.3812 
        1.30392         93.2504         22.7557 
        1.31957         91.8869         22.1563 
        1.33529         90.5036         21.5766 
        1.35108         89.6879         21.0157 
        1.36674         88.5585          20.479 
         1.3824         86.9111          19.962 
        1.39811         86.0841         19.4613 
        1.41389         84.7306         18.9762 
        1.42964         83.8022         18.5087 
        1.44531         82.0959         18.0595 
        1.46101         81.0013         17.6245 
        1.47667         80.6585         17.2054 
        1.49229         79.1342         16.8012 
        1.50793         78.4226         16.4098 
        1.52367         77.4034         16.0285 
        1.53953         76.4211          15.657 
        1.55526          75.551         15.3004 
        1.57092         75.1856         14.9565 
        1.58662         73.7148         14.6226 
        1.60235         73.1068         14.2984 
        1.61809         72.0009          13.984 
        1.63369         70.6848          13.682 
        1.64941         70.0434         13.3869 
        1.66519         68.9976         13.0996 
        1.68085         68.2704         12.8228 
        1.69652         67.2938         12.5542 
        1.71228         66.6931         12.2918 
        1.72806         66.1985         12.0368 
        1.74368         65.2084         11.7917 
        1.75933         64.5982         11.5531 
        1.77505         63.8654           11.32 
        1.79081         62.8681         11.0931 
         1.8065         62.3928         10.8734 
        1.82218         61.4003           10.66 
        1.83797         60.8541          10.451 
        1.85367         59.9243         10.2487 
        1.86928         59.4984         10.0532 
        1.88497         58.7269         9.86171 
        1.90073         58.1912         9.67461 
        1.91647         57.6097          9.4926 
        1.93218         56.6573         9.31572 
        1.94787          56.256         9.14369 
        1.96363         55.4347         8.97537 
        1.97935         54.9759         8.81171 
        1.99499         54.1545         8.65311 
        2.01064         53.9798         8.49824 
         2.0264         52.8194         8.34625 
        2.04216         52.3353          8.1981 
        2.05781         51.6724         8.05453 
        2.07353         51.1039         7.91394 
        2.08928         50.6076         7.77645 
        2.10499         50.1851         7.64264 
        2.12065         49.6286         7.51243 
        2.13633         49.4194         7.38518 
        2.15211         48.6583          7.2601 
        2.16785          47.748         7.13831 
        2.18349         47.4353         7.02012 
        2.19916         47.0662         6.90439 
        2.21489         46.4379         6.79093 
        2.23063         45.8508         6.67997 
         2.2463         45.3532         6.57203 
        2.26194         44.6834         6.46678 
        2.27765         44.2209         6.36332 
        2.29341         43.7923         6.26189 
        2.30914         43.3024         6.16291 
        2.32486         42.7939         6.06616 
        2.34061         42.4344         5.97135 
        2.35635         41.9517         5.87868 
        2.37203         41.5221         5.78833 
        2.38768         41.0597         5.70009 
        2.40339          40.772         5.61339 
        2.41914          40.382         5.52832 
        2.43483         39.6512         5.44534 
         2.4505         39.3806         5.36423 
        2.46622          39.075         5.28451 
        2.48195         38.7069         5.20643 
        2.49759           38.15         5.13036 
        2.51328         37.6132         5.05564 
        2.52906         37.5125         4.98195 
        2.54479         36.9164         4.91003 
        2.56049         36.5555         4.83968 
        2.57618         36.1124          4.7708 
        2.59189         35.8846         4.70317 
        2.60758         35.5533         4.63697 
        2.62325         35.0803         4.57215 
        2.63898         34.8354         4.50835 
        2.65468         34.3173         4.44593 
        2.67044         34.0715         4.38443 
        2.68618         33.6791         4.32426 
        2.70184         33.2956         4.26547 
        2.71755         33.1301         4.20764 
        2.73329         32.7231         4.15081 
        2.74897         32.3242         4.09523 
        2.76462         32.0083          4.0408 
        2.78034         31.7122         3.98715 
        2.79607         31.3651         3.93443 
        2.81179         31.2018         3.88274 
        2.82749         30.8527         3.83205 
        2.84321         30.3971         3.78221 
        2.85893         30.1358         3.73329 
        2.87462         29.8447         3.68533 
        2.89033         29.6318         3.63818 
        2.90605         29.3658         3.59183 
        2.92176         29.1282         3.54631 
        2.93747         28.7072         3.50162 
        2.95318         28.3432          3.4577 
        2.96891         28.2208         3.41453 
        2.98456         27.7661         3.37229 
        3.00023         27.6505         3.33071 
        3.01596         27.2917         3.28972 
        3.03164         27.0084         3.24954 
        3.04738         26.8893         3.20992 
         3.0631         26.5594         3.17099 
        3.07883         26.2848         3.13271 
        3.09456         25.9849         3.09507 
        3.11026         25.7311         3.05812 
        3.12596           25.54         3.02178 
        3.14163         25.3241         2.98613 
        3.15734         25.0402         2.95097 
        3.17308          24.842         2.91631 
        3.18879         24.5541          2.8823 
        3.20447         24.3368         2.84889 
         3.2202         24.0644         2.81592 
         3.2359         23.8089         2.78353 
        3.25157         23.7877         2.75173 
        3.26729         23.5224         2.72035 
        3.28304         23.2436         2.68939 
        3.29877         22.9117         2.65897 
        3.31446         22.8588         2.62908 
        3.33014         22.5672         2.59969 
        3.34585         22.2981         2.57071 
        3.36158         22.2162         2.54214 
        3.37727         21.8935         2.51409 
        3.39294         21.7296         2.48649 
        3.40867         21.6113         2.45922 
        3.42439         21.3107         2.43238 
        3.44008         21.0882         2.40599 
        3.45578          20.879         2.37998 
        3.47153         20.7359         2.35431 
        3.48724         20.5064         2.32906 
        3.50292         20.3433         2.30425 
        3.51859         20.1601         2.27981 
        3.53431         20.0027         2.25566 
        3.55007         19.7954          2.2318 
        3.56577         19.6093         2.20838 
        3.58146         19.4566         2.18532 
        3.59719         19.2315         2.16254 
        3.61292         19.0435         2.14009 
        3.62859         18.9044         2.11805 
        3.64429         18.7407         2.09628 
        3.66003         18.5943         2.07476 
        3.67578         18.4105         2.05355 
        3.69146         18.2153         2.03272 
        3.70712         18.0462         2.01222 
        3.72284         17.9875         1.99193 
        3.73853         17.8159         1.97196 
        3.75422         17.5468         1.95225 
        3.76993         17.3943         1.93281 
        3.78564         17.2693         1.91364 
        3.80137         17.1238          1.8947 
        3.81707         16.9623         1.87606 
        3.83279         16.7708         1.85766 
        3.84853         16.6637         1.83948 
        3.86424         16.5298         1.82159 
        3.87992         16.3552         1.80396 
        3.89561          16.247         1.78656 
        3.91134         16.0716         1.76937 
        3.92704          15.916         1.75242 
        3.94273          15.816         1.73571 
        3.95845         15.6667         1.71919 
        3.97418         15.5473         1.70289 
        3.98988         15.4033         1.68682 
        4.00554         15.2619         1.67101 
        4.02125         15.1001         1.65536 
        4.03698         15.0596         1.63988 
        4.05268         14.8611         1.62464 
        4.06839         14.7247         1.60959 
         4.0841         14.6249         1.59473 
        4.09983         14.4933         1.58004 
        4.11555         14.3126         1.56555 
        4.13124         14.2385         1.55128 
        4.14693         14.1101         1.53718 
        4.16266          14.015         1.52322 
        4.17839         13.8726         1.50945 
        4.19408         13.7499         1.49587 
        4.20977         13.6681         1.48247 
        4.22551         13.5355         1.46919 
        4.24123         13.4362          1.4561 
        4.25691         13.2586          1.4432 
        4.27259         13.1764         1.43046 
        4.28831          13.081         1.41785 
        4.30404         12.9603         1.40538 
        4.31974         12.8325         1.39308 
        4.33543         12.7479         1.38095 
        4.35116         12.6321         1.36893 
        4.36688         12.5055         1.35706 
        4.38255         12.4475         1.34537 
        4.39825         12.3404         1.33381 
        4.41398          12.285         1.32235 
         4.4297         12.1278         1.31104 
        4.44541         11.9888         1.29987 
        4.46111         11.9338         1.28884 
        4.47683         11.8342         1.27794 
        4.49251         11.7409         1.26718 
        4.50819         11.6614         1.25655 
         4.5239         11.5883         1.24603 
        4.53962         11.4452         1.23561 
        4.55535          11.374         1.22531 
        4.57106         11.2607         1.21515 
        4.58678         11.1732          1.2051 
         4.6025         11.1058         1.19516 
        4.61821         10.9929         1.18534 
        4.63391         10.9087         1.17564 
         4.6496         10.8406         1.16606 
        4.66532         10.7477         1.15657 
        4.68103         10.6573         1.14719 
        4.69673         10.5724         1.13793 
        4.71241         10.4544         1.12877 
        4.72811         10.3804         1.11971 
        4.74384         10.3121         1.11073 
        4.75955         10.2354         1.10187 
        4.77525         10.1459         1.09311 
        4.79096         10.1001         1.08444 
        4.80669         9.99747         1.07585 
         4.8224         9.94438         1.06737 
        4.83809         9.84882         1.05899 
        4.85379         9.74825          1.0507 
         4.8695         9.71791         1.04249 
        4.88521         9.62763         1.03438 
        4.90093          9.5361         1.02635 
        4.91663         9.46199         1.01841 
        4.93234          9.4048         1.01055 
        4.94807         9.33421         1.00277 
        4.96377         9.25234        0.995083 
        4.97943         9.17523        0.987496 
        4.99514         9.11131         0.97997 
        5.01086         9.04612        0.972518 
        5.02654         8.97897        0.965163 
        5.04227         8.92043        0.957863 
          5.058         8.82623        0.950636 
        5.07371         8.79032          0.9435 
        5.08942         8.71327        0.936436 
        5.10513         8.65284        0.929444 
        5.12084         8.59246        0.922522 
        5.13656         8.51597        0.915672 
        5.15225         8.44656        0.908904 
        5.16796         8.38495        0.902194 
        5.18369         8.33732        0.895547 
         5.1994         8.26252         0.88898 
        5.21509         8.19293        0.882486 
        5.23079         8.14232        0.876049 
        5.24649         8.07984        0.869682 
        5.26217         8.02471        0.863384 
        5.27788         7.95489         0.85714 
        5.29359         7.90082        0.850958 
        5.30933         7.85886        0.844828 
        5.32504         7.80895        0.838769 
        5.34073         7.72172        0.832778 
        5.35646         7.69294        0.826833 
        5.37218         7.62196        0.820947 
        5.38789         7.57585        0.815127 
        5.40357         7.53181        0.809372 
        5.41929         7.46748         0.80366 
        5.43502         7.41024        0.798003 
         5.4507          7.3586        0.792414 
        5.46639         7.30371        0.786879 
        5.48212          7.2535        0.781385 
        5.49786         7.22659        0.775937 
        5.51353         7.14546        0.770569 
        5.52921         7.11323        0.765247 
        5.54495         7.03844         0.75996 
        5.56066         6.99591        0.754729 
        5.57637         6.94197        0.749549 
        5.59207         6.91172        0.744422 
        5.60778         6.83416        0.739342 
        5.62346         6.79542        0.734318 
        5.63916         6.75816        0.729335 
        5.65487         6.71355        0.724397 
         5.6706         6.66919          0.7195 
        5.68633         6.62003        0.714646 
        5.70203         6.57687        0.709848 
        5.71773         6.53961        0.705095 
        5.73344         6.48798        0.700384 
        5.74916         6.44318        0.695712 
        5.76486         6.41272        0.691089 
        5.78054         6.35946        0.686516 
        5.79626         6.31602        0.681972 
          5.812         6.26596        0.677465 
         5.8277         6.22176        0.673013 
        5.84339         6.18661        0.668601 
        5.85911         6.14028         0.66422 
        5.87484         6.10251         0.65988 
        5.89053         6.05005        0.655588 
        5.90623         6.02147        0.651333 
        5.92195         5.98567        0.647108 
        5.93767         5.93856        0.642924 
        5.95336         5.88666        0.638784 
        5.96905         5.86687        0.634682 
        5.98476         5.82919        0.630611 
        6.00048         5.78139        0.626575 
        6.01617         5.74364         0.62258 
        6.03185         5.71096        0.618626 
        6.04756         5.67937        0.614696 
        6.06331         5.62541        0.610793 
        6.07903         5.60134        0.606932 
        6.09473         5.56213        0.603108 
        6.11044         5.52447        0.599315 
        6.12616         5.48777        0.595555 
        6.14186         5.44927        0.591831 
        6.15755          5.4201         0.58814 
        6.17326         5.37339        0.584478 
        6.18898         5.34743        0.580845 
        6.20467         5.30982        0.577251 
        6.22036         5.27496        0.573687 
         6.2361         5.24446        0.570144 
         6.2518         5.21696        0.566638 
        6.26748         5.17142        0.563169 
        6.28319         5.14098        0.559719 
        6.29893         5.11823        0.556296 
        6.31463         5.08241        0.552908 
        6.33033         5.04383        0.549549 
        6.34604         5.01634        0.546217 
        6.36177         4.98553        0.542909 
        6.37747         4.96126        0.539634 
