# k  (h/Mpc)    Pcb(k)  (Mpc/h)^3    Pcb_linear(k) (Mpc/h)^3   ShotnoiseSubtracted = true
      0.0200456         751.942         763.898 
      0.0350414         580.054         583.064 
      0.0492313         440.624          439.37 
      0.0637834         379.134         377.181 
      0.0800726         305.729         304.342 
       0.096163         223.272         223.694 
       0.111083         181.421         182.782 
       0.126058         165.281         165.045 
       0.142273         141.019          140.11 
       0.158546          112.77         111.435 
        0.17375         95.5235         95.8133 
       0.188953         88.4222         87.8927 
       0.204907         80.1891         77.7481 
       0.220756         67.3342         66.0139 
        0.23588         59.4022         58.2781 
         0.2514         54.0162          53.558 
       0.267535         49.2462         48.5043 
       0.283568         43.8742         42.8718 
       0.299022         39.7833          38.589 
       0.314451         36.0092         35.5935 
       0.330372         33.4555         32.7385 
       0.346141         30.4801         29.7753 
       0.361624         28.1281         27.2416 
       0.377134          26.348         25.2484 
       0.392932         23.6421         23.4504 
       0.408854         22.5925         21.6698 
       0.424564         20.9367         20.0641 
       0.440253         19.4466         18.7061 
       0.455999         18.3845          17.497 
       0.471626         17.3093         16.3619 
        0.48727         16.1884         15.3089 
       0.502856         15.1367         14.3721 
       0.518488         14.4963         13.5279 
       0.534347         13.8282         12.7324 
       0.550082         12.7086         11.9977 
       0.565732         11.7904         11.3288 
       0.581496          11.534         10.7135 
       0.597222         11.0473         10.1446 
       0.612804         10.3317         9.61928 
       0.628434         9.97137         9.12973 
       0.644267         9.51494         8.67136 
       0.660051         9.00116         8.24702 
       0.675724         8.58616         7.85386 
       0.691403         8.29034         7.48632 
       0.707174         7.87714         7.14052 
       0.722871         7.54869         6.81823 
        0.73838         7.28228         6.51955 
       0.754018         7.04379         6.23676 
       0.769845          6.6882         5.96788 
        0.78569         6.47133         5.71487 
       0.801365         6.19933         5.47927 
       0.817031         6.00223         5.25737 
       0.832809         5.78939         5.04659 
       0.848511         5.48872         4.84854 
       0.864097         5.29174         4.66269 
       0.879701          5.1204         4.48659 
       0.895507          4.9297         4.31768 
       0.911279         4.84586         4.15798 
        0.92691         4.66446         4.00783 
       0.942635         4.47345         3.86441 
       0.958396         4.31837         3.72782 
       0.974128         4.20132         3.59821 
       0.989692         4.11954         3.47615 
        1.00528         3.94506         3.35968 
        1.02113         3.80196          3.2468 
        1.03692         3.74448         3.13963 
        1.05264         3.61067         3.03787 
        1.06832         3.52617         2.94086 
        1.08405         3.36342          2.8479 
        1.09979         3.29738         2.75898 
        1.11537         3.22029          2.6748 
        1.13105         3.14397         2.59369 
        1.14679         3.05953         2.51569 
        1.16256         2.96008         2.44081 
        1.17828          2.8961         2.36927 
        1.19395          2.8196         2.30089 
         1.2097         2.70126         2.23491 
        1.22537         2.65476         2.17188 
          1.241         2.60037         2.11151 
        1.25666         2.57669         2.05333 
        1.27241         2.46323          1.9971 
        1.28819         2.40754         1.94292 
        1.30392          2.3718         1.89094 
        1.31957         2.31545         1.84113 
        1.33529         2.24908         1.79296 
        1.35108         2.20075         1.74635 
        1.36674         2.13448         1.70175 
         1.3824          2.0913         1.65879 
        1.39811         2.04483         1.61718 
        1.41389         2.01092         1.57687 
        1.42964         1.96837         1.53802 
        1.44531         1.92351          1.5007 
        1.46101         1.89269         1.46455 
        1.47667         1.82165         1.42972 
        1.49229         1.81047         1.39614 
        1.50793         1.76436         1.36361 
        1.52367         1.73931         1.33193 
        1.53953         1.68367         1.30105 
        1.55526         1.65464         1.27142 
        1.57092          1.6245         1.24285 
        1.58662         1.59891          1.2151 
        1.60235         1.56432         1.18816 
        1.61809         1.52804         1.16203 
        1.63369          1.5166         1.13694 
        1.64941         1.47482         1.11241 
        1.66519         1.45258         1.08854 
        1.68085         1.40926         1.06554 
        1.69652         1.38997         1.04322 
        1.71228         1.37403         1.02141 
        1.72806         1.33614         1.00023 
        1.74368         1.32333         0.97986 
        1.75933         1.29183         0.96003 
        1.77505         1.27353        0.940664 
        1.79081         1.25105        0.921806 
         1.8065         1.22161        0.903554 
        1.82218         1.21006         0.88582 
        1.83797         1.18925        0.868447 
        1.85367         1.17903        0.851643 
        1.86928         1.15516        0.835392 
        1.88497         1.12891        0.819482 
        1.90073         1.10781        0.803934 
        1.91647         1.10109         0.78881 
        1.93218         1.07534        0.774112 
        1.94787         1.05743        0.759816 
        1.96363         1.04099         0.74583 
        1.97935         1.02227         0.73223 
        1.99499          1.0067         0.71905 
        2.01064        0.991809        0.706181 
         2.0264        0.978491        0.693551 
        2.04216        0.965007         0.68124 
        2.05781        0.949255         0.66931 
        2.07353        0.934319        0.657628 
        2.08928        0.915491        0.646203 
        2.10499        0.905463        0.635083 
        2.12065        0.899434        0.624263 
        2.13633        0.882035        0.613689 
        2.15211        0.865317        0.603295 
        2.16785        0.852714        0.593175 
        2.18349        0.841398        0.583353 
        2.19916         0.83143        0.573737 
        2.21489        0.816239        0.564308 
        2.23063        0.806103        0.555088 
         2.2463        0.800627        0.546118 
        2.26194        0.777563        0.537372 
        2.27765        0.771485        0.528775 
        2.29341        0.765075        0.520346 
        2.30914        0.758239        0.512122 
        2.32486        0.742758        0.504082 
        2.34061        0.732093        0.496203 
        2.35635        0.720362        0.488503 
        2.37203        0.713344        0.480995 
        2.38768        0.704321        0.473662 
        2.40339        0.696409        0.466458 
        2.41914        0.686871        0.459389 
        2.43483        0.677477        0.452493 
         2.4505        0.667508        0.445753 
        2.46622        0.659638        0.439129 
        2.48195        0.655559         0.43264 
        2.49759        0.645423        0.426319 
        2.51328        0.634056         0.42011 
        2.52906        0.629372        0.413987 
        2.54479        0.620558         0.40801 
        2.56049        0.609886        0.402165 
        2.57618        0.605457        0.396441 
        2.59189        0.599208        0.390821 
        2.60758        0.592558         0.38532 
        2.62325        0.583448        0.379933 
        2.63898        0.578946        0.374632 
        2.65468        0.569479        0.369445 
        2.67044        0.563308        0.364335 
        2.68618        0.557087        0.359334 
        2.70184        0.551291        0.354449 
        2.71755        0.543213        0.349644 
        2.73329        0.537507        0.344921 
        2.74897        0.532638        0.340302 
        2.76462        0.526472         0.33578 
        2.78034        0.519441        0.331322 
        2.79607        0.515201        0.326941 
        2.81179        0.508074        0.322645 
        2.82749        0.503587        0.318433 
        2.84321        0.498804        0.314292 
        2.85893        0.492541        0.310227 
        2.87462        0.487075        0.306241 
        2.89033        0.481204        0.302323 
        2.90605        0.477881        0.298471 
        2.92176        0.471698        0.294689 
        2.93747         0.46631        0.290976 
        2.95318         0.46158        0.287326 
        2.96891        0.457629        0.283738 
        2.98456        0.452525        0.280228 
        3.00023         0.44919        0.276773 
        3.01596         0.44297        0.273367 
        3.03164        0.439026        0.270028 
        3.04738        0.432542        0.266736 
         3.0631        0.430855        0.263501 
        3.07883        0.424554        0.260319 
        3.09456         0.42035        0.257192 
        3.11026        0.418189        0.254122 
        3.12596        0.412083        0.251102 
        3.14163        0.409558        0.248139 
        3.15734        0.406479        0.245218 
        3.17308        0.402163        0.242337 
        3.18879         0.39885        0.239512 
        3.20447        0.392213        0.236735 
         3.2202        0.391398        0.233995 
         3.2359          0.3868        0.231304 
        3.25157        0.383487        0.228662 
        3.26729        0.380062        0.226053 
        3.28304        0.377109        0.223481 
        3.29877        0.372743        0.220953 
        3.31446        0.369844         0.21847 
        3.33014        0.366686        0.216028 
        3.34585        0.365454        0.213619 
        3.36158        0.360688        0.211245 
        3.37727        0.358276        0.208914 
        3.39294        0.354481        0.206621 
        3.40867        0.351213        0.204355 
        3.42439        0.349124        0.202124 
        3.44008        0.345927        0.199932 
        3.45578        0.344435         0.19777 
        3.47153        0.340876        0.195637 
        3.48724        0.338781        0.193539 
        3.50292        0.336013        0.191477 
        3.51859        0.331849        0.189446 
        3.53431        0.329588        0.187439 
        3.55007        0.327936        0.185457 
        3.56577        0.323987        0.183511 
        3.58146        0.321563        0.181594 
        3.59719        0.319403        0.179701 
        3.61292        0.317966        0.177836 
        3.62859        0.314338        0.176004 
        3.64429        0.311892        0.174195 
        3.66003        0.309574        0.172407 
        3.67578        0.307685        0.170644 
        3.69146        0.304998        0.168913 
        3.70712        0.303384         0.16721 
        3.72284        0.300646        0.165524 
        3.73853         0.29934        0.163864 
        3.75422         0.29656        0.162227 
        3.76993        0.294521        0.160611 
        3.78564        0.291918        0.159018 
        3.80137        0.290076        0.157445 
        3.81707        0.288343        0.155896 
        3.83279        0.285719        0.154367 
        3.84853        0.283302        0.152856 
        3.86424        0.281688        0.151369 
        3.87992        0.280129        0.149904 
        3.89561        0.277278        0.148459 
        3.91134        0.276299         0.14703 
        3.92704        0.273435        0.145621 
        3.94273        0.270772        0.144233 
        3.95845        0.269488         0.14286 
        3.97418        0.268166        0.141506 
        3.98988        0.265256         0.14017 
        4.00554        0.263743        0.138856 
        4.02125        0.261812        0.137556 
        4.03698        0.258396         0.13627 
        4.05268        0.257138        0.135003 
        4.06839        0.253786        0.133752 
         4.0841        0.250999        0.132518 
        4.09983        0.248663        0.131297 
        4.11555        0.246371        0.130093 
        4.13124        0.243211        0.128907 
        4.14693         0.24189        0.127735 
        4.16266        0.239253        0.126575 
        4.17839        0.237286        0.125431 
        4.19408        0.235169        0.124303 
        4.20977        0.233552        0.123189 
        4.22551        0.231474        0.122086 
        4.24123         0.22963        0.120998 
        4.25691        0.227551        0.119926 
        4.27259        0.225634        0.118867 
        4.28831        0.223936        0.117819 
        4.30404        0.221953        0.116783 
        4.31974        0.221378        0.115761 
        4.33543        0.219149        0.114753 
        4.35116        0.217174        0.113754 
        4.36688        0.216071        0.112768 
        4.38255        0.214258        0.111797 
        4.39825        0.213613        0.110836 
        4.41398         0.21182        0.109884 
         4.4297         0.21078        0.108944 
        4.44541        0.209591        0.108016 
        4.46111        0.208065          0.1071 
        4.47683        0.207519        0.106193 
        4.49251        0.205886        0.105299 
        4.50819        0.204867        0.104416 
         4.5239        0.204029        0.103541 
        4.53962        0.203383        0.102676 
        4.55535        0.202019         0.10182 
        4.57106        0.201618        0.100976 
        4.58678         0.20045        0.100141 
         4.6025        0.199757        0.099315 
        4.61821        0.199145       0.0984988 
        4.63391        0.198409        0.097693 
         4.6496        0.197833       0.0968966 
        4.66532        0.197574        0.096108 
        4.68103        0.197006       0.0953286 
        4.69673        0.196002       0.0945587 
        4.71241        0.196133       0.0937982 
        4.72811        0.195266       0.0930449 
        4.74384        0.195106        0.092299 
        4.75955        0.195152       0.0915625 
        4.77525        0.194923       0.0908345 
        4.79096        0.193979       0.0901137 
        4.80669        0.194282       0.0894005 
         4.8224        0.194141       0.0886958 
        4.83809        0.193567       0.0879996 
        4.85379        0.193408       0.0873106 
         4.8695         0.19373       0.0866284 
        4.88521        0.193433        0.085954 
        4.90093        0.193757       0.0852866 
        4.91663        0.193751       0.0846271 
        4.93234        0.193396       0.0839739 
        4.94807        0.193923       0.0833273 
        4.96377        0.194421       0.0826887 
        4.97943        0.195212       0.0820583 
        4.99514        0.194576       0.0814329 
        5.01086        0.195797       0.0808136 
        5.02654        0.195449       0.0802025 
        5.04227        0.196293       0.0795959 
          5.058        0.196447       0.0789954 
        5.07371        0.197507       0.0784023 
        5.08942        0.197705       0.0778153 
        5.10513        0.198195       0.0772344 
        5.12084        0.199271       0.0766591 
        5.13656        0.199188       0.0760899 
        5.15225          0.2001       0.0755275 
        5.16796        0.201085         0.07497 
        5.18369        0.201645       0.0744176 
         5.1994        0.202933       0.0738719 
        5.21509        0.203472       0.0733322 
        5.23079        0.204601       0.0727973 
        5.24649         0.20613       0.0722683 
        5.26217        0.206698       0.0717449 
        5.27788        0.207786       0.0712261 
        5.29359          0.2086       0.0707123 
        5.30933        0.210092        0.070203 
        5.32504        0.211079       0.0696995 
        5.34073         0.21214       0.0692016 
        5.35646         0.21216       0.0687077 
        5.37218        0.214713       0.0682185 
        5.38789        0.215263       0.0677349 
        5.40357        0.216751       0.0672566 
        5.41929        0.218728        0.066782 
        5.43502        0.219297       0.0663119 
         5.4507         0.22175       0.0658475 
        5.46639         0.22204       0.0653876 
        5.48212        0.224474        0.064931 
        5.49786        0.226238       0.0644783 
        5.51353        0.227673       0.0640322 
        5.52921         0.22878         0.06359 
        5.54495        0.231178       0.0631506 
        5.56066        0.232074        0.062716 
        5.57637        0.234458       0.0622855 
        5.59207        0.236342       0.0618595 
        5.60778        0.238205       0.0614374 
        5.62346        0.240336       0.0610198 
        5.63916        0.242041       0.0606058 
        5.65487        0.243578       0.0601955 
         5.6706        0.245897       0.0597885 
        5.68633        0.247268       0.0593852 
        5.70203        0.249692       0.0589865 
        5.71773        0.252229       0.0585915 
        5.73344        0.253019          0.0582 
        5.74916        0.256274       0.0578118 
        5.76486        0.258113       0.0574276 
        5.78054        0.259618       0.0570476 
        5.79626        0.262437         0.05667 
          5.812        0.264505       0.0562955 
         5.8277        0.267024       0.0559256 
        5.84339        0.269412       0.0555589 
        5.85911         0.27206       0.0551949 
        5.87484        0.273311       0.0548343 
        5.89053        0.277112       0.0544776 
        5.90623        0.278975        0.054124 
        5.92195        0.281075        0.053773 
        5.93767        0.283253       0.0534253 
        5.95336         0.28682       0.0530812 
        5.96905        0.288304       0.0527404 
        5.98476        0.289672       0.0524021 
        6.00048        0.294368       0.0520667 
        6.01617        0.295626       0.0517348 
        6.03185        0.298256       0.0514061 
        6.04756        0.301444       0.0510796 
        6.06331        0.302562       0.0507552 
        6.07903          0.3054       0.0504344 
        6.09473        0.308034       0.0501167 
        6.11044        0.310869       0.0498015 
        6.12616        0.312918        0.049489 
        6.14186        0.317075       0.0491796 
        6.15755        0.319744       0.0488729 
        6.17326        0.322218       0.0485685 
        6.18898        0.323586       0.0482667 
        6.20467        0.327618        0.047968 
        6.22036        0.328986       0.0476719 
         6.2361        0.332534       0.0473775 
         6.2518        0.335156       0.0470861 
        6.26748        0.336589       0.0467978 
        6.28319        0.339804       0.0465112 
        6.29893        0.342299       0.0462267 
        6.31463        0.346497       0.0459452 
        6.33033        0.347114       0.0456661 
        6.34604        0.350889       0.0453891 
        6.36177        0.353939       0.0451143 
        6.37747        0.357482       0.0448422 
