# k  (h/Mpc)    Pcb(k)  (Mpc/h)^3    Pcb_linear(k) (Mpc/h)^3   ShotnoiseSubtracted = true
      0.0200456         13920.9         14167.9 
      0.0350414           11078           10814 
      0.0492313         8009.47         8148.94 
      0.0637834         6660.97         6995.53 
      0.0800726         5325.16         5644.59 
       0.096163         4241.89         4148.82 
       0.111083         3526.56         3390.04 
       0.126058         2967.59         3061.07 
       0.142273         2579.64         2598.59 
       0.158546         2132.84         2066.77 
        0.17375         1903.92         1777.04 
       0.188953         1788.13         1630.13 
       0.204907         1537.65         1441.98 
       0.220756         1386.19         1224.35 
        0.23588         1242.67         1080.88 
         0.2514         1123.25         993.332 
       0.267535         1091.89         899.602 
       0.283568         963.455         795.138 
       0.299022         923.644         715.705 
       0.314451         948.005         660.148 
       0.330372         823.834         607.196 
       0.346141         763.258         552.238 
       0.361624         733.299         505.247 
       0.377134         694.787         468.278 
       0.392932          673.12         434.931 
       0.408854         641.606         401.906 
       0.424564         623.848         372.126 
       0.440253         571.029         346.939 
       0.455999         547.969         324.515 
       0.471626         556.391         303.462 
        0.48727         527.713         283.932 
       0.502856         490.621         266.557 
       0.518488         489.739           250.9 
       0.534347         457.638         236.146 
       0.550082          442.44          222.52 
       0.565732         439.825         210.114 
       0.581496         426.468         198.703 
       0.597222         414.278          188.15 
       0.612804         405.519         178.407 
       0.628434          388.78         169.328 
       0.644267          374.29         160.826 
       0.660051         368.808         152.956 
       0.675724         364.872         145.664 
       0.691403         354.581         138.848 
       0.707174         341.866         132.434 
       0.722871         336.783         126.457 
        0.73838         333.478         120.917 
       0.754018         319.742         115.672 
       0.769845         317.665         110.686 
        0.78569         311.381         105.993 
       0.801365          303.32         101.623 
       0.817031         296.538         97.5077 
       0.832809         293.145         93.5984 
       0.848511         285.618         89.9252 
       0.864097         279.232         86.4782 
       0.879701         277.353         83.2122 
       0.895507         269.939         80.0794 
       0.911279         262.445         77.1174 
        0.92691          260.65         74.3327 
       0.942635         258.608         71.6726 
       0.958396         251.705         69.1394 
       0.974128         246.994         66.7355 
       0.989692         239.272         64.4717 
        1.00528         238.119         62.3115 
        1.02113         234.491          60.218 
        1.03692          229.26         58.2302 
        1.05264          226.18         56.3429 
        1.06832         224.946         54.5437 
        1.08405         218.792         52.8196 
        1.09979         217.796         51.1703 
        1.11537         212.514         49.6091 
        1.13105         209.274         48.1048 
        1.14679         206.983         46.6582 
        1.16256         204.268         45.2693 
        1.17828         201.458         43.9425 
        1.19395         195.964         42.6743 
         1.2097         195.686         41.4505 
        1.22537         193.751         40.2815 
          1.241         189.585         39.1619 
        1.25666         186.041         38.0828 
        1.27241         181.981         37.0399 
        1.28819         180.482         36.0351 
        1.30392         177.007          35.071 
        1.31957         173.857         34.1471 
        1.33529         172.126         33.2537 
        1.35108         169.468         32.3892 
        1.36674         167.142         31.5622 
         1.3824         165.674         30.7653 
        1.39811         161.677         29.9937 
        1.41389         160.105          29.246 
        1.42964         157.337         28.5255 
        1.44531         155.618         27.8332 
        1.46101         152.706         27.1628 
        1.47667          151.93         26.5168 
        1.49229         149.483         25.8939 
        1.50793         146.877         25.2907 
        1.52367         145.329          24.703 
        1.53953         142.602         24.1304 
        1.55526         141.891         23.5808 
        1.57092         139.693         23.0509 
        1.58662         137.033         22.5363 
        1.60235         135.128         22.0366 
        1.61809         133.644          21.552 
        1.63369         131.898         21.0866 
        1.64941         131.055         20.6318 
        1.66519         128.308          20.189 
        1.68085         126.736         19.7625 
        1.69652          125.32         19.3484 
        1.71228         124.182          18.944 
        1.72806         122.017          18.551 
        1.74368         120.184         18.1733 
        1.75933         119.156         17.8055 
        1.77505         116.929         17.4464 
        1.79081         115.825         17.0966 
         1.8065         113.873         16.7581 
        1.82218         112.465         16.4292 
        1.83797         112.028          16.107 
        1.85367         109.554         15.7953 
        1.86928         109.199         15.4939 
        1.88497         107.487         15.1988 
        1.90073         106.344         14.9105 
        1.91647         104.459         14.6299 
        1.93218         103.174         14.3573 
        1.94787          101.91         14.0922 
        1.96363         100.882         13.8328 
        1.97935         99.8478         13.5806 
        1.99499         98.5849         13.3361 
        2.01064         96.8067         13.0974 
         2.0264         95.6755         12.8632 
        2.04216         94.4309         12.6349 
        2.05781         93.4516         12.4136 
        2.07353         92.1972         12.1969 
        2.08928         90.9581          11.985 
        2.10499         89.7378         11.7788 
        2.12065         89.3774         11.5781 
        2.13633         88.2575          11.382 
        2.15211          86.809         11.1892 
        2.16785         85.5621         11.0015 
        2.18349         84.3643         10.8194 
        2.19916         83.7125          10.641 
        2.21489         82.3039         10.4661 
        2.23063         81.6753         10.2951 
         2.2463         80.8665         10.1288 
        2.26194         79.7726         9.96656 
        2.27765         78.7167         9.80712 
        2.29341         77.8998         9.65079 
        2.30914         76.8573         9.49825 
        2.32486         75.2578         9.34913 
        2.34061         74.9054         9.20301 
        2.35635         74.0805         9.06019 
        2.37203          73.135         8.92094 
        2.38768         72.2131         8.78494 
        2.40339         71.2047         8.65133 
        2.41914         70.5943         8.52022 
        2.43483         69.9556         8.39233 
         2.4505         68.7915         8.26732 
        2.46622         68.1883         8.14445 
        2.48195         67.2815         8.02412 
        2.49759          66.528         7.90689 
        2.51328         65.7772         7.79172 
        2.52906         64.9232         7.67816 
        2.54479         64.2049         7.56731 
        2.56049         63.4058          7.4589 
        2.57618          62.547         7.35273 
        2.59189         62.1517          7.2485 
        2.60758         61.2003         7.14648 
        2.62325         60.7282         7.04657 
        2.63898          59.744         6.94825 
        2.65468         59.3297         6.85204 
        2.67044         58.6544         6.75726 
        2.68618         58.0239         6.66452 
        2.70184         57.1271         6.57392 
        2.71755         56.7424         6.48479 
        2.73329         56.1517          6.3972 
        2.74897         55.6527         6.31154 
        2.76462         54.8966         6.22766 
        2.78034         54.2525         6.14497 
        2.79607         53.3709         6.06372 
        2.81179         52.9514         5.98406 
        2.82749         52.5116         5.90593 
        2.84321         52.0595         5.82912 
        2.85893         51.3451         5.75373 
        2.87462         50.6137         5.67981 
        2.89033         50.1125         5.60715 
        2.90605          49.544          5.5357 
        2.92176         48.9909         5.46556 
        2.93747          48.482         5.39668 
        2.95318         48.2226           5.329 
        2.96891         47.5005         5.26245 
        2.98456         47.0068         5.19735 
        3.00023         46.4428         5.13328 
        3.01596         45.9778          5.0701 
        3.03164         45.4415         5.00817 
        3.04738         45.0396         4.94711 
         3.0631         44.6527         4.88711 
        3.07883         44.1477         4.82811 
        3.09456         43.5751         4.77011 
        3.11026         43.0101         4.71316 
        3.12596         42.5568         4.65715 
        3.14163         42.3455         4.60221 
        3.15734         41.9341         4.54802 
        3.17308         41.5593          4.4946 
        3.18879         40.9318         4.44219 
        3.20447         40.5357          4.3907 
         3.2202          40.157         4.33988 
         3.2359         39.7198         4.28996 
        3.25157          39.299         4.24096 
        3.26729         38.9584         4.19258 
        3.28304         38.4583         4.14488 
        3.29877         38.0347         4.09798 
        3.31446         37.7859         4.05193 
        3.33014         37.2957         4.00663 
        3.34585         36.9038         3.96197 
        3.36158         36.5801         3.91792 
        3.37727         36.1861          3.8747 
        3.39294         35.8373         3.83217 
        3.40867         35.5546         3.79014 
        3.42439         35.1498         3.74877 
        3.44008         34.8154          3.7081 
        3.45578         34.4877         3.66802 
        3.47153         34.2498         3.62845 
        3.48724         33.8567         3.58953 
        3.50292         33.5298         3.55129 
        3.51859         33.1923         3.51363 
        3.53431         32.8005          3.4764 
        3.55007          32.495         3.43964 
        3.56577         32.1513         3.40355 
        3.58146          31.899           3.368 
        3.59719         31.5888         3.33289 
        3.61292         31.3119         3.29829 
        3.62859         30.9391         3.26433 
        3.64429         30.6816         3.23078 
        3.66003         30.3851          3.1976 
        3.67578         30.1565         3.16492 
        3.69146         29.9711         3.13281 
        3.70712         29.5139         3.10122 
        3.72284         29.3355         3.06995 
        3.73853         29.0715         3.03917 
        3.75422         28.7703          3.0088 
        3.76993         28.4483         2.97884 
        3.78564         28.1993         2.94929 
        3.80137         27.9349         2.92011 
        3.81707         27.6945         2.89138 
        3.83279         27.3853         2.86302 
        3.84853         27.1499           2.835 
        3.86424         26.7689         2.80742 
        3.87992         26.6748         2.78025 
        3.89561          26.473         2.75344 
        3.91134         26.1889         2.72694 
        3.92704         25.8829         2.70081 
        3.94273         25.6661         2.67507 
        3.95845         25.4819         2.64961 
        3.97418         25.1865         2.62448 
        3.98988         24.9497         2.59972 
        4.00554         24.6906         2.57535 
        4.02125         24.5702         2.55123 
        4.03698         24.3201         2.52738 
        4.05268         24.0894         2.50389 
        4.06839         23.8822         2.48069 
         4.0841          23.706         2.45779 
        4.09983         23.4099         2.43515 
        4.11555         23.2664         2.41282 
        4.13124          23.099         2.39082 
        4.14693         22.9074         2.36909 
        4.16266          22.622         2.34758 
        4.17839         22.5518         2.32635 
        4.19408         22.2251         2.30543 
        4.20977         22.0801         2.28477 
        4.22551         21.8837         2.26432 
        4.24123         21.6826         2.24413 
        4.25691         21.5016         2.22426 
        4.27259         21.2305         2.20462 
        4.28831         21.1308         2.18518 
        4.30404         20.9106         2.16596 
        4.31974         20.7207         2.14701 
        4.33543         20.5949         2.12831 
        4.35116         20.4375         2.10978 
        4.36688         20.2721         2.09149 
        4.38255         20.0578         2.07348 
        4.39825         19.8946         2.05565 
        4.41398         19.6761           2.038 
         4.4297         19.5751         2.02058 
        4.44541         19.3334         2.00336 
        4.46111         19.1791         1.98636 
        4.47683         19.0448         1.96955 
        4.49251         18.9549         1.95297 
        4.50819         18.7579         1.93658 
         4.5239         18.5796         1.92037 
        4.53962         18.4797         1.90432 
        4.55535         18.2928         1.88845 
        4.57106         18.1043         1.87278 
        4.58678         17.9654          1.8573 
         4.6025         17.7956         1.84198 
        4.61821         17.7446         1.82684 
        4.63391         17.5456          1.8119 
         4.6496         17.3976         1.79713 
        4.66532         17.2893          1.7825 
        4.68103          17.118         1.76805 
        4.69673         16.9511         1.75377 
        4.71241         16.8372         1.73966 
        4.72811         16.7224         1.72569 
        4.74384         16.5808         1.71186 
        4.75955         16.4642          1.6982 
        4.77525         16.2965          1.6847 
        4.79096         16.1378         1.67133 
        4.80669         16.0353          1.6581 
         4.8224         15.9314         1.64503 
        4.83809         15.7746         1.63212 
        4.85379         15.6758         1.61934 
         4.8695          15.526         1.60669 
        4.88521         15.4134         1.59418 
        4.90093         15.2942          1.5818 
        4.91663          15.172         1.56957 
        4.93234         15.0204         1.55745 
        4.94807         14.9441         1.54546 
        4.96377          14.822         1.53362 
        4.97943         14.7186         1.52192 
        4.99514         14.6034         1.51032 
        5.01086         14.5002         1.49884 
        5.02654         14.3574          1.4875 
        5.04227         14.2491         1.47625 
          5.058         14.1295         1.46512 
        5.07371         14.0469         1.45412 
        5.08942         13.9226         1.44323 
        5.10513         13.8334         1.43245 
        5.12084         13.6707         1.42179 
        5.13656         13.6226         1.41123 
        5.15225         13.4909          1.4008 
        5.16796         13.4072         1.39046 
        5.18369         13.2912         1.38021 
         5.1994         13.1763         1.37009 
        5.21509         13.1072         1.36008 
        5.23079         12.9947         1.35016 
        5.24649         12.9191         1.34035 
        5.26217         12.7744         1.33064 
        5.27788          12.719         1.32102 
        5.29359         12.6281         1.31149 
        5.30933         12.5254         1.30204 
        5.32504         12.4247         1.29271 
        5.34073          12.331         1.28347 
        5.35646         12.2541         1.27431 
        5.37218          12.147         1.26524 
        5.38789         12.0296         1.25627 
        5.40357         11.9849          1.2474 
        5.41929         11.8992          1.2386 
        5.43502         11.8019         1.22988 
         5.4507         11.6975         1.22126 
        5.46639         11.6219         1.21273 
        5.48212         11.5424         1.20427 
        5.49786         11.4699         1.19587 
        5.51353         11.3931          1.1876 
        5.52921         11.2981         1.17939 
        5.54495         11.2203         1.17125 
        5.56066         11.1344         1.16318 
        5.57637         11.0619          1.1552 
        5.59207         10.9619          1.1473 
        5.60778         10.8602         1.13947 
        5.62346          10.814         1.13173 
        5.63916         10.7282         1.12405 
        5.65487         10.6453         1.11644 
         5.6706         10.5741         1.10889 
        5.68633         10.5043         1.10141 
        5.70203          10.447         1.09401 
        5.71773         10.3619         1.08669 
        5.73344         10.3112         1.07943 
        5.74916         10.2109         1.07223 
        5.76486         10.1593          1.0651 
        5.78054         10.0794         1.05805 
        5.79626         9.97766         1.05105 
          5.812         9.93988         1.04411 
         5.8277         9.85565         1.03724 
        5.84339         9.76415         1.03044 
        5.85911         9.73156         1.02369 
        5.87484         9.65797           1.017 
        5.89053         9.58361         1.01039 
        5.90623         9.53525         1.00383 
        5.92195         9.45611         0.99732 
        5.93767         9.37035        0.990871 
        5.95336         9.32174         0.98449 
        5.96905         9.26616        0.978169 
        5.98476         9.21938        0.971895 
        6.00048         9.12425        0.965674 
        6.01617         9.05773        0.959518 
        6.03185         9.00487        0.953422 
        6.04756         8.94601        0.947366 
        6.06331         8.90316         0.94135 
        6.07903         8.83799          0.9354 
        6.09473         8.75999        0.929507 
        6.11044         8.69649         0.92366 
        6.12616         8.66626        0.917866 
        6.14186         8.59018        0.912127 
        6.15755         8.54213        0.906438 
        6.17326         8.47846        0.900794 
        6.18898         8.43506        0.895196 
        6.20467         8.36051        0.889656 
        6.22036         8.32118        0.884163 
         6.2361         8.25605        0.878703 
         6.2518          8.1931        0.873299 
        6.26748         8.16196        0.867952 
        6.28319         8.10462        0.862636 
        6.29893         8.04978        0.857361 
        6.31463         8.00365        0.852139 
        6.33033         7.93121        0.846962 
        6.34604         7.89371        0.841826 
        6.36177         7.85043        0.836728 
        6.37747         7.78475        0.831682 
