# k  (h/Mpc)    Pcb(k)  (Mpc/h)^3    Pcb_linear(k) (Mpc/h)^3   ShotnoiseSubtracted = true
      0.0200456         26509.6         27077.3 
      0.0350414         21251.3         20667.4 
      0.0492313         15036.2           15574 
      0.0637834         12442.6         13369.6 
      0.0800726            9894         10787.8 
       0.096163         8088.76         7929.09 
       0.111083         6717.52         6478.94 
       0.126058         5607.96         5850.22 
       0.142273         4956.92         4966.35 
       0.158546         4093.88         3949.95 
        0.17375         3744.41         3396.21 
       0.188953         3613.03         3115.46 
       0.204907         3127.33         2755.87 
       0.220756         2852.25         2339.94 
        0.23588          2564.3         2065.74 
         0.2514         2353.78         1898.43 
       0.267535         2258.95         1719.29 
       0.283568         2047.82         1519.64 
       0.299022            1959         1367.83 
       0.314451         2039.03         1261.65 
       0.330372         1864.58         1160.45 
       0.346141         1724.72         1055.42 
       0.361624         1648.71         965.612 
       0.377134         1598.54         894.958 
       0.392932         1516.24         831.226 
       0.408854         1465.86          768.11 
       0.424564         1438.64         711.195 
       0.440253         1365.29          663.06 
       0.455999         1305.99         620.203 
       0.471626         1308.18         579.968 
        0.48727         1254.22         542.641 
       0.502856         1229.57         509.436 
       0.518488          1174.5         479.513 
       0.534347         1139.12         451.316 
       0.550082         1100.52         425.272 
       0.565732         1075.16         401.563 
       0.581496         1049.13         379.754 
       0.597222         1042.63         359.587 
       0.612804         1011.31         340.967 
       0.628434         975.198         323.614 
       0.644267         953.812         307.366 
       0.660051         938.652         292.325 
       0.675724         929.116         278.389 
       0.691403         888.515         265.361 
       0.707174         871.881         253.104 
       0.722871         866.052          241.68 
        0.73838         838.009         231.093 
       0.754018         831.686         221.069 
       0.769845         811.944         211.539 
        0.78569         792.016          202.57 
       0.801365         773.605         194.219 
       0.817031         761.476         186.354 
       0.832809         743.303         178.882 
       0.848511         725.498         171.862 
       0.864097         720.019         165.275 
       0.879701         720.019         159.033 
       0.895507         696.283         153.045 
       0.911279         690.012         147.384 
        0.92691         675.444         142.062 
       0.942635         662.814         136.978 
       0.958396          656.08         132.137 
       0.974128         639.255         127.543 
       0.989692          627.19         123.216 
        1.00528         617.339         119.088 
        1.02113         604.011         115.087 
        1.03692         592.917         111.288 
        1.05264         588.448         107.681 
        1.06832         576.925         104.242 
        1.08405          569.06         100.947 
        1.09979         556.661         97.7951 
        1.11537          545.04         94.8114 
        1.13105         537.626         91.9365 
        1.14679         528.476         89.1718 
        1.16256         523.205         86.5173 
        1.17828         514.431         83.9816 
        1.19395         505.338         81.5578 
         1.2097         493.703          79.219 
        1.22537         489.294         76.9848 
          1.241         478.609          74.845 
        1.25666         470.757         72.7826 
        1.27241         468.652         70.7896 
        1.28819         457.175         68.8691 
        1.30392         452.857         67.0266 
        1.31957         443.186         65.2609 
        1.33529         439.599         63.5534 
        1.35108         438.362         61.9013 
        1.36674         427.467         60.3207 
         1.3824         417.117         58.7976 
        1.39811         415.254          57.323 
        1.41389         409.732         55.8941 
        1.42964         401.236         54.5171 
        1.44531         396.533          53.194 
        1.46101         385.372         51.9127 
        1.47667         385.509         50.6781 
        1.49229         379.679         49.4877 
        1.50793           370.6         48.3347 
        1.52367         365.446         47.2117 
        1.53953         360.543         46.1173 
        1.55526         353.059         45.0669 
        1.57092         348.698         44.0542 
        1.58662         344.588         43.0706 
        1.60235         338.855         42.1156 
        1.61809         333.562         41.1896 
        1.63369         330.406            40.3 
        1.64941         324.557         39.4308 
        1.66519         321.427         38.5845 
        1.68085         313.873         37.7695 
        1.69652         310.034         36.9781 
        1.71228         305.371         36.2052 
        1.72806         302.716         35.4542 
        1.74368           299.4         34.7323 
        1.75933         295.352         34.0294 
        1.77505         290.483         33.3429 
        1.79081         286.155         32.6745 
         1.8065         283.801         32.0275 
        1.82218         277.314         31.3989 
        1.83797         274.431         30.7831 
        1.85367         269.767         30.1875 
        1.86928         265.583         29.6114 
        1.88497         262.458         29.0475 
        1.90073         260.276         28.4964 
        1.91647         255.745         27.9603 
        1.93218         252.478         27.4393 
        1.94787         248.342         26.9326 
        1.96363         246.354         26.4368 
        1.97935         240.348         25.9547 
        1.99499         239.086         25.4876 
        2.01064         233.327         25.0314 
         2.0264         230.788         24.5837 
        2.04216         228.564         24.1474 
        2.05781         224.413         23.7245 
        2.07353         223.458         23.3104 
        2.08928         219.966         22.9054 
        2.10499         217.762         22.5113 
        2.12065         214.149         22.1277 
        2.13633         211.299         21.7529 
        2.15211         207.899         21.3845 
        2.16785         205.933         21.0258 
        2.18349         202.715         20.6776 
        2.19916           201.7         20.3368 
        2.21489         198.026         20.0026 
        2.23063         196.113         19.6757 
         2.2463         193.144         19.3578 
        2.26194         190.628         19.0478 
        2.27765         188.892         18.7431 
        2.29341         186.145         18.4443 
        2.30914          183.77         18.1528 
        2.32486         182.154         17.8678 
        2.34061          179.03         17.5885 
        2.35635         176.703         17.3156 
        2.37203         175.527         17.0494 
        2.38768         172.869         16.7895 
        2.40339         170.227         16.5342 
        2.41914         169.002         16.2836 
        2.43483         167.164         16.0392 
         2.4505         164.735         15.8002 
        2.46622         162.436         15.5654 
        2.48195         160.522         15.3354 
        2.49759         158.425         15.1114 
        2.51328         156.214         14.8913 
        2.52906         154.809         14.6743 
        2.54479         152.936         14.4624 
        2.56049         151.236         14.2552 
        2.57618         149.369         14.0523 
        2.59189         148.024         13.8531 
        2.60758         146.918         13.6581 
        2.62325         144.922         13.4672 
        2.63898         142.616         13.2793 
        2.65468         141.686         13.0954 
        2.67044         140.315         12.9143 
        2.68618         137.659          12.737 
        2.70184         136.681         12.5639 
        2.71755         134.596         12.3935 
        2.73329         133.512         12.2261 
        2.74897         131.322         12.0624 
        2.76462         130.166         11.9021 
        2.78034         128.949         11.7441 
        2.79607         127.553         11.5888 
        2.81179         126.104         11.4365 
        2.82749          124.51         11.2872 
        2.84321         123.099         11.1404 
        2.85893         122.133         10.9963 
        2.87462         120.555         10.8551 
        2.89033         119.396         10.7162 
        2.90605         117.738         10.5797 
        2.92176          116.24         10.4456 
        2.93747         115.392          10.314 
        2.95318         114.565         10.1846 
        2.96891         112.906         10.0574 
        2.98456         111.543         9.93302 
        3.00023         110.613         9.81056 
        3.01596         109.209         9.68981 
        3.03164         108.166         9.57146 
        3.04738         107.068         9.45477 
         3.0631         105.911         9.34009 
        3.07883         104.841         9.22733 
        3.09456         103.653         9.11648 
        3.11026         102.473         9.00764 
        3.12596         101.121         8.90061 
        3.14163         99.8986         8.79559 
        3.15734         99.2759         8.69204 
        3.17308         98.2275         8.58993 
        3.18879         97.3862         8.48977 
        3.20447         96.2988         8.39136 
         3.2202          95.254         8.29424 
         3.2359         94.5523         8.19884 
        3.25157         93.4524         8.10519 
        3.26729         92.4879         8.01273 
        3.28304         91.8006         7.92156 
        3.29877         90.3905         7.83194 
        3.31446         89.7769         7.74392 
        3.33014         89.1046         7.65735 
        3.34585         87.9078         7.57199 
        3.36158         86.9022         7.48782 
        3.37727         86.1649          7.4052 
        3.39294         85.4147         7.32393 
        3.40867         84.5046          7.2436 
        3.42439         83.3782         7.16453 
        3.44008         82.3974         7.08681 
        3.45578         82.0179          7.0102 
        3.47153         81.0264         6.93457 
        3.48724         80.3668         6.86021 
        3.50292         79.7119         6.78712 
        3.51859         78.8969         6.71514 
        3.53431         78.1657           6.644 
        3.55007         77.3771         6.57373 
        3.56577         76.5691         6.50476 
        3.58146         75.9633         6.43682 
        3.59719         75.3614         6.36971 
        3.61292         74.5084          6.3036 
        3.62859         73.6263         6.23868 
        3.64429          73.135         6.17456 
        3.66003         72.4014         6.11116 
        3.67578         71.7124         6.04869 
        3.69146         71.1078         5.98733 
        3.70712         70.2416         5.92695 
        3.72284         69.7743         5.86719 
        3.73853         69.0082         5.80836 
        3.75422         68.4732         5.75033 
        3.76993         67.8259         5.69306 
        3.78564         67.1785         5.63659 
        3.80137         66.6358         5.58081 
        3.81707         65.9799         5.52591 
        3.83279         65.2509         5.47172 
        3.84853         64.8508         5.41817 
        3.86424         64.1432         5.36546 
        3.87992         63.4749         5.31353 
        3.89561         63.1889         5.26229 
        3.91134         62.5584         5.21164 
        3.92704         61.9878         5.16171 
        3.94273         61.1332          5.1125 
        3.95845         60.5943         5.06385 
        3.97418         60.1339         5.01583 
        3.98988         59.7357         4.96851 
        4.00554         58.9938         4.92193 
        4.02125         58.6144         4.87582 
        4.03698         58.0635         4.83024 
        4.05268         57.7217         4.78536 
        4.06839         57.1238         4.74101 
         4.0841         56.5442         4.69725 
        4.09983         56.0371         4.65399 
        4.11555         55.5634          4.6113 
        4.13124         55.0306         4.56927 
        4.14693         54.4944         4.52773 
        4.16266         54.1774         4.48662 
        4.17839          53.622         4.44604 
        4.19408          53.135         4.40607 
        4.20977         52.8026         4.36658 
        4.22551         52.2151         4.32749 
        4.24123          51.841         4.28892 
        4.25691         51.2992         4.25093 
        4.27259         51.0548         4.21339 
        4.28831          50.458         4.17624 
        4.30404         50.2697         4.13951 
        4.31974         49.6329          4.1033 
        4.33543         49.1818         4.06755 
        4.35116         48.8271         4.03215 
        4.36688         48.3683         3.99719 
        4.38255         47.9691         3.96278 
        4.39825         47.4629          3.9287 
        4.41398         47.0662         3.89496 
         4.4297         46.8147         3.86166 
        4.44541         46.4134         3.82876 
        4.46111         45.9716         3.79627 
        4.47683         45.5576         3.76414 
        4.49251         45.2746         3.73245 
        4.50819         44.9961         3.70114 
         4.5239         44.5561         3.67015 
        4.53962         44.0406         3.63948 
        4.55535         43.7059         3.60914 
        4.57106         43.5943         3.57921 
        4.58678          43.105          3.5496 
         4.6025         42.6647         3.52034 
        4.61821         42.3353         3.49141 
        4.63391         41.9384         3.46284 
         4.6496         41.6828         3.43461 
        4.66532         41.3796         3.40666 
        4.68103         40.9835         3.37903 
        4.69673         40.6781         3.35174 
        4.71241          40.401         3.32479 
        4.72811         40.0308         3.29808 
        4.74384         39.6926         3.27165 
        4.75955         39.3972         3.24554 
        4.77525         38.9892         3.21974 
        4.79096         38.7282         3.19419 
        4.80669         38.4244          3.1689 
         4.8224         38.1912         3.14393 
        4.83809         37.9283         3.11925 
        4.85379         37.6226         3.09483 
         4.8695         37.3141         3.07065 
        4.88521         36.8895         3.04674 
        4.90093         36.6205         3.02309 
        4.91663          36.391         2.99971 
        4.93234         36.0735         2.97655 
        4.94807         35.7975         2.95363 
        4.96377         35.5446           2.931 
        4.97943         35.2418         2.90865 
        4.99514         34.9626         2.88649 
        5.01086         34.6794         2.86453 
        5.02654         34.4145         2.84287 
        5.04227         34.1217         2.82137 
          5.058         33.9107         2.80008 
        5.07371         33.6505         2.77906 
        5.08942         33.3646         2.75826 
        5.10513         33.1465         2.73766 
        5.12084          32.915         2.71727 
        5.13656         32.6383          2.6971 
        5.15225          32.472         2.67716 
        5.16796          32.133          2.6574 
        5.18369         31.8859         2.63782 
         5.1994         31.6768         2.61848 
        5.21509          31.419         2.59935 
        5.23079         31.1296         2.58039 
        5.24649         30.9367         2.56163 
        5.26217         30.7028         2.54308 
        5.27788         30.4348         2.52469 
        5.29359         30.2149         2.50648 
        5.30933         30.0267         2.48843 
        5.32504         29.8121         2.47058 
        5.34073         29.5659         2.45293 
        5.35646         29.3739         2.43542 
        5.37218         29.1927         2.41808 
        5.38789         28.8986         2.40094 
        5.40357          28.664         2.38399 
        5.41929         28.5278         2.36717 
        5.43502         28.2476          2.3505 
         5.4507         28.1166         2.33404 
        5.46639          27.894         2.31774 
        5.48212          27.681         2.30156 
        5.49786         27.4522         2.28551 
        5.51353         27.2421          2.2697 
        5.52921          27.039         2.25402 
        5.54495         26.9304         2.23845 
        5.56066          26.678         2.22304 
        5.57637         26.4491         2.20778 
        5.59207          26.325         2.19268 
        5.60778         26.0967         2.17772 
        5.62346         25.9784         2.16292 
        5.63916         25.7285         2.14824 
        5.65487         25.5553          2.1337 
         5.6706         25.4291         2.11927 
        5.68633         25.1941         2.10498 
        5.70203         24.9982         2.09084 
        5.71773         24.8036         2.07685 
        5.73344         24.6365         2.06297 
        5.74916         24.5321         2.04921 
        5.76486         24.3058         2.03559 
        5.78054         24.1321         2.02212 
        5.79626         23.9515         2.00874 
          5.812         23.8058         1.99546 
         5.8277          23.622         1.98235 
        5.84339         23.4307         1.96935 
        5.85911         23.2559         1.95645 
        5.87484         23.1718         1.94367 
        5.89053         22.9723         1.93102 
        5.90623         22.8169         1.91849 
        5.92195         22.5952         1.90605 
        5.93767         22.4496         1.89372 
        5.95336          22.297         1.88153 
        5.96905          22.193         1.86945 
        5.98476         21.9921         1.85746 
        6.00048         21.8509         1.84557 
        6.01617         21.7141          1.8338 
        6.03185         21.5592         1.82215 
        6.04756         21.3983         1.81058 
        6.06331         21.2669         1.79908 
        6.07903         21.1313         1.78771 
        6.09473         20.9254         1.77644 
        6.11044         20.8438         1.76527 
        6.12616         20.7202          1.7542 
        6.14186         20.5247         1.74323 
        6.15755         20.4143         1.73236 
        6.17326          20.288         1.72157 
        6.18898         20.1313         1.71087 
        6.20467         20.0191         1.70028 
        6.22036         19.8441         1.68979 
         6.2361         19.7627         1.67935 
         6.2518         19.5842         1.66902 
        6.26748         19.4686          1.6588 
        6.28319         19.3462         1.64864 
        6.29893         19.2158         1.63856 
        6.31463         19.1019         1.62858 
        6.33033         18.9501         1.61869 
        6.34604          18.842         1.60887 
        6.36177         18.6839         1.59913 
        6.37747         18.5796         1.58948 
